3997.45528 0.04019
3996.16951 0.04027
3994.88374 0.03992
3993.59798 0.03934
3992.31221 0.03893
3991.02644 0.03891
3989.74067 0.03925
3988.45490 0.03984
3987.16913 0.04045
3985.88336 0.04071
3984.59759 0.04025
3983.31183 0.03905
3982.02606 0.03762
3980.74029 0.03667
3979.45452 0.03660
3978.16875 0.03718
3976.88298 0.03796
3975.59721 0.03874
3974.31144 0.03954
3973.02567 0.04013
3971.73991 0.03995
3970.45414 0.03884
3969.16837 0.03743
3967.88260 0.03672
3966.59683 0.03726
3965.31106 0.03873
3964.02529 0.04010
3962.73952 0.04048
3961.45376 0.03981
3960.16799 0.03894
3958.88222 0.03871
3957.59645 0.03915
3956.31068 0.03959
3955.02491 0.03938
3953.73914 0.03861
3952.45337 0.03800
3951.16760 0.03821
3949.88184 0.03916
3948.59607 0.04006
3947.31030 0.04032
3946.02453 0.04006
3944.73876 0.03974
3943.45299 0.03962
3942.16722 0.03955
3940.88145 0.03921
3939.59569 0.03846
3938.30992 0.03753
3937.02415 0.03690
3935.73838 0.03690
3934.45261 0.03746
3933.16684 0.03833
3931.88107 0.03934
3930.59530 0.04034
3929.30953 0.04108
3928.02377 0.04132
3926.73800 0.04110
3925.45223 0.04084
3924.16646 0.04089
3922.88069 0.04108
3921.59492 0.04092
3920.30915 0.04023
3919.02338 0.03929
3917.73762 0.03848
3916.45185 0.03793
3915.16608 0.03745
3913.88031 0.03681
3912.59454 0.03620
3911.30877 0.03616
3910.02300 0.03701
3908.73723 0.03832
3907.45146 0.03904
3906.16570 0.03844
3904.87993 0.03697
3903.59416 0.03593
3902.30839 0.03614
3901.02262 0.03723
3899.73685 0.03815
3898.45108 0.03829
3897.16531 0.03793
3895.87955 0.03785
3894.59378 0.03856
3893.30801 0.03992
3892.02224 0.04140
3890.73647 0.04245
3889.45070 0.04260
3888.16493 0.04159
3886.87916 0.03983
3885.59339 0.03825
3884.30763 0.03736
3883.02186 0.03681
3881.73609 0.03610
3880.45032 0.03549
3879.16455 0.03561
3877.87878 0.03652
3876.59301 0.03754
3875.30724 0.03802
3874.02148 0.03798
3872.73571 0.03798
3871.44994 0.03845
3870.16417 0.03925
3868.87840 0.03974
3867.59263 0.03921
3866.30686 0.03782
3865.02109 0.03656
3863.73532 0.03603
3862.44956 0.03602
3861.16379 0.03617
3859.87802 0.03642
3858.59225 0.03680
3857.30648 0.03725
3856.02071 0.03776
3854.73494 0.03847
3853.44917 0.03932
3852.16341 0.03969
3850.87764 0.03911
3849.59187 0.03813
3848.30610 0.03772
3847.02033 0.03818
3845.73456 0.03901
3844.44879 0.03953
3843.16302 0.03941
3841.87725 0.03857
3840.59149 0.03709
3839.30572 0.03538
3838.01995 0.03412
3836.73418 0.03376
3835.44841 0.03425
3834.16264 0.03531
3832.87687 0.03659
3831.59110 0.03754
3830.30534 0.03765
3829.01957 0.03692
3827.73380 0.03592
3826.44803 0.03520
3825.16226 0.03491
3823.87649 0.03491
3822.59072 0.03532
3821.30495 0.03644
3820.01918 0.03807
3818.73342 0.03926
3817.44765 0.03935
3816.16188 0.03883
3814.87611 0.03846
3813.59034 0.03828
3812.30457 0.03802
3811.01880 0.03773
3809.73303 0.03758
3808.44726 0.03751
3807.16150 0.03740
3805.87573 0.03716
3804.58996 0.03675
3803.30419 0.03634
3802.01842 0.03644
3800.73265 0.03736
3799.44688 0.03863
3798.16111 0.03953
3796.87535 0.03974
3795.58958 0.03923
3794.30381 0.03795
3793.01804 0.03601
3791.73227 0.03402
3790.44650 0.03273
3789.16073 0.03260
3787.87496 0.03346
3786.58919 0.03465
3785.30343 0.03549
3784.01766 0.03571
3782.73189 0.03557
3781.44612 0.03548
3780.16035 0.03574
3778.87458 0.03623
3777.58881 0.03656
3776.30304 0.03652
3775.01728 0.03628
3773.73151 0.03623
3772.44574 0.03657
3771.15997 0.03723
3769.87420 0.03788
3768.58843 0.03807
3767.30266 0.03753
3766.01689 0.03661
3764.73112 0.03585
3763.44536 0.03541
3762.15959 0.03510
3760.87382 0.03491
3759.58805 0.03514
3758.30228 0.03587
3757.01651 0.03678
3755.73074 0.03732
3754.44497 0.03707
3753.15921 0.03616
3751.87344 0.03518
3750.58767 0.03454
3749.30190 0.03435
3748.01613 0.03454
3746.73036 0.03471
3745.44459 0.03464
3744.15882 0.03463
3742.87305 0.03473
3741.58729 0.03472
3740.30152 0.03472
3739.01575 0.03490
3737.72998 0.03507
3736.44421 0.03525
3735.15844 0.03564
3733.87267 0.03621
3732.58690 0.03665
3731.30114 0.03676
3730.01537 0.03644
3728.72960 0.03559
3727.44383 0.03440
3726.15806 0.03338
3724.87229 0.03297
3723.58652 0.03321
3722.30075 0.03384
3721.01498 0.03461
3719.72922 0.03537
3718.44345 0.03595
3717.15768 0.03608
3715.87191 0.03560
3714.58614 0.03483
3713.30037 0.03452
3712.01460 0.03503
3710.72883 0.03588
3709.44307 0.03617
3708.15730 0.03570
3706.87153 0.03507
3705.58576 0.03473
3704.29999 0.03449
3703.01422 0.03399
3701.72845 0.03329
3700.44268 0.03282
3699.15691 0.03286
3697.87115 0.03339
3696.58538 0.03422
3695.29961 0.03505
3694.01384 0.03557
3692.72807 0.03571
3691.44230 0.03564
3690.15653 0.03545
3688.87076 0.03516
3687.58500 0.03488
3686.29923 0.03473
3685.01346 0.03478
3683.72769 0.03504
3682.44192 0.03534
3681.15615 0.03539
3679.87038 0.03518
3678.58461 0.03485
3677.29884 0.03454
3676.01308 0.03458
3674.72731 0.03524
3673.44154 0.03616
3672.15577 0.03673
3670.87000 0.03700
3669.58423 0.03740
3668.29846 0.03794
3667.01269 0.03821
3665.72693 0.03803
3664.44116 0.03755
3663.15539 0.03705
3661.86962 0.03666
3660.58385 0.03627
3659.29808 0.03575
3658.01231 0.03522
3656.72654 0.03503
3655.44077 0.03522
3654.15501 0.03533
3652.86924 0.03485
3651.58347 0.03384
3650.29770 0.03284
3649.01193 0.03238
3647.72616 0.03272
3646.44039 0.03372
3645.15462 0.03483
3643.86886 0.03556
3642.58309 0.03593
3641.29732 0.03631
3640.01155 0.03689
3638.72578 0.03751
3637.44001 0.03786
3636.15424 0.03770
3634.86847 0.03711
3633.58270 0.03657
3632.29694 0.03656
3631.01117 0.03703
3629.72540 0.03768
3628.43963 0.03830
3627.15386 0.03871
3625.86809 0.03864
3624.58232 0.03805
3623.29655 0.03725
3622.01079 0.03669
3620.72502 0.03663
3619.43925 0.03694
3618.15348 0.03716
3616.86771 0.03689
3615.58194 0.03630
3614.29617 0.03611
3613.01040 0.03684
3611.72463 0.03818
3610.43887 0.03934
3609.15310 0.03996
3607.86733 0.04022
3606.58156 0.04027
3605.29579 0.03991
3604.01002 0.03911
3602.72425 0.03818
3601.43848 0.03750
3600.15272 0.03723
3598.86695 0.03731
3597.58118 0.03761
3596.29541 0.03792
3595.00964 0.03799
3593.72387 0.03776
3592.43810 0.03759
3591.15233 0.03790
3589.86656 0.03868
3588.58080 0.03936
3587.29503 0.03941
3586.00926 0.03886
3584.72349 0.03819
3583.43772 0.03777
3582.15195 0.03764
3580.86618 0.03778
3579.58041 0.03831
3578.29464 0.03934
3577.00888 0.04067
3575.72311 0.04182
3574.43734 0.04226
3573.15157 0.04183
3571.86580 0.04086
3570.58003 0.03985
3569.29426 0.03915
3568.00849 0.03893
3566.72273 0.03939
3565.43696 0.04047
3564.15119 0.04171
3562.86542 0.04242
3561.57965 0.04231
3560.29388 0.04169
3559.00811 0.04116
3557.72234 0.04111
3556.43657 0.04161
3555.15081 0.04240
3553.86504 0.04310
3552.57927 0.04353
3551.29350 0.04370
3550.00773 0.04362
3548.72196 0.04320
3547.43619 0.04254
3546.15042 0.04205
3544.86466 0.04210
3543.57889 0.04263
3542.29312 0.04328
3541.00735 0.04369
3539.72158 0.04367
3538.43581 0.04325
3537.15004 0.04267
3535.86427 0.04233
3534.57850 0.04247
3533.29274 0.04302
3532.00697 0.04367
3530.72120 0.04411
3529.43543 0.04418
3528.14966 0.04389
3526.86389 0.04345
3525.57812 0.04314
3524.29235 0.04312
3523.00659 0.04337
3521.72082 0.04366
3520.43505 0.04377
3519.14928 0.04364
3517.86351 0.04339
3516.57774 0.04327
3515.29197 0.04341
3514.00620 0.04378
3512.72043 0.04411
3511.43467 0.04415
3510.14890 0.04389
3508.86313 0.04367
3507.57736 0.04382
3506.29159 0.04437
3505.00582 0.04514
3503.72005 0.04593
3502.43428 0.04653
3501.14852 0.04667
3499.86275 0.04616
3498.57698 0.04522
3497.29121 0.04428
3496.00544 0.04367
3494.71967 0.04346
3493.43390 0.04363
3492.14813 0.04412
3490.86236 0.04479
3489.57660 0.04537
3488.29083 0.04574
3487.00506 0.04600
3485.71929 0.04639
3484.43352 0.04691
3483.14775 0.04724
3481.86198 0.04709
3480.57621 0.04657
3479.29045 0.04621
3478.00468 0.04648
3476.71891 0.04728
3475.43314 0.04807
3474.14737 0.04843
3472.86160 0.04846
3471.57583 0.04843
3470.29006 0.04847
3469.00429 0.04839
3467.71853 0.04803
3466.43276 0.04746
3465.14699 0.04694
3463.86122 0.04682
3462.57545 0.04720
3461.28968 0.04780
3460.00391 0.04818
3458.71814 0.04805
3457.43238 0.04748
3456.14661 0.04681
3454.86084 0.04645
3453.57507 0.04659
3452.28930 0.04705
3451.00353 0.04749
3449.71776 0.04780
3448.43199 0.04806
3447.14622 0.04836
3445.86046 0.04856
3444.57469 0.04852
3443.28892 0.04825
3442.00315 0.04791
3440.71738 0.04773
3439.43161 0.04776
3438.14584 0.04790
3436.86007 0.04799
3435.57431 0.04802
3434.28854 0.04814
3433.00277 0.04847
3431.71700 0.04894
3430.43123 0.04938
3429.14546 0.04965
3427.85969 0.04968
3426.57392 0.04959
3425.28815 0.04954
3424.00239 0.04953
3422.71662 0.04938
3421.43085 0.04899
3420.14508 0.04849
3418.85931 0.04820
3417.57354 0.04831
3416.28777 0.04881
3415.00200 0.04954
3413.71624 0.05027
3412.43047 0.05080
3411.14470 0.05109
3409.85893 0.05118
3408.57316 0.05118
3407.28739 0.05119
3406.00162 0.05132
3404.71585 0.05151
3403.43008 0.05159
3402.14432 0.05147
3400.85855 0.05136
3399.57278 0.05145
3398.28701 0.05175
3397.00124 0.05209
3395.71547 0.05224
3394.42970 0.05220
3393.14393 0.05222
3391.85817 0.05249
3390.57240 0.05284
3389.28663 0.05297
3388.00086 0.05271
3386.71509 0.05222
3385.42932 0.05174
3384.14355 0.05142
3382.85778 0.05134
3381.57201 0.05154
3380.28625 0.05190
3379.00048 0.05218
3377.71471 0.05217
3376.42894 0.05179
3375.14317 0.05111
3373.85740 0.05042
3372.57163 0.05020
3371.28586 0.05074
3370.00010 0.05179
3368.71433 0.05277
3367.42856 0.05324
3366.14279 0.05313
3364.85702 0.05259
3363.57125 0.05179
3362.28548 0.05105
3360.99971 0.05068
3359.71394 0.05082
3358.42818 0.05125
3357.14241 0.05163
3355.85664 0.05181
3354.57087 0.05192
3353.28510 0.05210
3351.99933 0.05228
3350.71356 0.05219
3349.42779 0.05168
3348.14202 0.05100
3346.85626 0.05053
3345.57049 0.05049
3344.28472 0.05076
3342.99895 0.05102
3341.71318 0.05111
3340.42741 0.05103
3339.14164 0.05097
3337.85587 0.05109
3336.57011 0.05149
3335.28434 0.05205
3333.99857 0.05247
3332.71280 0.05248
3331.42703 0.05201
3330.14126 0.05137
3328.85549 0.05094
3327.56972 0.05098
3326.28395 0.05147
3324.99819 0.05219
3323.71242 0.05283
3322.42665 0.05317
3321.14088 0.05317
3319.85511 0.05298
3318.56934 0.05278
3317.28357 0.05267
3315.99780 0.05271
3314.71204 0.05291
3313.42627 0.05323
3312.14050 0.05356
3310.85473 0.05369
3309.56896 0.05353
3308.28319 0.05317
3306.99742 0.05277
3305.71165 0.05241
3304.42588 0.05215
3303.14012 0.05202
3301.85435 0.05206
3300.56858 0.05224
3299.28281 0.05252
3297.99704 0.05289
3296.71127 0.05327
3295.42550 0.05340
3294.13973 0.05307
3292.85397 0.05257
3291.56820 0.05246
3290.28243 0.05301
3288.99666 0.05371
3287.71089 0.05383
3286.42512 0.05319
3285.13935 0.05226
3283.85358 0.05160
3282.56781 0.05138
3281.28205 0.05157
3279.99628 0.05213
3278.71051 0.05295
3277.42474 0.05369
3276.13897 0.05401
3274.85320 0.05383
3273.56743 0.05343
3272.28166 0.05318
3270.99590 0.05339
3269.71013 0.05404
3268.42436 0.05480
3267.13859 0.05526
3265.85282 0.05529
3264.56705 0.05505
3263.28128 0.05481
3261.99551 0.05467
3260.70974 0.05448
3259.42398 0.05400
3258.13821 0.05314
3256.85244 0.05201
3255.56667 0.05091
3254.28090 0.05006
3252.99513 0.04958
3251.70936 0.04949
3250.42359 0.04974
3249.13783 0.05009
3247.85206 0.05019
3246.56629 0.04992
3245.28052 0.04952
3243.99475 0.04931
3242.70898 0.04939
3241.42321 0.04966
3240.13744 0.05003
3238.85167 0.05046
3237.56591 0.05086
3236.28014 0.05109
3234.99437 0.05102
3233.70860 0.05067
3232.42283 0.05021
3231.13706 0.04991
3229.85129 0.04990
3228.56552 0.05008
3227.27976 0.05023
3225.99399 0.05025
3224.70822 0.05014
3223.42245 0.04998
3222.13668 0.04983
3220.85091 0.04978
3219.56514 0.04992
3218.27937 0.05019
3216.99360 0.05035
3215.70784 0.05024
3214.42207 0.04993
3213.13630 0.04968
3211.85053 0.04971
3210.56476 0.05003
3209.27899 0.05049
3207.99322 0.05082
3206.70745 0.05076
3205.42169 0.05014
3204.13592 0.04916
3202.85015 0.04825
3201.56438 0.04780
3200.27861 0.04793
3198.99284 0.04845
3197.70707 0.04909
3196.42130 0.04962
3195.13553 0.04992
3193.84977 0.04994
3192.56400 0.04964
3191.27823 0.04901
3189.99246 0.04814
3188.70669 0.04719
3187.42092 0.04646
3186.13515 0.04627
3184.84938 0.04677
3183.56362 0.04774
3182.27785 0.04874
3180.99208 0.04929
3179.70631 0.04920
3178.42054 0.04862
3177.13477 0.04796
3175.84900 0.04751
3174.56323 0.04733
3173.27746 0.04725
3171.99170 0.04718
3170.70593 0.04723
3169.42016 0.04754
3168.13439 0.04805
3166.84862 0.04851
3165.56285 0.04868
3164.27708 0.04844
3162.99131 0.04789
3161.70555 0.04724
3160.41978 0.04678
3159.13401 0.04676
3157.84824 0.04711
3156.56247 0.04752
3155.27670 0.04772
3153.99093 0.04775
3152.70516 0.04773
3151.41939 0.04757
3150.13363 0.04715
3148.84786 0.04662
3147.56209 0.04634
3146.27632 0.04652
3144.99055 0.04696
3143.70478 0.04732
3142.41901 0.04746
3141.13324 0.04743
3139.84748 0.04727
3138.56171 0.04695
3137.27594 0.04644
3135.99017 0.04591
3134.70440 0.04563
3133.41863 0.04563
3132.13286 0.04574
3130.84709 0.04581
3129.56132 0.04587
3128.27556 0.04598
3126.98979 0.04608
3125.70402 0.04611
3124.41825 0.04608
3123.13248 0.04599
3121.84671 0.04574
3120.56094 0.04526
3119.27517 0.04466
3117.98940 0.04418
3116.70364 0.04386
3115.41787 0.04356
3114.13210 0.04326
3112.84633 0.04316
3111.56056 0.04343
3110.27479 0.04393
3108.98902 0.04429
3107.70325 0.04435
3106.41749 0.04422
3105.13172 0.04412
3103.84595 0.04408
3102.56018 0.04402
3101.27441 0.04394
3099.98864 0.04393
3098.70287 0.04413
3097.41710 0.04457
3096.13133 0.04505
3094.84557 0.04528
3093.55980 0.04510
3092.27403 0.04468
3090.98826 0.04435
3089.70249 0.04426
3088.41672 0.04431
3087.13095 0.04436
3085.84518 0.04434
3084.55942 0.04422
3083.27365 0.04397
3081.98788 0.04371
3080.70211 0.04356
3079.41634 0.04353
3078.13057 0.04346
3076.84480 0.04331
3075.55903 0.04323
3074.27326 0.04345
3072.98750 0.04392
3071.70173 0.04430
3070.41596 0.04431
3069.13019 0.04402
3067.84442 0.04372
3066.55865 0.04361
3065.27288 0.04360
3063.98711 0.04358
3062.70135 0.04360
3061.41558 0.04382
3060.12981 0.04427
3058.84404 0.04470
3057.55827 0.04482
3056.27250 0.04454
3054.98673 0.04397
3053.70096 0.04328
3052.41519 0.04262
3051.12943 0.04213
3049.84366 0.04195
3048.55789 0.04206
3047.27212 0.04234
3045.98635 0.04265
3044.70058 0.04295
3043.41481 0.04325
3042.12904 0.04355
3040.84328 0.04374
3039.55751 0.04372
3038.27174 0.04346
3036.98597 0.04305
3035.70020 0.04268
3034.41443 0.04246
3033.12866 0.04233
3031.84289 0.04212
3030.55712 0.04180
3029.27136 0.04152
3027.98559 0.04143
3026.69982 0.04153
3025.41405 0.04163
3024.12828 0.04153
3022.84251 0.04124
3021.55674 0.04091
3020.27097 0.04070
3018.98521 0.04072
3017.69944 0.04096
3016.41367 0.04136
3015.12790 0.04180
3013.84213 0.04213
3012.55636 0.04226
3011.27059 0.04208
3009.98482 0.04161
3008.69905 0.04099
3007.41329 0.04046
3006.12752 0.04025
3004.84175 0.04039
3003.55598 0.04076
3002.27021 0.04117
3000.98444 0.04139
2999.69867 0.04127
2998.41290 0.04085
2997.12714 0.04030
2995.84137 0.03988
2994.55560 0.03972
2993.26983 0.03978
2991.98406 0.03991
2990.69829 0.04002
2989.41252 0.04012
2988.12675 0.04023
2986.84098 0.04031
2985.55522 0.04037
2984.26945 0.04043
2982.98368 0.04046
2981.69791 0.04049
2980.41214 0.04066
2979.12637 0.04107
2977.84060 0.04163
2976.55483 0.04214
2975.26907 0.04248
2973.98330 0.04262
2972.69753 0.04264
2971.41176 0.04269
2970.12599 0.04292
2968.84022 0.04336
2967.55445 0.04389
2966.26868 0.04441
2964.98291 0.04493
2963.69715 0.04554
2962.41138 0.04618
2961.12561 0.04671
2959.83984 0.04698
2958.55407 0.04704
2957.26830 0.04708
2955.98253 0.04726
2954.69676 0.04750
2953.41100 0.04756
2952.12523 0.04729
2950.83946 0.04677
2949.55369 0.04634
2948.26792 0.04636
2946.98215 0.04697
2945.69638 0.04785
2944.41061 0.04846
2943.12484 0.04849
2941.83908 0.04814
2940.55331 0.04786
2939.26754 0.04798
2937.98177 0.04842
2936.69600 0.04890
2935.41023 0.04927
2934.12446 0.04964
2932.83869 0.05018
2931.55293 0.05081
2930.26716 0.05121
2928.98139 0.05116
2927.69562 0.05082
2926.40985 0.05051
2925.12408 0.05038
2923.83831 0.05035
2922.55254 0.05028
2921.26677 0.05011
2919.98101 0.04988
2918.69524 0.04966
2917.40947 0.04951
2916.12370 0.04940
2914.83793 0.04924
2913.55216 0.04895
2912.26639 0.04856
2910.98062 0.04821
2909.69486 0.04804
2908.40909 0.04800
2907.12332 0.04795
2905.83755 0.04783
2904.55178 0.04769
2903.26601 0.04751
2901.98024 0.04716
2900.69447 0.04659
2899.40870 0.04599
2898.12294 0.04568
2896.83717 0.04579
2895.55140 0.04613
2894.26563 0.04637
2892.97986 0.04635
2891.69409 0.04612
2890.40832 0.04582
2889.12255 0.04549
2887.83678 0.04512
2886.55102 0.04475
2885.26525 0.04445
2883.97948 0.04432
2882.69371 0.04435
2881.40794 0.04445
2880.12217 0.04453
2878.83640 0.04459
2877.55063 0.04466
2876.26487 0.04474
2874.97910 0.04481
2873.69333 0.04489
2872.40756 0.04505
2871.12179 0.04527
2869.83602 0.04542
2868.55025 0.04537
2867.26448 0.04511
2865.97871 0.04476
2864.69295 0.04445
2863.40718 0.04418
2862.12141 0.04391
2860.83564 0.04372
2859.54987 0.04379
2858.26410 0.04414
2856.97833 0.04454
2855.69256 0.04475
2854.40680 0.04469
2853.12103 0.04446
2851.83526 0.04420
2850.54949 0.04395
2849.26372 0.04369
2847.97795 0.04339
2846.69218 0.04309
2845.40641 0.04289
2844.12064 0.04283
2842.83488 0.04277
2841.54911 0.04253
2840.26334 0.04216
2838.97757 0.04183
2837.69180 0.04163
2836.40603 0.04143
2835.12026 0.04110
2833.83449 0.04066
2832.54873 0.04025
2831.26296 0.03997
2829.97719 0.03983
2828.69142 0.03980
2827.40565 0.03978
2826.11988 0.03959
2824.83411 0.03918
2823.54834 0.03867
2822.26257 0.03828
2820.97681 0.03815
2819.69104 0.03823
2818.40527 0.03835
2817.11950 0.03830
2815.83373 0.03798
2814.54796 0.03751
2813.26219 0.03708
2811.97642 0.03678
2810.69066 0.03655
2809.40489 0.03640
2808.11912 0.03639
2806.83335 0.03651
2805.54758 0.03659
2804.26181 0.03655
2802.97604 0.03644
2801.69027 0.03635
2800.40450 0.03631
2799.11874 0.03625
2797.83297 0.03612
2796.54720 0.03599
2795.26143 0.03600
2793.97566 0.03615
2792.68989 0.03628
2791.40412 0.03618
2790.11835 0.03580
2788.83259 0.03532
2787.54682 0.03496
2786.26105 0.03483
2784.97528 0.03492
2783.68951 0.03514
2782.40374 0.03539
2781.11797 0.03553
2779.83220 0.03544
2778.54643 0.03518
2777.26067 0.03494
2775.97490 0.03493
2774.68913 0.03516
2773.40336 0.03542
2772.11759 0.03556
2770.83182 0.03557
2769.54605 0.03554
2768.26028 0.03546
2766.97452 0.03528
2765.68875 0.03500
2764.40298 0.03473
2763.11721 0.03463
2761.83144 0.03474
2760.54567 0.03497
2759.25990 0.03519
2757.97413 0.03531
2756.68836 0.03528
2755.40260 0.03503
2754.11683 0.03455
2752.83106 0.03400
2751.54529 0.03368
2750.25952 0.03380
2748.97375 0.03423
2747.68798 0.03465
2746.40221 0.03480
2745.11645 0.03468
2743.83068 0.03451
2742.54491 0.03446
2741.25914 0.03454
2739.97337 0.03460
2738.68760 0.03453
2737.40183 0.03430
2736.11606 0.03396
2734.83029 0.03360
2733.54453 0.03331
2732.25876 0.03315
2730.97299 0.03309
2729.68722 0.03304
2728.40145 0.03298
2727.11568 0.03297
2725.82991 0.03306
2724.54414 0.03323
2723.25838 0.03344
2721.97261 0.03362
2720.68684 0.03368
2719.40107 0.03352
2718.11530 0.03323
2716.82953 0.03295
2715.54376 0.03279
2714.25799 0.03267
2712.97222 0.03248
2711.68646 0.03230
2710.40069 0.03228
2709.11492 0.03242
2707.82915 0.03261
2706.54338 0.03274
2705.25761 0.03282
2703.97184 0.03283
2702.68607 0.03273
2701.40031 0.03256
2700.11454 0.03241
2698.82877 0.03232
2697.54300 0.03221
2696.25723 0.03204
2694.97146 0.03190
2693.68569 0.03189
2692.39992 0.03204
2691.11415 0.03222
2689.82839 0.03231
2688.54262 0.03234
2687.25685 0.03241
2685.97108 0.03253
2684.68531 0.03258
2683.39954 0.03248
2682.11377 0.03226
2680.82800 0.03202
2679.54224 0.03182
2678.25647 0.03170
2676.97070 0.03170
2675.68493 0.03185
2674.39916 0.03203
2673.11339 0.03208
2671.82762 0.03194
2670.54185 0.03173
2669.25608 0.03165
2667.97032 0.03179
2666.68455 0.03199
2665.39878 0.03204
2664.11301 0.03191
2662.82724 0.03171
2661.54147 0.03157
2660.25570 0.03142
2658.96993 0.03111
2657.68417 0.03072
2656.39840 0.03053
2655.11263 0.03066
2653.82686 0.03095
2652.54109 0.03111
2651.25532 0.03107
2649.96955 0.03092
2648.68378 0.03078
2647.39801 0.03068
2646.11225 0.03058
2644.82648 0.03048
2643.54071 0.03035
2642.25494 0.03021
2640.96917 0.03010
2639.68340 0.03001
2638.39763 0.02984
2637.11186 0.02944
2635.82609 0.02882
2634.54033 0.02821
2633.25456 0.02787
2631.96879 0.02791
2630.68302 0.02818
2629.39725 0.02846
2628.11148 0.02861
2626.82571 0.02866
2625.53994 0.02869
2624.25418 0.02870
2622.96841 0.02868
2621.68264 0.02864
2620.39687 0.02857
2619.11110 0.02837
2617.82533 0.02797
2616.53956 0.02747
2615.25379 0.02708
2613.96802 0.02689
2612.68226 0.02682
2611.39649 0.02685
2610.11072 0.02709
2608.82495 0.02763
2607.53918 0.02821
2606.25341 0.02836
2604.96764 0.02784
2603.68187 0.02691
2602.39611 0.02622
2601.11034 0.02618
2599.82457 0.02662
2598.53880 0.02696
2597.25303 0.02683
2595.96726 0.02639
2594.68149 0.02611
2593.39572 0.02623
2592.10995 0.02655
2590.82419 0.02674
2589.53842 0.02666
2588.25265 0.02640
2586.96688 0.02619
2585.68111 0.02619
2584.39534 0.02640
2583.10957 0.02672
2581.82380 0.02699
2580.53804 0.02708
2579.25227 0.02685
2577.96650 0.02635
2576.68073 0.02582
2575.39496 0.02546
2574.10919 0.02527
2572.82342 0.02515
2571.53765 0.02509
2570.25188 0.02506
2568.96612 0.02497
2567.68035 0.02484
2566.39458 0.02481
2565.10881 0.02495
2563.82304 0.02512
2562.53727 0.02519
2561.25150 0.02519
2559.96573 0.02514
2558.67997 0.02502
2557.39420 0.02485
2556.10843 0.02480
2554.82266 0.02498
2553.53689 0.02528
2552.25112 0.02539
2550.96535 0.02516
2549.67958 0.02481
2548.39381 0.02470
2547.10805 0.02502
2545.82228 0.02552
2544.53651 0.02582
2543.25074 0.02573
2541.96497 0.02540
2540.67920 0.02512
2539.39343 0.02503
2538.10766 0.02506
2536.82190 0.02510
2535.53613 0.02517
2534.25036 0.02533
2532.96459 0.02551
2531.67882 0.02558
2530.39305 0.02544
2529.10728 0.02508
2527.82151 0.02453
2526.53574 0.02403
2525.24998 0.02388
2523.96421 0.02416
2522.67844 0.02464
2521.39267 0.02497
2520.10690 0.02501
2518.82113 0.02482
2517.53536 0.02456
2516.24959 0.02441
2514.96383 0.02448
2513.67806 0.02476
2512.39229 0.02508
2511.10652 0.02530
2509.82075 0.02532
2508.53498 0.02522
2507.24921 0.02511
2505.96344 0.02504
2504.67767 0.02491
2503.39191 0.02459
2502.10614 0.02408
2500.82037 0.02363
2499.53460 0.02353
2498.24883 0.02386
2496.96306 0.02437
2495.67729 0.02470
2494.39152 0.02473
2493.10576 0.02463
2491.81999 0.02470
2490.53422 0.02500
2489.24845 0.02532
2487.96268 0.02532
2486.67691 0.02493
2485.39114 0.02436
2484.10537 0.02392
2482.81960 0.02376
2481.53384 0.02382
2480.24807 0.02388
2478.96230 0.02381
2477.67653 0.02368
2476.39076 0.02361
2475.10499 0.02358
2473.81922 0.02344
2472.53345 0.02320
2471.24769 0.02304
2469.96192 0.02306
2468.67615 0.02319
2467.39038 0.02324
2466.10461 0.02304
2464.81884 0.02263
2463.53307 0.02231
2462.24730 0.02241
2460.96153 0.02305
2459.67577 0.02391
2458.39000 0.02452
2457.10423 0.02468
2455.81846 0.02461
2454.53269 0.02461
2453.24692 0.02472
2451.96115 0.02480
2450.67538 0.02479
2449.38962 0.02479
2448.10385 0.02485
2446.81808 0.02484
2445.53231 0.02458
2444.24654 0.02406
2442.96077 0.02349
2441.67500 0.02316
2440.38923 0.02321
2439.10346 0.02347
2437.81770 0.02365
2436.53193 0.02358
2435.24616 0.02342
2433.96039 0.02340
2432.67462 0.02366
2431.38885 0.02408
2430.10308 0.02443
2428.81731 0.02457
2427.53155 0.02452
2426.24578 0.02430
2424.96001 0.02395
2423.67424 0.02356
2422.38847 0.02325
2421.10270 0.02314
2419.81693 0.02319
2418.53116 0.02328
2417.24539 0.02323
2415.95963 0.02292
2414.67386 0.02244
2413.38809 0.02206
2412.10232 0.02198
2410.81655 0.02213
2409.53078 0.02234
2408.24501 0.02249
2406.95924 0.02260
2405.67347 0.02270
2404.38771 0.02279
2403.10194 0.02286
2401.81617 0.02294
2400.53040 0.02300
2399.24463 0.02307
2397.95886 0.02288
2396.67309 0.02264
2395.38732 0.02245
2394.10156 0.02229
2392.81579 0.02214
2391.53002 0.02205
2390.24425 0.02202
2388.95848 0.02199
2387.67271 0.02185
2386.38694 0.02167
2385.10117 0.02166
2383.81540 0.02201
2382.52964 0.02262
2381.24387 0.02319
2379.95810 0.02347
2378.67233 0.02348
2377.38656 0.02337
2376.10079 0.02327
2374.81502 0.02318
2373.52925 0.02310
2372.24349 0.02305
2370.95772 0.02299
2369.67195 0.02293
2368.38618 0.02289
2367.10041 0.02297
2365.81464 0.02315
2364.52887 0.02335
2363.24310 0.02345
2361.95733 0.02343
2360.67157 0.02330
2359.38580 0.02315
2358.10003 0.02301
2356.81426 0.02295
2355.52849 0.02301
2354.24272 0.02312
2352.95695 0.02315
2351.67118 0.02297
2350.38542 0.02269
2349.09965 0.02253
2347.81388 0.02265
2346.52811 0.02291
2345.24234 0.02311
2343.95657 0.02318
2342.67080 0.02313
2341.38503 0.02301
2340.09926 0.02288
2338.81350 0.02289
2337.52773 0.02302
2336.24196 0.02309
2334.95619 0.02303
2333.67042 0.02294
2332.38465 0.02286
2331.09888 0.02269
2329.81311 0.02256
2328.52735 0.02263
2327.24158 0.02274
2325.95581 0.02283
2324.67004 0.02296
2323.38427 0.02298
2322.09850 0.02289
2320.81273 0.02285
2319.52696 0.02280
2318.24119 0.02280
2316.95543 0.02286
2315.66966 0.02278
2314.38389 0.02247
2313.09812 0.02201
2311.81235 0.02150
2310.52658 0.02116
2309.24081 0.02105
2307.95504 0.02112
2306.66928 0.02133
2305.38351 0.02151
2304.09774 0.02154
2302.81197 0.02132
2301.52620 0.02093
2300.24043 0.02062
2298.95466 0.02049
2297.66889 0.02047
2296.38312 0.02039
2295.09736 0.02024
2293.81159 0.02017
2292.52582 0.02028
2291.24005 0.02048
2289.95428 0.02060
2288.66851 0.02051
2287.38274 0.02023
2286.09697 0.01984
2284.81121 0.01951
2283.52544 0.01940
2282.23967 0.01955
2280.95390 0.01981
2279.66813 0.01993
2278.38236 0.01977
2277.09659 0.01941
2275.81082 0.01895
2274.52505 0.01846
2273.23929 0.01800
2271.95352 0.01769
2270.66775 0.01757
2269.38198 0.01758
2268.09621 0.01754
2266.81044 0.01733
2265.52467 0.01703
2264.23890 0.01680
2262.95314 0.01686
2261.66737 0.01732
2260.38160 0.01805
2259.09583 0.01868
2257.81006 0.01881
2256.52429 0.01826
2255.23852 0.01724
2253.95275 0.01619
2252.66698 0.01547
2251.38122 0.01513
2250.09545 0.01511
2248.80968 0.01547
2247.52391 0.01602
2246.23814 0.01673
2244.95237 0.01737
2243.66660 0.01767
2242.38083 0.01753
2241.09507 0.01704
2239.80930 0.01646
2238.52353 0.01601
2237.23776 0.01585
2235.95199 0.01602
2234.66622 0.01643
2233.38045 0.01693
2232.09468 0.01735
2230.80891 0.01746
2229.52315 0.01711
2228.23738 0.01642
2226.95161 0.01579
2225.66584 0.01551
2224.38007 0.01538
2223.09430 0.01492
2221.80853 0.01409
2220.52276 0.01338
2219.23700 0.01321
2217.95123 0.01348
2216.66546 0.01381
2215.37969 0.01392
2214.09392 0.01367
2212.80815 0.01305
2211.52238 0.01219
2210.23661 0.01146
2208.95084 0.01137
2207.66508 0.01208
2206.37931 0.01327
2205.09354 0.01430
2203.80777 0.01475
2202.52200 0.01468
2201.23623 0.01437
2199.95046 0.01405
2198.66469 0.01389
2197.37893 0.01401
2196.09316 0.01420
2194.80739 0.01393
2193.52162 0.01289
2192.23585 0.01147
2190.95008 0.01053
2189.66431 0.01082
2188.37854 0.01243
2187.09277 0.01462
2185.80701 0.01620
2184.52124 0.01638
2183.23547 0.01521
2181.94970 0.01331
2180.66393 0.01136
2179.37816 0.00992
2178.09239 0.00937
2176.80662 0.00959
2175.52085 0.01010
2174.23509 0.01058
2172.94932 0.01097
2171.66355 0.01117
2170.37778 0.01093
2169.09201 0.01031
2167.80624 0.00981
2166.52047 0.00980
2165.23470 0.01018
2163.94894 0.01054
2162.66317 0.01057
2161.37740 0.01029
2160.09163 0.01003
2158.80586 0.01019
2157.52009 0.01081
2156.23432 0.01137
2154.94855 0.01130
2153.66278 0.01051
2152.37702 0.00939
2151.09125 0.00847
2149.80548 0.00809
2148.51971 0.00836
2147.23394 0.00906
2145.94817 0.00972
2144.66240 0.00996
2143.37663 0.00979
2142.09087 0.00962
2140.80510 0.00976
2139.51933 0.01021
2138.23356 0.01074
2136.94779 0.01110
2135.66202 0.01117
2134.37625 0.01110
2133.09048 0.01128
2131.80471 0.01199
2130.51895 0.01311
2129.23318 0.01419
2127.94741 0.01484
2126.66164 0.01500
2125.37587 0.01480
2124.09010 0.01431
2122.80433 0.01360
2121.51856 0.01289
2120.23280 0.01249
2118.94703 0.01260
2117.66126 0.01318
2116.37549 0.01402
2115.08972 0.01480
2113.80395 0.01509
2112.51818 0.01466
2111.23241 0.01373
2109.94664 0.01287
2108.66088 0.01248
2107.37511 0.01249
2106.08934 0.01258
2104.80357 0.01244
2103.51780 0.01198
2102.23203 0.01139
2100.94626 0.01098
2099.66049 0.01184
2098.37473 0.01255
2097.08896 0.01287
2095.80319 0.01298
2094.51742 0.01294
2093.23165 0.01291
2091.94588 0.01302
2090.66011 0.01326
2089.37434 0.01345
2088.08857 0.01349
2086.80281 0.01344
2085.51704 0.01345
2084.23127 0.01362
2082.94550 0.01385
2081.65973 0.01390
2080.37396 0.01356
2079.08819 0.01284
2077.80242 0.01204
2076.51666 0.01155
2075.23089 0.01154
2073.94512 0.01191
2072.65935 0.01227
2071.37358 0.01224
2070.08781 0.01177
2068.80204 0.01115
2067.51627 0.01072
2066.23050 0.01059
2064.94474 0.01056
2063.65897 0.01045
2062.37320 0.01023
2061.08743 0.00996
2059.80166 0.00963
2058.51589 0.00919
2057.23012 0.00868
2055.94435 0.00819
2054.65859 0.00784
2053.37282 0.00766
2052.08705 0.00761
2050.80128 0.00770
2049.51551 0.00800
2048.22974 0.00861
2046.94397 0.00938
2045.65820 0.00983
2044.37243 0.00959
2043.08667 0.00874
2041.80090 0.00768
2040.51513 0.00679
2039.22936 0.00628
2037.94359 0.00619
2036.65782 0.00643
2035.37205 0.00662
2034.08628 0.00641
2032.80052 0.00588
2031.51475 0.00553
2030.22898 0.00586
2028.94321 0.00689
2027.65744 0.00821
2026.37167 0.00926
2025.08590 0.00978
2023.80013 0.00989
2022.51436 0.00984
2021.22860 0.00970
2019.94283 0.00934
2018.65706 0.00868
2017.37129 0.00786
2016.08552 0.00711
2014.79975 0.00660
2013.51398 0.00649
2012.22821 0.00699
2010.94245 0.00819
2009.65668 0.00983
2008.37091 0.01116
2007.08514 0.01150
2005.79937 0.01086
2004.51360 0.00994
2003.22783 0.00936
2001.94206 0.00913
2000.65629 0.00883
1999.37053 0.00826
1998.08476 0.00759
1996.79899 0.00712
1995.51322 0.00699
1994.22745 0.00712
1992.94168 0.00730
1991.65591 0.00731
1990.37014 0.00710
1989.08438 0.00681
1987.79861 0.00671
1986.51284 0.00712
1985.22707 0.00816
1983.94130 0.00956
1982.65553 0.01079
1981.36976 0.01139
1980.08399 0.01144
1978.79822 0.01140
1977.51246 0.01160
1976.22669 0.01187
1974.94092 0.01192
1973.65515 0.01177
1972.36938 0.01170
1971.08361 0.01177
1969.79784 0.01176
1968.51207 0.01149
1967.22631 0.01113
1965.94054 0.01095
1964.65477 0.01093
1963.36900 0.01086
1962.08323 0.01068
1960.79746 0.01070
1959.51169 0.01122
1958.22592 0.01214
1956.94015 0.01296
1955.65439 0.01329
1954.36862 0.01318
1953.08285 0.01298
1951.79708 0.01285
1950.51131 0.01270
1949.22554 0.01242
1947.93977 0.01218
1946.65400 0.01227
1945.36823 0.01274
1944.08247 0.01339
1942.79670 0.01387
1941.51093 0.01397
1940.22516 0.01373
1938.93939 0.01335
1937.65362 0.01304
1936.36785 0.01284
1935.08208 0.01271
1933.79632 0.01268
1932.51055 0.01288
1931.22478 0.01333
1929.93901 0.01388
1928.65324 0.01425
1927.36747 0.01431
1926.08170 0.01415
1924.79593 0.01396
1923.51016 0.01382
1922.22440 0.01364
1920.93863 0.01329
1919.65286 0.01281
1918.36709 0.01245
1917.08132 0.01250
1915.79555 0.01299
1914.50978 0.01365
1913.22401 0.01405
1911.93825 0.01396
1910.65248 0.01343
1909.36671 0.01279
1908.08094 0.01232
1906.79517 0.01218
1905.50940 0.01239
1904.22363 0.01284
1902.93786 0.01335
1901.65209 0.01367
1900.36633 0.01364
1899.08056 0.01333
1897.79479 0.01297
1896.50902 0.01271
1895.22325 0.01257
1893.93748 0.01256
1892.65171 0.01276
1891.36594 0.01315
1890.08018 0.01352
1888.79441 0.01361
1887.50864 0.01338
1886.22287 0.01303
1884.93710 0.01284
1883.65133 0.01291
1882.36556 0.01313
1881.07979 0.01330
1879.79402 0.01331
1878.50826 0.01320
1877.22249 0.01309
1875.93672 0.01306
1874.65095 0.01314
1873.36518 0.01329
1872.07941 0.01345
1870.79364 0.01356
1869.50787 0.01363
1868.22211 0.01366
1866.93634 0.01359
1865.65057 0.01339
1864.36480 0.01313
1863.07903 0.01296
1861.79326 0.01299
1860.50749 0.01324
1859.22172 0.01358
1857.93595 0.01388
1856.65019 0.01404
1855.36442 0.01401
1854.07865 0.01380
1852.79288 0.01355
1851.50711 0.01340
1850.22134 0.01345
1848.93557 0.01366
1847.64980 0.01388
1846.36404 0.01393
1845.07827 0.01376
1843.79250 0.01353
1842.50673 0.01338
1841.22096 0.01330
1839.93519 0.01323
1838.64942 0.01318
1837.36365 0.01315
1836.07788 0.01314
1834.79212 0.01316
1833.50635 0.01325
1832.22058 0.01341
1830.93481 0.01358
1829.64904 0.01369
1828.36327 0.01372
1827.07750 0.01366
1825.79173 0.01358
1824.50597 0.01360
1823.22020 0.01375
1821.93443 0.01402
1820.64866 0.01435
1819.36289 0.01465
1818.07712 0.01474
1816.79135 0.01452
1815.50558 0.01406
1814.21981 0.01357
1812.93405 0.01321
1811.64828 0.01306
1810.36251 0.01306
1809.07674 0.01317
1807.79097 0.01334
1806.50520 0.01353
1805.21943 0.01367
1803.93366 0.01370
1802.64790 0.01363
1801.36213 0.01351
1800.07636 0.01341
1798.79059 0.01335
1797.50482 0.01329
1796.21905 0.01326
1794.93328 0.01332
1793.64751 0.01354
1792.36174 0.01389
1791.07598 0.01426
1789.79021 0.01447
1788.50444 0.01446
1787.21867 0.01431
1785.93290 0.01414
1784.64713 0.01405
1783.36136 0.01407
1782.07559 0.01412
1780.78983 0.01412
1779.50406 0.01405
1778.21829 0.01397
1776.93252 0.01394
1775.64675 0.01397
1774.36098 0.01400
1773.07521 0.01402
1771.78944 0.01405
1770.50367 0.01409
1769.21791 0.01407
1767.93214 0.01403
1766.64637 0.01406
1765.36060 0.01407
1764.07483 0.01401
1762.78906 0.01394
1761.50329 0.01395
1760.21752 0.01404
1758.93176 0.01410
1757.64599 0.01412
1756.36022 0.01419
1755.07445 0.01435
1753.78868 0.01450
1752.50291 0.01456
1751.21714 0.01459
1749.93137 0.01461
1748.64560 0.01460
1747.35984 0.01455
1746.07407 0.01449
1744.78830 0.01447
1743.50253 0.01448
1742.21676 0.01450
1740.93099 0.01447
1739.64522 0.01445
1738.35945 0.01452
1737.07369 0.01462
1735.78792 0.01464
1734.50215 0.01467
1733.21638 0.01481
1731.93061 0.01498
1730.64484 0.01502
1729.35907 0.01496
1728.07330 0.01496
1726.78753 0.01506
1725.50177 0.01519
1724.21600 0.01532
1722.93023 0.01544
1721.64446 0.01559
1720.35869 0.01573
1719.07292 0.01586
1717.78715 0.01607
1716.50138 0.01639
1715.21561 0.01668
1713.92985 0.01684
1712.64408 0.01694
1711.35831 0.01710
1710.07254 0.01737
1708.78677 0.01773
1707.50100 0.01811
1706.21523 0.01850
1704.92946 0.01897
1703.64370 0.01953
1702.35793 0.02004
1701.07216 0.02047
1699.78639 0.02098
1698.50062 0.02147
1697.21485 0.02176
1695.92908 0.02194
1694.64331 0.02227
1693.35754 0.02269
1692.07178 0.02302
1690.78601 0.02332
1689.50024 0.02375
1688.21447 0.02432
1686.92870 0.02488
1685.64293 0.02538
1684.35716 0.02592
1683.07139 0.02651
1681.78563 0.02697
1680.49986 0.02728
1679.21409 0.02762
1677.92832 0.02808
1676.64255 0.02861
1675.35678 0.02920
1674.07101 0.02986
1672.78524 0.03045
1671.49947 0.03083
1670.21371 0.03107
1668.92794 0.03131
1667.64217 0.03165
1666.35640 0.03205
1665.07063 0.03247
1663.78486 0.03291
1662.49909 0.03340
1661.21332 0.03389
1659.92756 0.03432
1658.64179 0.03466
1657.35602 0.03503
1656.07025 0.03541
1654.78448 0.03576
1653.49871 0.03615
1652.21294 0.03665
1650.92717 0.03708
1649.64140 0.03716
1648.35564 0.03697
1647.06987 0.03679
1645.78410 0.03676
1644.49833 0.03680
1643.21256 0.03683
1641.92679 0.03685
1640.64102 0.03693
1639.35525 0.03703
1638.06949 0.03709
1636.78372 0.03707
1635.49795 0.03704
1634.21218 0.03700
1632.92641 0.03686
1631.64064 0.03658
1630.35487 0.03630
1629.06910 0.03616
1627.78333 0.03617
1626.49757 0.03622
1625.21180 0.03621
1623.92603 0.03609
1622.64026 0.03596
1621.35449 0.03589
1620.06872 0.03589
1618.78295 0.03591
1617.49718 0.03595
1616.21142 0.03607
1614.92565 0.03618
1613.63988 0.03618
1612.35411 0.03613
1611.06834 0.03614
1609.78257 0.03622
1608.49680 0.03633
1607.21103 0.03646
1605.92526 0.03666
1604.63950 0.03690
1603.35373 0.03714
1602.06796 0.03735
1600.78219 0.03753
1599.49642 0.03770
1598.21065 0.03786
1596.92488 0.03800
1595.63911 0.03811
1594.35335 0.03821
1593.06758 0.03831
1591.78181 0.03840
1590.49604 0.03849
1589.21027 0.03853
1587.92450 0.03852
1586.63873 0.03849
1585.35296 0.03849
1584.06719 0.03855
1582.78143 0.03867
1581.49566 0.03886
1580.20989 0.03911
1578.92412 0.03934
1577.63835 0.03949
1576.35258 0.03959
1575.06681 0.03976
1573.78104 0.03994
1572.49528 0.04003
1571.20951 0.04004
1569.92374 0.04009
1568.63797 0.04019
1567.35220 0.04028
1566.06643 0.04032
1564.78066 0.04041
1563.49489 0.04061
1562.20912 0.04086
1560.92336 0.04103
1559.63759 0.04119
1558.35182 0.04140
1557.06605 0.04158
1555.78028 0.04157
1554.49451 0.04143
1553.20874 0.04131
1551.92297 0.04120
1550.63721 0.04104
1549.35144 0.04085
1548.06567 0.04068
1546.77990 0.04051
1545.49413 0.04038
1544.20836 0.04033
1542.92259 0.04031
1541.63682 0.04020
1540.35105 0.03995
1539.06529 0.03963
1537.77952 0.03931
1536.49375 0.03894
1535.20798 0.03851
1533.92221 0.03814
1532.63644 0.03792
1531.35067 0.03779
1530.06490 0.03770
1528.77914 0.03768
1527.49337 0.03777
1526.20760 0.03796
1524.92183 0.03819
1523.63606 0.03837
1522.35029 0.03847
1521.06452 0.03865
1519.77875 0.03896
1518.49298 0.03926
1517.20722 0.03949
1515.92145 0.03975
1514.63568 0.04006
1513.34991 0.04040
1512.06414 0.04082
1510.77837 0.04136
1509.49260 0.04195
1508.20683 0.04249
1506.92107 0.04301
1505.63530 0.04358
1504.34953 0.04413
1503.06376 0.04453
1501.77799 0.04481
1500.49222 0.04509
1499.20645 0.04543
1497.92068 0.04577
1496.63491 0.04610
1495.34915 0.04644
1494.06338 0.04675
1492.77761 0.04698
1491.49184 0.04720
1490.20607 0.04749
1488.92030 0.04786
1487.63453 0.04823
1486.34876 0.04859
1485.06299 0.04898
1483.77723 0.04943
1482.49146 0.04996
1481.20569 0.05057
1479.91992 0.05123
1478.63415 0.05190
1477.34838 0.05255
1476.06261 0.05316
1474.77684 0.05371
1473.49108 0.05417
1472.20531 0.05460
1470.91954 0.05503
1469.63377 0.05541
1468.34800 0.05573
1467.06223 0.05604
1465.77646 0.05637
1464.49069 0.05677
1463.20492 0.05722
1461.91916 0.05772
1460.63339 0.05826
1459.34762 0.05879
1458.06185 0.05928
1456.77608 0.05975
1455.49031 0.06022
1454.20454 0.06065
1452.91877 0.06098
1451.63301 0.06128
1450.34724 0.06156
1449.06147 0.06177
1447.77570 0.06188
1446.48993 0.06194
1445.20416 0.06194
1443.91839 0.06190
1442.63262 0.06183
1441.34685 0.06176
1440.06109 0.06170
1438.77532 0.06163
1437.48955 0.06158
1436.20378 0.06161
1434.91801 0.06171
1433.63224 0.06183
1432.34647 0.06200
1431.06070 0.06232
1429.77494 0.06278
1428.48917 0.06330
1427.20340 0.06380
1425.91763 0.06426
1424.63186 0.06475
1423.34609 0.06535
1422.06032 0.06603
1420.77455 0.06669
1419.48878 0.06732
1418.20302 0.06792
1416.91725 0.06844
1415.63148 0.06882
1414.34571 0.06906
1413.05994 0.06919
1411.77417 0.06919
1410.48840 0.06906
1409.20263 0.06880
1407.91687 0.06846
1406.63110 0.06805
1405.34533 0.06756
1404.05956 0.06697
1402.77379 0.06627
1401.48802 0.06545
1400.20225 0.06455
1398.91648 0.06361
1397.63071 0.06266
1396.34495 0.06165
1395.05918 0.06060
1393.77341 0.05955
1392.48764 0.05854
1391.20187 0.05754
1389.91610 0.05657
1388.63033 0.05564
1387.34456 0.05477
1386.05880 0.05394
1384.77303 0.05308
1383.48726 0.05216
1382.20149 0.05124
1380.91572 0.05037
1379.62995 0.04954
1378.34418 0.04870
1377.05841 0.04779
1375.77264 0.04679
1374.48688 0.04573
1373.20111 0.04467
1371.91534 0.04364
1370.62957 0.04261
1369.34380 0.04161
1368.05803 0.04069
1366.77226 0.03989
1365.48649 0.03920
1364.20073 0.03855
1362.91496 0.03790
1361.62919 0.03724
1360.34342 0.03659
1359.05765 0.03596
1357.77188 0.03540
1356.48611 0.03489
1355.20034 0.03442
1353.91457 0.03398
1352.62881 0.03355
1351.34304 0.03314
1350.05727 0.03275
1348.77150 0.03234
1347.48573 0.03192
1346.19996 0.03149
1344.91419 0.03108
1343.62842 0.03073
1342.34266 0.03044
1341.05689 0.03017
1339.77112 0.02988
1338.48535 0.02957
1337.19958 0.02927
1335.91381 0.02899
1334.62804 0.02874
1333.34227 0.02846
1332.05650 0.02814
1330.77074 0.02779
1329.48497 0.02744
1328.19920 0.02712
1326.91343 0.02685
1325.62766 0.02662
1324.34189 0.02642
1323.05612 0.02621
1321.77035 0.02598
1320.48459 0.02572
1319.19882 0.02546
1317.91305 0.02521
1316.62728 0.02497
1315.34151 0.02475
1314.05574 0.02457
1312.76997 0.02441
1311.48420 0.02423
1310.19843 0.02401
1308.91267 0.02379
1307.62690 0.02358
1306.34113 0.02338
1305.05536 0.02319
1303.76959 0.02304
1302.48382 0.02295
1301.19805 0.02291
1299.91228 0.02286
1298.62652 0.02274
1297.34075 0.02256
1296.05498 0.02234
1294.76921 0.02216
1293.48344 0.02199
1292.19767 0.02183
1290.91190 0.02166
1289.62613 0.02148
1288.34036 0.02135
1287.05460 0.02129
1285.76883 0.02128
1284.48306 0.02128
1283.19729 0.02123
1281.91152 0.02112
1280.62575 0.02097
1279.33998 0.02084
1278.05421 0.02076
1276.76845 0.02070
1275.48268 0.02064
1274.19691 0.02058
1272.91114 0.02050
1271.62537 0.02040
1270.33960 0.02028
1269.05383 0.02013
1267.76806 0.01997
1266.48229 0.01987
1265.19653 0.01985
1263.91076 0.01987
1262.62499 0.01988
1261.33922 0.01984
1260.05345 0.01973
1258.76768 0.01959
1257.48191 0.01949
1256.19614 0.01949
1254.91037 0.01955
1253.62461 0.01964
1252.33884 0.01969
1251.05307 0.01970
1249.76730 0.01968
1248.48153 0.01965
1247.19576 0.01961
1245.90999 0.01958
1244.62422 0.01958
1243.33846 0.01957
1242.05269 0.01956
1240.76692 0.01953
1239.48115 0.01949
1238.19538 0.01946
1236.90961 0.01943
1235.62384 0.01939
1234.33807 0.01931
1233.05230 0.01918
1231.76654 0.01903
1230.48077 0.01887
1229.19500 0.01876
1227.90923 0.01872
1226.62346 0.01874
1225.33769 0.01879
1224.05192 0.01884
1222.76615 0.01886
1221.48039 0.01884
1220.19462 0.01880
1218.90885 0.01874
1217.62308 0.01867
1216.33731 0.01859
1215.05154 0.01850
1213.76577 0.01843
1212.48000 0.01840
1211.19423 0.01844
1209.90847 0.01850
1208.62270 0.01852
1207.33693 0.01850
1206.05116 0.01849
1204.76539 0.01852
1203.47962 0.01859
1202.19385 0.01863
1200.90808 0.01859
1199.62232 0.01849
1198.33655 0.01853
1197.05078 0.01861
1195.76501 0.01867
1194.47924 0.01869
1193.19347 0.01867
1191.90770 0.01865
1190.62193 0.01862
1189.33616 0.01858
1188.05040 0.01856
1186.76463 0.01858
1185.47886 0.01862
1184.19309 0.01862
1182.90732 0.01855
1181.62155 0.01846
1180.33578 0.01840
1179.05001 0.01842
1177.76425 0.01849
1176.47848 0.01857
1175.19271 0.01863
1173.90694 0.01867
1172.62117 0.01876
1171.33540 0.01890
1170.04963 0.01908
1168.76386 0.01921
1167.47809 0.01930
1166.19233 0.01936
1164.90656 0.01943
1163.62079 0.01952
1162.33502 0.01957
1161.04925 0.01957
1159.76348 0.01959
1158.47771 0.01969
1157.19194 0.01989
1155.90618 0.02012
1154.62041 0.02032
1153.33464 0.02049
1152.04887 0.02065
1150.76310 0.02080
1149.47733 0.02096
1148.19156 0.02112
1146.90579 0.02133
1145.62002 0.02162
1144.33426 0.02199
1143.04849 0.02239
1141.76272 0.02278
1140.47695 0.02317
1139.19118 0.02358
1137.90541 0.02406
1136.61964 0.02463
1135.33387 0.02532
1134.04811 0.02620
1132.76234 0.02730
1131.47657 0.02861
1130.19080 0.03006
1128.90503 0.03156
1127.61926 0.03310
1126.33349 0.03468
1125.04772 0.03639
1123.76195 0.03825
1122.47619 0.04024
1121.19042 0.04231
1119.90465 0.04440
1118.61888 0.04649
1117.33311 0.04857
1116.04734 0.05065
1114.76157 0.05270
1113.47580 0.05468
1112.19004 0.05657
1110.90427 0.05842
1109.61850 0.06030
1108.33273 0.06222
1107.04696 0.06410
1105.76119 0.06585
1104.47542 0.06743
1103.18965 0.06890
1101.90388 0.07035
1100.61812 0.07184
1099.33235 0.07334
1098.04658 0.07480
1096.76081 0.07617
1095.47504 0.07743
1094.18927 0.07856
1092.90350 0.07953
1091.61773 0.08037
1090.33197 0.08110
1089.04620 0.08179
1087.76043 0.08251
1086.47466 0.08328
1085.18889 0.08411
1083.90312 0.08500
1082.61735 0.08595
1081.33158 0.08700
1080.04581 0.08816
1078.76005 0.08944
1077.47428 0.09082
1076.18851 0.09221
1074.90274 0.09358
1073.61697 0.09498
1072.33120 0.09647
1071.04543 0.09807
1069.75966 0.09973
1068.47390 0.10142
1067.18813 0.10318
1065.90236 0.10503
1064.61659 0.10699
1063.33082 0.10899
1062.04505 0.11098
1060.75928 0.11293
1059.47351 0.11487
1058.18774 0.11680
1056.90198 0.11872
1055.61621 0.12060
1054.33044 0.12241
1053.04467 0.12416
1051.75890 0.12590
1050.47313 0.12773
1049.18736 0.12966
1047.90159 0.13165
1046.61583 0.13366
1045.33006 0.13566
1044.04429 0.13767
1042.75852 0.13972
1041.47275 0.14180
1040.18698 0.14390
1038.90121 0.14599
1037.61544 0.14803
1036.32967 0.15000
1035.04391 0.15189
1033.75814 0.15374
1032.47237 0.15553
1031.18660 0.15725
1029.90083 0.15880
1028.61506 0.16010
1027.32929 0.16115
1026.04352 0.16201
1024.75775 0.16275
1023.47199 0.16337
1022.18622 0.16378
1020.90045 0.16387
1019.61468 0.16364
1018.32891 0.16316
1017.04314 0.16249
1015.75737 0.16167
1014.47160 0.16068
1013.18584 0.15949
1011.90007 0.15805
1010.61430 0.15633
1009.32853 0.15435
1008.04276 0.15219
1006.75699 0.14989
1005.47122 0.14743
1004.18545 0.14474
1002.89968 0.14179
1001.61392 0.13862
1000.32815 0.13532
999.04238 0.13195
997.75661 0.12856
996.47084 0.12518
995.18507 0.12181
993.89930 0.11841
992.61353 0.11496
991.32777 0.11147
990.04200 0.10804
988.75623 0.10474
987.47046 0.10160
986.18469 0.09862
984.89892 0.09577
983.61315 0.09299
982.32738 0.09025
981.04161 0.08759
979.75585 0.08506
978.47008 0.08268
977.18431 0.08045
975.89854 0.07834
974.61277 0.07640
973.32700 0.07468
972.04123 0.07326
970.75546 0.07216
969.46970 0.07141
968.18393 0.07099
966.89816 0.07088
965.61239 0.07101
964.32662 0.07130
963.04085 0.07162
961.75508 0.07182
960.46931 0.07179
959.18354 0.07142
957.89778 0.07071
956.61201 0.06971
955.32624 0.06851
954.04047 0.06715
952.75470 0.06565
951.46893 0.06405
950.18316 0.06251
948.89739 0.06115
947.61163 0.05997
946.32586 0.05887
945.04009 0.05776
943.75432 0.05665
942.46855 0.05557
941.18278 0.05452
939.89701 0.05344
938.61124 0.05233
937.32547 0.05127
936.03971 0.05032
934.75394 0.04950
933.46817 0.04875
932.18240 0.04802
930.89663 0.04727
929.61086 0.04651
928.32509 0.04577
927.03932 0.04505
925.75356 0.04435
924.46779 0.04368
923.18202 0.04310
921.89625 0.04260
920.61048 0.04216
919.32471 0.04172
918.03894 0.04127
916.75317 0.04082
915.46740 0.04039
914.18164 0.03999
912.89587 0.03961
911.61010 0.03919
910.32433 0.03871
909.03856 0.03820
907.75279 0.03779
906.46702 0.03756
905.18125 0.03744
903.89549 0.03727
902.60972 0.03697
901.32395 0.03652
900.03818 0.03600
898.75241 0.03550
897.46664 0.03508
896.18087 0.03474
894.89510 0.03445
893.60933 0.03419
892.32357 0.03399
891.03780 0.03387
889.75203 0.03385
888.46626 0.03395
887.18049 0.03419
885.89472 0.03459
884.60895 0.03525
883.32318 0.03629
882.03742 0.03774
880.75165 0.03942
879.46588 0.04098
878.18011 0.04219
876.89434 0.04310
875.60857 0.04394
874.32280 0.04481
873.03703 0.04560
871.75126 0.04607
870.46550 0.04609
869.17973 0.04563
867.89396 0.04474
866.60819 0.04350
865.32242 0.04208
864.03665 0.04067
862.75088 0.03936
861.46511 0.03812
860.17935 0.03690
858.89358 0.03569
857.60781 0.03460
856.32204 0.03374
855.03627 0.03317
853.75050 0.03280
852.46473 0.03248
851.17896 0.03213
849.89319 0.03177
848.60743 0.03144
847.32166 0.03114
846.03589 0.03087
844.75012 0.03062
843.46435 0.03038
842.17858 0.03013
840.89281 0.02985
839.60704 0.02956
838.32128 0.02929
837.03551 0.02908
835.74974 0.02896
834.46397 0.02892
833.17820 0.02896
831.89243 0.02900
830.60666 0.02893
829.32089 0.02873
828.03512 0.02847
826.74936 0.02827
825.46359 0.02815
824.17782 0.02808
822.89205 0.02801
821.60628 0.02796
820.32051 0.02795
819.03474 0.02794
817.74897 0.02788
816.46321 0.02776
815.17744 0.02764
813.89167 0.02759
812.60590 0.02761
811.32013 0.02764
810.03436 0.02762
808.74859 0.02758
807.46282 0.02761
806.17705 0.02774
804.89129 0.02793
803.60552 0.02808
802.31975 0.02811
801.03398 0.02803
799.74821 0.02794
798.46244 0.02791
797.17667 0.02796
795.89090 0.02802
794.60513 0.02801
793.31937 0.02799
792.03360 0.02802
790.74783 0.02811
789.46206 0.02813
788.17629 0.02801
786.89052 0.02776
785.60475 0.02749
784.31898 0.02728
783.03322 0.02716
781.74745 0.02711
780.46168 0.02714
779.17591 0.02724
777.89014 0.02738
776.60437 0.02750
775.31860 0.02757
774.03283 0.02763
772.74706 0.02766
771.46130 0.02763
770.17553 0.02749
768.88976 0.02730
767.60399 0.02716
766.31822 0.02714
765.03245 0.02720
763.74668 0.02726
762.46091 0.02725
761.17515 0.02719
759.88938 0.02714
758.60361 0.02710
757.31784 0.02702
756.03207 0.02687
754.74630 0.02669
753.46053 0.02653
752.17476 0.02641
750.88899 0.02635
749.60323 0.02637
748.31746 0.02640
747.03169 0.02636
745.74592 0.02620
744.46015 0.02600
743.17438 0.02595
741.88861 0.02613
740.60284 0.02648
739.31708 0.02675
738.03131 0.02675
736.74554 0.02650
735.45977 0.02615
734.17400 0.02580
732.88823 0.02551
731.60246 0.02529
730.31669 0.02521
729.03092 0.02529
727.74516 0.02546
726.45939 0.02560
725.17362 0.02564
723.88785 0.02564
722.60208 0.02559
721.31631 0.02562
720.03054 0.02576
718.74477 0.02591
717.45901 0.02601
716.17324 0.02603
714.88747 0.02601
713.60170 0.02595
712.31593 0.02585
711.03016 0.02573
709.74439 0.02562
708.45862 0.02555
707.17285 0.02553
705.88709 0.02551
704.60132 0.02551
703.31555 0.02549
702.02978 0.02547
700.74401 0.02545
699.45824 0.02546
698.17247 0.02550
696.88670 0.02555
695.60094 0.02555
694.31517 0.02549
693.02940 0.02538
691.74363 0.02528
690.45786 0.02526
689.17209 0.02530
687.88632 0.02534
686.60055 0.02534
685.31478 0.02526
684.02902 0.02514
682.74325 0.02501
681.45748 0.02490
680.17171 0.02482
678.88594 0.02476
677.60017 0.02476
676.31440 0.02484
675.02863 0.02502
673.74287 0.02525
672.45710 0.02542
671.17133 0.02546
669.88556 0.02541
668.59979 0.02534
667.31402 0.02529
666.02825 0.02520
664.74248 0.02507
663.45671 0.02488
662.17095 0.02466
660.88518 0.02450
659.59941 0.02441
658.31364 0.02436
657.02787 0.02431
655.74210 0.02429
654.45633 0.02431
653.17056 0.02436
651.88480 0.02437
650.59903 0.02433
649.31326 0.02424
648.02749 0.02416
646.74172 0.02410
645.45595 0.02409
644.17018 0.02411
642.88441 0.02418
641.59864 0.02430
640.31288 0.02444
639.02711 0.02453
637.74134 0.02456
636.45557 0.02453
635.16980 0.02448
633.88403 0.02444
632.59826 0.02439
631.31249 0.02441
630.02673 0.02497
628.74096 0.02607
627.45519 0.02570
626.16942 0.02729
624.88365 0.03045
623.59788 0.03408
622.31211 0.03770
621.02634 0.04058
619.74057 0.04164
618.45481 0.04063
617.16904 0.03886
615.88327 0.03848
614.59750 0.04075
613.31173 0.04529
612.02596 0.05054
610.74019 0.05489
609.45442 0.05777
608.16866 0.05983
606.88289 0.06204
605.59712 0.06467
604.31135 0.06716
603.02558 0.06874
601.73981 0.06913
600.45404 0.06857
599.16827 0.06730
597.88250 0.06547
596.59674 0.06326
595.31097 0.06100
594.02520 0.05898
592.73943 0.05737
591.45366 0.05616
590.16789 0.05535
588.88212 0.05497
587.59635 0.05507
586.31059 0.05566
585.02482 0.05662
583.73905 0.05779
582.45328 0.05904
581.16751 0.06035
579.88174 0.06177
578.59597 0.06332
577.31020 0.06489
576.02443 0.06635
574.73867 0.06764
573.45290 0.06882
572.16713 0.07009
570.88136 0.07167
569.59559 0.07368
568.30982 0.07608
567.02405 0.07874
565.73828 0.08143
564.45251 0.08383
563.16675 0.08561
561.88098 0.08643
560.59521 0.08605
559.30944 0.08451
558.02367 0.08206
556.73790 0.07908
555.45213 0.07585
554.16636 0.07252
552.88060 0.06923
551.59483 0.06611
550.30906 0.06326
549.02329 0.06068
547.73752 0.05833
546.45175 0.05615
545.16598 0.05415
543.88021 0.05231
542.59444 0.05060
541.30868 0.04905
540.02291 0.04769
538.73714 0.04656
537.45137 0.04565
536.16560 0.04490
534.87983 0.04424
533.59406 0.04358
532.30829 0.04292
531.02253 0.04225
529.73676 0.04159
528.45099 0.04088
527.16522 0.04007
525.87945 0.03926
524.59368 0.03860
523.30791 0.03817
522.02214 0.03789
520.73637 0.03756
519.45061 0.03708
518.16484 0.03650
516.87907 0.03591
515.59330 0.03536
514.30753 0.03484
513.02176 0.03434
511.73599 0.03387
510.45022 0.03345
509.16446 0.03304
507.87869 0.03263
506.59292 0.03222
505.30715 0.03183
504.02138 0.03143
502.73561 0.03105
501.44984 0.03071
500.16407 0.03047
498.87830 0.03031
497.59254 0.03016
496.30677 0.02995
495.02100 0.02972
493.73523 0.02952
492.44946 0.02937
491.16369 0.02925
489.87792 0.02909
488.59215 0.02891
487.30639 0.02875
486.02062 0.02871
484.73485 0.02885
483.44908 0.02917
482.16331 0.02958
480.87754 0.02993
479.59177 0.03012
478.30600 0.03020
477.02023 0.03030
475.73447 0.03050
474.44870 0.03076
473.16293 0.03096
471.87716 0.03104
470.59139 0.03099
469.30562 0.03084
468.01985 0.03065
466.73408 0.03047
465.44832 0.03030
464.16255 0.03013
462.87678 0.02994
461.59101 0.02972
460.30524 0.02944
459.01947 0.02907
457.73370 0.02858
456.44793 0.02803
455.16216 0.02751
453.87640 0.02706
452.59063 0.02670
451.30486 0.02640
450.01909 0.02609
448.73332 0.02574
447.44755 0.02539
446.16178 0.02508
444.87601 0.02486
443.59025 0.02469
442.30448 0.02452
441.01871 0.02433
439.73294 0.02413
438.44717 0.02396
437.16140 0.02386
435.87563 0.02381
434.58986 0.02379
433.30409 0.02374
432.01833 0.02365
430.73256 0.02352
429.44679 0.02336
428.16102 0.02319
426.87525 0.02299
425.58948 0.02280
424.30371 0.02260
423.01794 0.02241
421.73218 0.02220
420.44641 0.02199
419.16064 0.02182
417.87487 0.02170
416.58910 0.02156
415.30333 0.02138
414.01756 0.02116
412.73179 0.02092
411.44602 0.02063
410.16026 0.02031
408.87449 0.02001
407.58872 0.01980
406.30295 0.01971
405.01718 0.01975
403.73141 0.01983
402.44564 0.01993
401.15987 0.02001
399.87411 0.02010
