3997.45528 0.04129
3996.16951 0.04105
3994.88374 0.04137
3993.59798 0.04174
3992.31221 0.04165
3991.02644 0.04116
3989.74067 0.04091
3988.45490 0.04146
3987.16913 0.04263
3985.88336 0.04351
3984.59759 0.04331
3983.31183 0.04213
3982.02606 0.04088
3980.74029 0.04030
3979.45452 0.04028
3978.16875 0.04027
3976.88298 0.04008
3975.59721 0.04008
3974.31144 0.04055
3973.02567 0.04130
3971.73991 0.04195
3970.45414 0.04228
3969.16837 0.04233
3967.88260 0.04209
3966.59683 0.04148
3965.31106 0.04054
3964.02529 0.03948
3962.73952 0.03863
3961.45376 0.03826
3960.16799 0.03836
3958.88222 0.03882
3957.59645 0.03957
3956.31068 0.04051
3955.02491 0.04134
3953.73914 0.04173
3952.45337 0.04164
3951.16760 0.04133
3949.88184 0.04115
3948.59607 0.04125
3947.31030 0.04156
3946.02453 0.04182
3944.73876 0.04181
3943.45299 0.04159
3942.16722 0.04134
3940.88145 0.04102
3939.59569 0.04057
3938.30992 0.04028
3937.02415 0.04054
3935.73838 0.04114
3934.45261 0.04145
3933.16684 0.04117
3931.88107 0.04061
3930.59530 0.04020
3929.30953 0.04000
3928.02377 0.03990
3926.73800 0.03989
3925.45223 0.04004
3924.16646 0.04027
3922.88069 0.04029
3921.59492 0.04010
3920.30915 0.04017
3919.02338 0.04089
3917.73762 0.04198
3916.45185 0.04275
3915.16608 0.04286
3913.88031 0.04249
3912.59454 0.04205
3911.30877 0.04175
3910.02300 0.04169
3908.73723 0.04199
3907.45146 0.04262
3906.16570 0.04330
3904.87993 0.04365
3903.59416 0.04331
3902.30839 0.04218
3901.02262 0.04064
3899.73685 0.03946
3898.45108 0.03916
3897.16531 0.03940
3895.87955 0.03949
3894.59378 0.03925
3893.30801 0.03912
3892.02224 0.03949
3890.73647 0.04016
3889.45070 0.04065
3888.16493 0.04085
3886.87916 0.04127
3885.59339 0.04216
3884.30763 0.04275
3883.02186 0.04214
3881.73609 0.04064
3880.45032 0.03951
3879.16455 0.03948
3877.87878 0.04022
3876.59301 0.04110
3875.30724 0.04184
3874.02148 0.04221
3872.73571 0.04178
3871.44994 0.04051
3870.16417 0.03926
3868.87840 0.03886
3867.59263 0.03908
3866.30686 0.03910
3865.02109 0.03864
3863.73532 0.03800
3862.44956 0.03756
3861.16379 0.03754
3859.87802 0.03800
3858.59225 0.03880
3857.30648 0.03961
3856.02071 0.04006
3854.73494 0.04010
3853.44917 0.04008
3852.16341 0.04022
3850.87764 0.04028
3849.59187 0.04006
3848.30610 0.03969
3847.02033 0.03945
3845.73456 0.03944
3844.44879 0.03947
3843.16302 0.03928
3841.87725 0.03876
3840.59149 0.03804
3839.30572 0.03744
3838.01995 0.03732
3836.73418 0.03774
3835.44841 0.03827
3834.16264 0.03842
3832.87687 0.03824
3831.59110 0.03805
3830.30534 0.03792
3829.01957 0.03764
3827.73380 0.03708
3826.44803 0.03656
3825.16226 0.03654
3823.87649 0.03709
3822.59072 0.03797
3821.30495 0.03890
3820.01918 0.03948
3818.73342 0.03933
3817.44765 0.03865
3816.16188 0.03819
3814.87611 0.03822
3813.59034 0.03822
3812.30457 0.03797
3811.01880 0.03785
3809.73303 0.03804
3808.44726 0.03817
3807.16150 0.03801
3805.87573 0.03772
3804.58996 0.03745
3803.30419 0.03734
3802.01842 0.03764
3800.73265 0.03833
3799.44688 0.03877
3798.16111 0.03847
3796.87535 0.03777
3795.58958 0.03726
3794.30381 0.03702
3793.01804 0.03692
3791.73227 0.03706
3790.44650 0.03757
3789.16073 0.03838
3787.87496 0.03935
3786.58919 0.04024
3785.30343 0.04062
3784.01766 0.04012
3782.73189 0.03888
3781.44612 0.03759
3780.16035 0.03685
3778.87458 0.03661
3777.58881 0.03640
3776.30304 0.03605
3775.01728 0.03594
3773.73151 0.03642
3772.44574 0.03728
3771.15997 0.03792
3769.87420 0.03799
3768.58843 0.03757
3767.30266 0.03711
3766.01689 0.03705
3764.73112 0.03743
3763.44536 0.03772
3762.15959 0.03740
3760.87382 0.03660
3759.58805 0.03595
3758.30228 0.03588
3757.01651 0.03636
3755.73074 0.03710
3754.44497 0.03778
3753.15921 0.03825
3751.87344 0.03839
3750.58767 0.03803
3749.30190 0.03727
3748.01613 0.03643
3746.73036 0.03569
3745.44459 0.03532
3744.15882 0.03575
3742.87305 0.03675
3741.58729 0.03741
3740.30152 0.03746
3739.01575 0.03744
3737.72998 0.03769
3736.44421 0.03793
3735.15844 0.03754
3733.87267 0.03621
3732.58690 0.03463
3731.30114 0.03386
3730.01537 0.03414
3728.72960 0.03476
3727.44383 0.03526
3726.15806 0.03576
3724.87229 0.03625
3723.58652 0.03634
3722.30075 0.03583
3721.01498 0.03507
3719.72922 0.03458
3718.44345 0.03463
3717.15768 0.03508
3715.87191 0.03551
3714.58614 0.03554
3713.30037 0.03521
3712.01460 0.03495
3710.72883 0.03521
3709.44307 0.03607
3708.15730 0.03728
3706.87153 0.03834
3705.58576 0.03880
3704.29999 0.03873
3703.01422 0.03869
3701.72845 0.03911
3700.44268 0.03967
3699.15691 0.03952
3697.87115 0.03819
3696.58538 0.03628
3695.29961 0.03493
3694.01384 0.03466
3692.72807 0.03499
3691.44230 0.03495
3690.15653 0.03398
3688.87076 0.03239
3687.58500 0.03103
3686.29923 0.03050
3685.01346 0.03081
3683.72769 0.03177
3682.44192 0.03305
3681.15615 0.03429
3679.87038 0.03526
3678.58461 0.03588
3677.29884 0.03616
3676.01308 0.03631
3674.72731 0.03635
3673.44154 0.03600
3672.15577 0.03525
3670.87000 0.03487
3669.58423 0.03549
3668.29846 0.03663
3667.01269 0.03737
3665.72693 0.03752
3664.44116 0.03753
3663.15539 0.03769
3661.86962 0.03783
3660.58385 0.03761
3659.29808 0.03684
3658.01231 0.03580
3656.72654 0.03515
3655.44077 0.03538
3654.15501 0.03619
3652.86924 0.03682
3651.58347 0.03688
3650.29770 0.03661
3649.01193 0.03641
3647.72616 0.03636
3646.44039 0.03625
3645.15462 0.03584
3643.86886 0.03516
3642.58309 0.03462
3641.29732 0.03477
3640.01155 0.03596
3638.72578 0.03788
3637.44001 0.03964
3636.15424 0.04024
3634.86847 0.03939
3633.58270 0.03779
3632.29694 0.03650
3631.01117 0.03617
3629.72540 0.03682
3628.43963 0.03790
3627.15386 0.03849
3625.86809 0.03808
3624.58232 0.03703
3623.29655 0.03609
3622.01079 0.03559
3620.72502 0.03560
3619.43925 0.03629
3618.15348 0.03763
3616.86771 0.03905
3615.58194 0.03982
3614.29617 0.03981
3613.01040 0.03951
3611.72463 0.03941
3610.43887 0.03957
3609.15310 0.03990
3607.86733 0.04028
3606.58156 0.04048
3605.29579 0.04031
3604.01002 0.03996
3602.72425 0.03984
3601.43848 0.04026
3600.15272 0.04117
3598.86695 0.04234
3597.58118 0.04344
3596.29541 0.04407
3595.00964 0.04390
3593.72387 0.04317
3592.43810 0.04262
3591.15233 0.04294
3589.86656 0.04414
3588.58080 0.04546
3587.29503 0.04601
3586.00926 0.04542
3584.72349 0.04408
3583.43772 0.04279
3582.15195 0.04209
3580.86618 0.04204
3579.58041 0.04231
3578.29464 0.04260
3577.00888 0.04285
3575.72311 0.04314
3574.43734 0.04353
3573.15157 0.04382
3571.86580 0.04361
3570.58003 0.04273
3569.29426 0.04157
3568.00849 0.04097
3566.72273 0.04152
3565.43696 0.04302
3564.15119 0.04464
3562.86542 0.04566
3561.57965 0.04587
3560.29388 0.04553
3559.00811 0.04512
3557.72234 0.04505
3556.43657 0.04545
3555.15081 0.04610
3553.86504 0.04666
3552.57927 0.04696
3551.29350 0.04709
3550.00773 0.04725
3548.72196 0.04762
3547.43619 0.04825
3546.15042 0.04897
3544.86466 0.04948
3543.57889 0.04956
3542.29312 0.04927
3541.00735 0.04882
3539.72158 0.04831
3538.43581 0.04761
3537.15004 0.04670
3535.86427 0.04585
3534.57850 0.04549
3533.29274 0.04578
3532.00697 0.04649
3530.72120 0.04723
3529.43543 0.04781
3528.14966 0.04825
3526.86389 0.04861
3525.57812 0.04895
3524.29235 0.04939
3523.00659 0.05000
3521.72082 0.05064
3520.43505 0.05100
3519.14928 0.05092
3517.86351 0.05060
3516.57774 0.05032
3515.29197 0.05016
3514.00620 0.05002
3512.72043 0.04997
3511.43467 0.05014
3510.14890 0.05053
3508.86313 0.05093
3507.57736 0.05117
3506.29159 0.05123
3505.00582 0.05114
3503.72005 0.05093
3502.43428 0.05070
3501.14852 0.05055
3499.86275 0.05060
3498.57698 0.05089
3497.29121 0.05144
3496.00544 0.05208
3494.71967 0.05252
3493.43390 0.05249
3492.14813 0.05214
3490.86236 0.05187
3489.57660 0.05190
3488.29083 0.05213
3487.00506 0.05236
3485.71929 0.05263
3484.43352 0.05308
3483.14775 0.05367
3481.86198 0.05410
3480.57621 0.05414
3479.29045 0.05388
3478.00468 0.05359
3476.71891 0.05342
3475.43314 0.05341
3474.14737 0.05358
3472.86160 0.05404
3471.57583 0.05466
3470.29006 0.05508
3469.00429 0.05495
3467.71853 0.05435
3466.43276 0.05365
3465.14699 0.05311
3463.86122 0.05277
3462.57545 0.05265
3461.28968 0.05284
3460.00391 0.05327
3458.71814 0.05369
3457.43238 0.05382
3456.14661 0.05363
3454.86084 0.05330
3453.57507 0.05308
3452.28930 0.05318
3451.00353 0.05381
3449.71776 0.05500
3448.43199 0.05635
3447.14622 0.05717
3445.86046 0.05703
3444.57469 0.05624
3443.28892 0.05563
3442.00315 0.05579
3440.71738 0.05658
3439.43161 0.05744
3438.14584 0.05798
3436.86007 0.05814
3435.57431 0.05792
3434.28854 0.05731
3433.00277 0.05655
3431.71700 0.05612
3430.43123 0.05634
3429.14546 0.05693
3427.85969 0.05730
3426.57392 0.05708
3425.28815 0.05651
3424.00239 0.05613
3422.71662 0.05629
3421.43085 0.05683
3420.14508 0.05728
3418.85931 0.05737
3417.57354 0.05740
3416.28777 0.05795
3415.00200 0.05913
3413.71624 0.06039
3412.43047 0.06098
3411.14470 0.06059
3409.85893 0.05951
3408.57316 0.05832
3407.28739 0.05753
3406.00162 0.05730
3404.71585 0.05752
3403.43008 0.05800
3402.14432 0.05875
3400.85855 0.05977
3399.57278 0.06041
3398.28701 0.06050
3397.00124 0.06048
3395.71547 0.06021
3394.42970 0.05968
3393.14393 0.05920
3391.85817 0.05917
3390.57240 0.05960
3389.28663 0.06016
3388.00086 0.06050
3386.71509 0.06075
3385.42932 0.06128
3384.14355 0.06211
3382.85778 0.06278
3381.57201 0.06292
3380.28625 0.06267
3379.00048 0.06245
3377.71471 0.06252
3376.42894 0.06280
3375.14317 0.06304
3373.85740 0.06308
3372.57163 0.06293
3371.28586 0.06282
3370.00010 0.06297
3368.71433 0.06333
3367.42856 0.06360
3366.14279 0.06347
3364.85702 0.06290
3363.57125 0.06211
3362.28548 0.06142
3360.99971 0.06102
3359.71394 0.06090
3358.42818 0.06093
3357.14241 0.06098
3355.85664 0.06103
3354.57087 0.06116
3353.28510 0.06139
3351.99933 0.06175
3350.71356 0.06220
3349.42779 0.06258
3348.14202 0.06264
3346.85626 0.06228
3345.57049 0.06178
3344.28472 0.06162
3342.99895 0.06201
3341.71318 0.06265
3340.42741 0.06305
3339.14164 0.06307
3337.85587 0.06294
3336.57011 0.06295
3335.28434 0.06315
3333.99857 0.06344
3332.71280 0.06368
3331.42703 0.06382
3330.14126 0.06382
3328.85549 0.06359
3327.56972 0.06313
3326.28395 0.06256
3324.99819 0.06210
3323.71242 0.06193
3322.42665 0.06211
3321.14088 0.06262
3319.85511 0.06325
3318.56934 0.06371
3317.28357 0.06382
3315.99780 0.06374
3314.71204 0.06380
3313.42627 0.06415
3312.14050 0.06455
3310.85473 0.06475
3309.56896 0.06480
3308.28319 0.06492
3306.99742 0.06515
3305.71165 0.06518
3304.42588 0.06477
3303.14012 0.06414
3301.85435 0.06375
3300.56858 0.06380
3299.28281 0.06406
3297.99704 0.06412
3296.71127 0.06392
3295.42550 0.06370
3294.13973 0.06379
3292.85397 0.06423
3291.56820 0.06489
3290.28243 0.06551
3288.99666 0.06585
3287.71089 0.06565
3286.42512 0.06486
3285.13935 0.06380
3283.85358 0.06304
3282.56781 0.06299
3281.28205 0.06350
3279.99628 0.06400
3278.71051 0.06405
3277.42474 0.06367
3276.13897 0.06316
3274.85320 0.06284
3273.56743 0.06276
3272.28166 0.06286
3270.99590 0.06303
3269.71013 0.06321
3268.42436 0.06342
3267.13859 0.06369
3265.85282 0.06403
3264.56705 0.06438
3263.28128 0.06464
3261.99551 0.06475
3260.70974 0.06464
3259.42398 0.06428
3258.13821 0.06379
3256.85244 0.06343
3255.56667 0.06347
3254.28090 0.06385
3252.99513 0.06426
3251.70936 0.06444
3250.42359 0.06442
3249.13783 0.06430
3247.85206 0.06409
3246.56629 0.06375
3245.28052 0.06332
3243.99475 0.06298
3242.70898 0.06283
3241.42321 0.06283
3240.13744 0.06283
3238.85167 0.06263
3237.56591 0.06215
3236.28014 0.06151
3234.99437 0.06099
3233.70860 0.06081
3232.42283 0.06095
3231.13706 0.06124
3229.85129 0.06160
3228.56552 0.06194
3227.27976 0.06213
3225.99399 0.06203
3224.70822 0.06176
3223.42245 0.06166
3222.13668 0.06194
3220.85091 0.06245
3219.56514 0.06280
3218.27937 0.06273
3216.99360 0.06226
3215.70784 0.06165
3214.42207 0.06116
3213.13630 0.06098
3211.85053 0.06118
3210.56476 0.06165
3209.27899 0.06210
3207.99322 0.06222
3206.70745 0.06196
3205.42169 0.06158
3204.13592 0.06138
3202.85015 0.06148
3201.56438 0.06176
3200.27861 0.06194
3198.99284 0.06187
3197.70707 0.06161
3196.42130 0.06140
3195.13553 0.06137
3193.84977 0.06144
3192.56400 0.06151
3191.27823 0.06162
3189.99246 0.06183
3188.70669 0.06213
3187.42092 0.06235
3186.13515 0.06237
3184.84938 0.06225
3183.56362 0.06213
3182.27785 0.06210
3180.99208 0.06203
3179.70631 0.06171
3178.42054 0.06104
3177.13477 0.06021
3175.84900 0.05951
3174.56323 0.05915
3173.27746 0.05915
3171.99170 0.05935
3170.70593 0.05953
3169.42016 0.05963
3168.13439 0.05973
3166.84862 0.05983
3165.56285 0.05981
3164.27708 0.05957
3162.99131 0.05927
3161.70555 0.05916
3160.41978 0.05926
3159.13401 0.05935
3157.84824 0.05920
3156.56247 0.05876
3155.27670 0.05816
3153.99093 0.05761
3152.70516 0.05735
3151.41939 0.05748
3150.13363 0.05783
3148.84786 0.05807
3147.56209 0.05805
3146.27632 0.05788
3144.99055 0.05779
3143.70478 0.05791
3142.41901 0.05825
3141.13324 0.05864
3139.84748 0.05887
3138.56171 0.05881
3137.27594 0.05850
3135.99017 0.05811
3134.70440 0.05783
3133.41863 0.05777
3132.13286 0.05793
3130.84709 0.05807
3129.56132 0.05786
3128.27556 0.05723
3126.98979 0.05650
3125.70402 0.05613
3124.41825 0.05624
3123.13248 0.05661
3121.84671 0.05693
3120.56094 0.05711
3119.27517 0.05723
3117.98940 0.05735
3116.70364 0.05744
3115.41787 0.05746
3114.13210 0.05738
3112.84633 0.05718
3111.56056 0.05687
3110.27479 0.05650
3108.98902 0.05612
3107.70325 0.05573
3106.41749 0.05531
3105.13172 0.05494
3103.84595 0.05483
3102.56018 0.05512
3101.27441 0.05569
3099.98864 0.05616
3098.70287 0.05619
3097.41710 0.05575
3096.13133 0.05514
3094.84557 0.05480
3093.55980 0.05497
3092.27403 0.05558
3090.98826 0.05629
3089.70249 0.05674
3088.41672 0.05684
3087.13095 0.05674
3085.84518 0.05659
3084.55942 0.05638
3083.27365 0.05605
3081.98788 0.05563
3080.70211 0.05528
3079.41634 0.05517
3078.13057 0.05533
3076.84480 0.05562
3075.55903 0.05586
3074.27326 0.05592
3072.98750 0.05585
3071.70173 0.05577
3070.41596 0.05575
3069.13019 0.05573
3067.84442 0.05556
3066.55865 0.05522
3065.27288 0.05492
3063.98711 0.05490
3062.70135 0.05517
3061.41558 0.05550
3060.12981 0.05571
3058.84404 0.05578
3057.55827 0.05572
3056.27250 0.05546
3054.98673 0.05499
3053.70096 0.05447
3052.41519 0.05407
3051.12943 0.05380
3049.84366 0.05344
3048.55789 0.05291
3047.27212 0.05233
3045.98635 0.05196
3044.70058 0.05193
3043.41481 0.05214
3042.12904 0.05243
3040.84328 0.05272
3039.55751 0.05299
3038.27174 0.05320
3036.98597 0.05332
3035.70020 0.05334
3034.41443 0.05333
3033.12866 0.05335
3031.84289 0.05338
3030.55712 0.05336
3029.27136 0.05324
3027.98559 0.05296
3026.69982 0.05253
3025.41405 0.05203
3024.12828 0.05167
3022.84251 0.05160
3021.55674 0.05180
3020.27097 0.05208
3018.98521 0.05221
3017.69944 0.05206
3016.41367 0.05168
3015.12790 0.05124
3013.84213 0.05097
3012.55636 0.05096
3011.27059 0.05107
3009.98482 0.05107
3008.69905 0.05087
3007.41329 0.05057
3006.12752 0.05035
3004.84175 0.05028
3003.55598 0.05034
3002.27021 0.05060
3000.98444 0.05093
2999.69867 0.05078
2998.41290 0.05095
2997.12714 0.05105
2995.84137 0.05109
2994.55560 0.05118
2993.26983 0.05132
2991.98406 0.05142
2990.69829 0.05142
2989.41252 0.05135
2988.12675 0.05120
2986.84098 0.05091
2985.55522 0.05051
2984.26945 0.05015
2982.98368 0.04998
2981.69791 0.04997
2980.41214 0.05010
2979.12637 0.05043
2977.84060 0.05095
2976.55483 0.05147
2975.26907 0.05188
2973.98330 0.05223
2972.69753 0.05267
2971.41176 0.05329
2970.12599 0.05408
2968.84022 0.05494
2967.55445 0.05571
2966.26868 0.05629
2964.98291 0.05674
2963.69715 0.05721
2962.41138 0.05780
2961.12561 0.05845
2959.83984 0.05910
2958.55407 0.05971
2957.26830 0.06031
2955.98253 0.06083
2954.69676 0.06118
2953.41100 0.06128
2952.12523 0.06119
2950.83946 0.06114
2949.55369 0.06135
2948.26792 0.06177
2946.98215 0.06210
2945.69638 0.06200
2944.41061 0.06146
2943.12484 0.06081
2941.83908 0.06046
2940.55331 0.06061
2939.26754 0.06117
2937.98177 0.06189
2936.69600 0.06245
2935.41023 0.06271
2934.12446 0.06287
2932.83869 0.06326
2931.55293 0.06398
2930.26716 0.06479
2928.98139 0.06537
2927.69562 0.06568
2926.40985 0.06586
2925.12408 0.06602
2923.83831 0.06604
2922.55254 0.06583
2921.26677 0.06549
2919.98101 0.06521
2918.69524 0.06505
2917.40947 0.06484
2916.12370 0.06446
2914.83793 0.06389
2913.55216 0.06324
2912.26639 0.06264
2910.98062 0.06224
2909.69486 0.06209
2908.40909 0.06209
2907.12332 0.06201
2905.83755 0.06170
2904.55178 0.06117
2903.26601 0.06056
2901.98024 0.06004
2900.69447 0.05973
2899.40870 0.05959
2898.12294 0.05940
2896.83717 0.05893
2895.55140 0.05813
2894.26563 0.05723
2892.97986 0.05656
2891.69409 0.05626
2890.40832 0.05619
2889.12255 0.05609
2887.83678 0.05580
2886.55102 0.05533
2885.26525 0.05477
2883.97948 0.05428
2882.69371 0.05406
2881.40794 0.05421
2880.12217 0.05460
2878.83640 0.05493
2877.55063 0.05506
2876.26487 0.05515
2874.97910 0.05539
2873.69333 0.05575
2872.40756 0.05603
2871.12179 0.05617
2869.83602 0.05628
2868.55025 0.05646
2867.26448 0.05660
2865.97871 0.05652
2864.69295 0.05612
2863.40718 0.05556
2862.12141 0.05507
2860.83564 0.05481
2859.54987 0.05477
2858.26410 0.05481
2856.97833 0.05480
2855.69256 0.05474
2854.40680 0.05473
2853.12103 0.05477
2851.83526 0.05473
2850.54949 0.05452
2849.26372 0.05420
2847.97795 0.05390
2846.69218 0.05366
2845.40641 0.05342
2844.12064 0.05311
2842.83488 0.05270
2841.54911 0.05214
2840.26334 0.05141
2838.97757 0.05062
2837.69180 0.04990
2836.40603 0.04932
2835.12026 0.04887
2833.83449 0.04855
2832.54873 0.04833
2831.26296 0.04811
2829.97719 0.04773
2828.69142 0.04720
2827.40565 0.04661
2826.11988 0.04609
2824.83411 0.04571
2823.54834 0.04549
2822.26257 0.04542
2820.97681 0.04545
2819.69104 0.04548
2818.40527 0.04549
2817.11950 0.04547
2815.83373 0.04542
2814.54796 0.04530
2813.26219 0.04513
2811.97642 0.04494
2810.69066 0.04474
2809.40489 0.04449
2808.11912 0.04424
2806.83335 0.04408
2805.54758 0.04401
2804.26181 0.04392
2802.97604 0.04376
2801.69027 0.04364
2800.40450 0.04369
2799.11874 0.04387
2797.83297 0.04403
2796.54720 0.04404
2795.26143 0.04389
2793.97566 0.04361
2792.68989 0.04327
2791.40412 0.04299
2790.11835 0.04289
2788.83259 0.04296
2787.54682 0.04296
2786.26105 0.04273
2784.97528 0.04234
2783.68951 0.04200
2782.40374 0.04186
2781.11797 0.04187
2779.83220 0.04193
2778.54643 0.04203
2777.26067 0.04217
2775.97490 0.04232
2774.68913 0.04244
2773.40336 0.04246
2772.11759 0.04238
2770.83182 0.04225
2769.54605 0.04219
2768.26028 0.04216
2766.97452 0.04199
2765.68875 0.04160
2764.40298 0.04112
2763.11721 0.04079
2761.83144 0.04072
2760.54567 0.04085
2759.25990 0.04104
2757.97413 0.04118
2756.68836 0.04122
2755.40260 0.04125
2754.11683 0.04131
2752.83106 0.04136
2751.54529 0.04126
2750.25952 0.04102
2748.97375 0.04082
2747.68798 0.04079
2746.40221 0.04080
2745.11645 0.04069
2743.83068 0.04044
2742.54491 0.04023
2741.25914 0.04019
2739.97337 0.04024
2738.68760 0.04026
2737.40183 0.04028
2736.11606 0.04037
2734.83029 0.04045
2733.54453 0.04038
2732.25876 0.04018
2730.97299 0.04007
2729.68722 0.04013
2728.40145 0.04025
2727.11568 0.04024
2725.82991 0.04002
2724.54414 0.03964
2723.25838 0.03925
2721.97261 0.03900
2720.68684 0.03896
2719.40107 0.03910
2718.11530 0.03935
2716.82953 0.03958
2715.54376 0.03968
2714.25799 0.03965
2712.97222 0.03954
2711.68646 0.03939
2710.40069 0.03919
2709.11492 0.03893
2707.82915 0.03867
2706.54338 0.03851
2705.25761 0.03849
2703.97184 0.03858
2702.68607 0.03869
2701.40031 0.03873
2700.11454 0.03865
2698.82877 0.03845
2697.54300 0.03822
2696.25723 0.03807
2694.97146 0.03806
2693.68569 0.03812
2692.39992 0.03813
2691.11415 0.03807
2689.82839 0.03801
2688.54262 0.03805
2687.25685 0.03818
2685.97108 0.03827
2684.68531 0.03825
2683.39954 0.03815
2682.11377 0.03804
2680.82800 0.03790
2679.54224 0.03769
2678.25647 0.03744
2676.97070 0.03717
2675.68493 0.03692
2674.39916 0.03673
2673.11339 0.03671
2671.82762 0.03694
2670.54185 0.03738
2669.25608 0.03781
2667.97032 0.03797
2666.68455 0.03768
2665.39878 0.03705
2664.11301 0.03643
2662.82724 0.03618
2661.54147 0.03634
2660.25570 0.03669
2658.96993 0.03707
2657.68417 0.03746
2656.39840 0.03785
2655.11263 0.03811
2653.82686 0.03813
2652.54109 0.03789
2651.25532 0.03746
2649.96955 0.03689
2648.68378 0.03628
2647.39801 0.03578
2646.11225 0.03551
2644.82648 0.03549
2643.54071 0.03563
2642.25494 0.03580
2640.96917 0.03590
2639.68340 0.03589
2638.39763 0.03577
2637.11186 0.03555
2635.82609 0.03523
2634.54033 0.03489
2633.25456 0.03467
2631.96879 0.03469
2630.68302 0.03500
2629.39725 0.03542
2628.11148 0.03567
2626.82571 0.03558
2625.53994 0.03520
2624.25418 0.03474
2622.96841 0.03437
2621.68264 0.03409
2620.39687 0.03389
2619.11110 0.03377
2617.82533 0.03368
2616.53956 0.03356
2615.25379 0.03340
2613.96802 0.03334
2612.68226 0.03340
2611.39649 0.03348
2610.11072 0.03342
2608.82495 0.03321
2607.53918 0.03290
2606.25341 0.03261
2604.96764 0.03241
2603.68187 0.03238
2602.39611 0.03253
2601.11034 0.03275
2599.82457 0.03283
2598.53880 0.03265
2597.25303 0.03224
2595.96726 0.03174
2594.68149 0.03128
2593.39572 0.03091
2592.10995 0.03069
2590.82419 0.03067
2589.53842 0.03080
2588.25265 0.03098
2586.96688 0.03113
2585.68111 0.03121
2584.39534 0.03117
2583.10957 0.03103
2581.82380 0.03089
2580.53804 0.03083
2579.25227 0.03088
2577.96650 0.03096
2576.68073 0.03097
2575.39496 0.03092
2574.10919 0.03098
2572.82342 0.03123
2571.53765 0.03151
2570.25188 0.03160
2568.96612 0.03154
2567.68035 0.03154
2566.39458 0.03164
2565.10881 0.03164
2563.82304 0.03131
2562.53727 0.03071
2561.25150 0.03010
2559.96573 0.02968
2558.67997 0.02943
2557.39420 0.02922
2556.10843 0.02905
2554.82266 0.02903
2553.53689 0.02916
2552.25112 0.02933
2550.96535 0.02936
2549.67958 0.02923
2548.39381 0.02906
2547.10805 0.02902
2545.82228 0.02917
2544.53651 0.02934
2543.25074 0.02931
2541.96497 0.02902
2540.67920 0.02861
2539.39343 0.02824
2538.10766 0.02807
2536.82190 0.02815
2535.53613 0.02846
2534.25036 0.02882
2532.96459 0.02909
2531.67882 0.02919
2530.39305 0.02909
2529.10728 0.02876
2527.82151 0.02827
2526.53574 0.02790
2525.24998 0.02796
2523.96421 0.02855
2522.67844 0.02947
2521.39267 0.03031
2520.10690 0.03067
2518.82113 0.03039
2517.53536 0.02967
2516.24959 0.02890
2514.96383 0.02840
2513.67806 0.02827
2512.39229 0.02839
2511.10652 0.02858
2509.82075 0.02872
2508.53498 0.02872
2507.24921 0.02849
2505.96344 0.02807
2504.67767 0.02764
2503.39191 0.02745
2502.10614 0.02766
2500.82037 0.02819
2499.53460 0.02881
2498.24883 0.02927
2496.96306 0.02950
2495.67729 0.02955
2494.39152 0.02953
2493.10576 0.02948
2491.81999 0.02936
2490.53422 0.02905
2489.24845 0.02851
2487.96268 0.02787
2486.67691 0.02745
2485.39114 0.02746
2484.10537 0.02789
2482.81960 0.02850
2481.53384 0.02899
2480.24807 0.02915
2478.96230 0.02897
2477.67653 0.02864
2476.39076 0.02838
2475.10499 0.02834
2473.81922 0.02846
2472.53345 0.02859
2471.24769 0.02855
2469.96192 0.02827
2468.67615 0.02790
2467.39038 0.02766
2466.10461 0.02762
2464.81884 0.02766
2463.53307 0.02762
2462.24730 0.02752
2460.96153 0.02749
2459.67577 0.02758
2458.39000 0.02768
2457.10423 0.02762
2455.81846 0.02737
2454.53269 0.02712
2453.24692 0.02712
2451.96115 0.02747
2450.67538 0.02804
2449.38962 0.02853
2448.10385 0.02869
2446.81808 0.02847
2445.53231 0.02807
2444.24654 0.02773
2442.96077 0.02760
2441.67500 0.02765
2440.38923 0.02775
2439.10346 0.02781
2437.81770 0.02776
2436.53193 0.02753
2435.24616 0.02720
2433.96039 0.02696
2432.67462 0.02700
2431.38885 0.02721
2430.10308 0.02733
2428.81731 0.02720
2427.53155 0.02696
2426.24578 0.02677
2424.96001 0.02667
2423.67424 0.02659
2422.38847 0.02641
2421.10270 0.02607
2419.81693 0.02563
2418.53116 0.02530
2417.24539 0.02525
2415.95963 0.02555
2414.67386 0.02616
2413.38809 0.02685
2412.10232 0.02729
2410.81655 0.02730
2409.53078 0.02704
2408.24501 0.02677
2406.95924 0.02657
2405.67347 0.02628
2404.38771 0.02595
2403.10194 0.02579
2401.81617 0.02594
2400.53040 0.02623
2399.24463 0.02722
2397.95886 0.02646
2396.67309 0.02582
2395.38732 0.02582
2394.10156 0.02613
2392.81579 0.02648
2391.53002 0.02663
2390.24425 0.02648
2388.95848 0.02607
2387.67271 0.02562
2386.38694 0.02539
2385.10117 0.02550
2383.81540 0.02585
2382.52964 0.02622
2381.24387 0.02637
2379.95810 0.02630
2378.67233 0.02600
2377.38656 0.02574
2376.10079 0.02579
2374.81502 0.02603
2373.52925 0.02592
2372.24349 0.02566
2370.95772 0.02577
2369.67195 0.02617
2368.38618 0.02662
2367.10041 0.02681
2365.81464 0.02675
2364.52887 0.02653
2363.24310 0.02629
2361.95733 0.02613
2360.67157 0.02612
2359.38580 0.02629
2358.10003 0.02652
2356.81426 0.02674
2355.52849 0.02708
2354.24272 0.02757
2352.95695 0.02792
2351.67118 0.02763
2350.38542 0.02716
2349.09965 0.02706
2347.81388 0.02710
2346.52811 0.02697
2345.24234 0.02691
2343.95657 0.02716
2342.67080 0.02795
2341.38503 0.02800
2340.09926 0.02757
2338.81350 0.02772
2337.52773 0.02816
2336.24196 0.02771
2334.95619 0.02716
2333.67042 0.02718
2332.38465 0.02769
2331.09888 0.02716
2329.81311 0.02723
2328.52735 0.02777
2327.24158 0.02789
2325.95581 0.02810
2324.67004 0.02836
2323.38427 0.02880
2322.09850 0.02873
2320.81273 0.02854
2319.52696 0.02828
2318.24119 0.02792
2316.95543 0.02748
2315.66966 0.02711
2314.38389 0.02694
2313.09812 0.02669
2311.81235 0.02629
2310.52658 0.02596
2309.24081 0.02579
2307.95504 0.02570
2306.66928 0.02564
2305.38351 0.02552
2304.09774 0.02542
2302.81197 0.02541
2301.52620 0.02546
2300.24043 0.02546
2298.95466 0.02529
2297.66889 0.02499
2296.38312 0.02471
2295.09736 0.02464
2293.81159 0.02479
2292.52582 0.02501
2291.24005 0.02511
2289.95428 0.02510
2288.66851 0.02505
2287.38274 0.02502
2286.09697 0.02497
2284.81121 0.02484
2283.52544 0.02463
2282.23967 0.02438
2280.95390 0.02412
2279.66813 0.02385
2278.38236 0.02352
2277.09659 0.02302
2275.81082 0.02238
2274.52505 0.02190
2273.23929 0.02186
2271.95352 0.02216
2270.66775 0.02238
2269.38198 0.02217
2268.09621 0.02165
2266.81044 0.02119
2265.52467 0.02107
2264.23890 0.02122
2262.95314 0.02129
2261.66737 0.02101
2260.38160 0.02035
2259.09583 0.01955
2257.81006 0.01893
2256.52429 0.01863
2255.23852 0.01862
2253.95275 0.01879
2252.66698 0.01905
2251.38122 0.01914
2250.09545 0.01929
2248.80968 0.02069
2247.52391 0.02078
2246.23814 0.02063
2244.95237 0.02058
2243.66660 0.02066
2242.38083 0.02075
2241.09507 0.02081
2239.80930 0.02089
2238.52353 0.02096
2237.23776 0.02100
2235.95199 0.02103
2234.66622 0.02100
2233.38045 0.02069
2232.09468 0.02005
2230.80891 0.01934
2229.52315 0.01877
2228.23738 0.01830
2226.95161 0.01777
2225.66584 0.01727
2224.38007 0.01698
2223.09430 0.01698
2221.80853 0.01719
2220.52276 0.01748
2219.23700 0.01778
2217.95123 0.01805
2216.66546 0.01814
2215.37969 0.01802
2214.09392 0.01790
2212.80815 0.01815
2211.52238 0.01875
2210.23661 0.01927
2208.95084 0.01933
2207.66508 0.01890
2206.37931 0.01823
2205.09354 0.01758
2203.80777 0.01725
2202.52200 0.01741
2201.23623 0.01788
2199.95046 0.01827
2198.66469 0.01830
2197.37893 0.01784
2196.09316 0.01693
2194.80739 0.01581
2193.52162 0.01489
2192.23585 0.01456
2190.95008 0.01487
2189.66431 0.01543
2188.37854 0.01574
2187.09277 0.01550
2185.80701 0.01471
2184.52124 0.01354
2183.23547 0.01247
2181.94970 0.01221
2180.66393 0.01299
2179.37816 0.01394
2178.09239 0.01378
2176.80662 0.01237
2175.52085 0.01106
2174.23509 0.01114
2172.94932 0.01239
2171.66355 0.01366
2170.37778 0.01441
2169.09201 0.01494
2167.80624 0.01546
2166.52047 0.01555
2165.23470 0.01457
2163.94894 0.01247
2162.66317 0.00983
2161.37740 0.00732
2160.09163 0.00539
2158.80586 0.00435
2157.52009 0.00447
2156.23432 0.00569
2154.94855 0.00731
2153.66278 0.00833
2152.37702 0.00829
2151.09125 0.00767
2149.80548 0.00736
2148.51971 0.00786
2147.23394 0.00897
2145.94817 0.01016
2144.66240 0.01094
2143.37663 0.01120
2142.09087 0.01117
2140.80510 0.01110
2139.51933 0.01099
2138.23356 0.01075
2136.94779 0.01058
2135.66202 0.01085
2134.37625 0.01168
2133.09048 0.01266
2131.80471 0.01330
2130.51895 0.01348
2129.23318 0.01340
2127.94741 0.01330
2126.66164 0.01326
2125.37587 0.01328
2124.09010 0.01341
2122.80433 0.01370
2121.51856 0.01411
2120.23280 0.01452
2118.94703 0.01487
2117.66126 0.01521
2116.37549 0.01551
2115.08972 0.01559
2113.80395 0.01537
2112.51818 0.01500
2111.23241 0.01480
2109.94664 0.01495
2108.66088 0.01529
2107.37511 0.01552
2106.08934 0.01548
2104.80357 0.01529
2103.51780 0.01520
2102.23203 0.01525
2100.94626 0.01518
2099.66049 0.01453
2098.37473 0.01430
2097.08896 0.01404
2095.80319 0.01366
2094.51742 0.01329
2093.23165 0.01315
2091.94588 0.01342
2090.66011 0.01400
2089.37434 0.01454
2088.08857 0.01470
2086.80281 0.01447
2085.51704 0.01411
2084.23127 0.01392
2082.94550 0.01403
2081.65973 0.01428
2080.37396 0.01445
2079.08819 0.01442
2077.80242 0.01421
2076.51666 0.01387
2075.23089 0.01342
2073.94512 0.01293
2072.65935 0.01253
2071.37358 0.01216
2070.08781 0.01167
2068.80204 0.01103
2067.51627 0.01046
2066.23050 0.01016
2064.94474 0.01011
2063.65897 0.01013
2062.37320 0.01005
2061.08743 0.00990
2059.80166 0.00983
2058.51589 0.01000
2057.23012 0.01036
2055.94435 0.01069
2054.65859 0.01083
2053.37282 0.01077
2052.08705 0.01062
2050.80128 0.01039
2049.51551 0.01001
2048.22974 0.00940
2046.94397 0.00866
2045.65820 0.00798
2044.37243 0.00745
2043.08667 0.00701
2041.80090 0.00663
2040.51513 0.00653
2039.22936 0.00692
2037.94359 0.00762
2036.65782 0.00812
2035.37205 0.00812
2034.08628 0.00793
2032.80052 0.00794
2031.51475 0.00796
2030.22898 0.00732
2028.94321 0.00595
2027.65744 0.00475
2026.37167 0.00461
2025.08590 0.00529
2023.80013 0.00586
2022.51436 0.00583
2021.22860 0.00551
2019.94283 0.00534
2018.65706 0.00530
2017.37129 0.00522
2016.08552 0.00515
2014.79975 0.00540
2013.51398 0.00611
2012.22821 0.00709
2010.94245 0.00785
2009.65668 0.00807
2008.37091 0.00786
2007.08514 0.00774
2005.79937 0.00803
2004.51360 0.00859
2003.22783 0.00897
2001.94206 0.00898
2000.65629 0.00897
1999.37053 0.00940
1998.08476 0.01023
1996.79899 0.01093
1995.51322 0.01111
1994.22745 0.01100
1992.94168 0.01110
1991.65591 0.01150
1990.37014 0.01184
1989.08438 0.01182
1987.79861 0.01156
1986.51284 0.01132
1985.22707 0.01125
1983.94130 0.01133
1982.65553 0.01151
1981.36976 0.01161
1980.08399 0.01137
1978.79822 0.01066
1977.51246 0.00969
1976.22669 0.00890
1974.94092 0.00871
1973.65515 0.00927
1972.36938 0.01046
1971.08361 0.01188
1969.79784 0.01295
1968.51207 0.01325
1967.22631 0.01280
1965.94054 0.01207
1964.65477 0.01164
1963.36900 0.01173
1962.08323 0.01196
1960.79746 0.01184
1959.51169 0.01125
1958.22592 0.01054
1956.94015 0.01005
1955.65439 0.00986
1954.36862 0.00990
1953.08285 0.01016
1951.79708 0.01066
1950.51131 0.01127
1949.22554 0.01183
1947.93977 0.01239
1946.65400 0.01304
1945.36823 0.01369
1944.08247 0.01406
1942.79670 0.01405
1941.51093 0.01392
1940.22516 0.01404
1938.93939 0.01451
1937.65362 0.01508
1936.36785 0.01539
1935.08208 0.01525
1933.79632 0.01475
1932.51055 0.01412
1931.22478 0.01359
1929.93901 0.01339
1928.65324 0.01362
1927.36747 0.01415
1926.08170 0.01461
1924.79593 0.01479
1923.51016 0.01485
1922.22440 0.01512
1920.93863 0.01564
1919.65286 0.01603
1918.36709 0.01597
1917.08132 0.01547
1915.79555 0.01485
1914.50978 0.01444
1913.22401 0.01440
1911.93825 0.01465
1910.65248 0.01501
1909.36671 0.01542
1908.08094 0.01578
1906.79517 0.01589
1905.50940 0.01557
1904.22363 0.01492
1902.93786 0.01429
1901.65209 0.01396
1900.36633 0.01387
1899.08056 0.01382
1897.79479 0.01376
1896.50902 0.01382
1895.22325 0.01416
1893.93748 0.01475
1892.65171 0.01533
1891.36594 0.01562
1890.08018 0.01557
1888.79441 0.01532
1887.50864 0.01509
1886.22287 0.01497
1884.93710 0.01492
1883.65133 0.01484
1882.36556 0.01472
1881.07979 0.01464
1879.79402 0.01470
1878.50826 0.01487
1877.22249 0.01502
1875.93672 0.01506
1874.65095 0.01503
1873.36518 0.01506
1872.07941 0.01521
1870.79364 0.01533
1869.50787 0.01528
1868.22211 0.01505
1866.93634 0.01480
1865.65057 0.01470
1864.36480 0.01476
1863.07903 0.01485
1861.79326 0.01486
1860.50749 0.01481
1859.22172 0.01478
1857.93595 0.01480
1856.65019 0.01481
1855.36442 0.01483
1854.07865 0.01489
1852.79288 0.01497
1851.50711 0.01499
1850.22134 0.01491
1848.93557 0.01489
1847.64980 0.01509
1846.36404 0.01549
1845.07827 0.01593
1843.79250 0.01626
1842.50673 0.01636
1841.22096 0.01624
1839.93519 0.01599
1838.64942 0.01575
1837.36365 0.01560
1836.07788 0.01551
1834.79212 0.01551
1833.50635 0.01559
1832.22058 0.01566
1830.93481 0.01569
1829.64904 0.01569
1828.36327 0.01570
1827.07750 0.01567
1825.79173 0.01560
1824.50597 0.01553
1823.22020 0.01546
1821.93443 0.01532
1820.64866 0.01512
1819.36289 0.01493
1818.07712 0.01487
1816.79135 0.01498
1815.50558 0.01516
1814.21981 0.01527
1812.93405 0.01526
1811.64828 0.01521
1810.36251 0.01525
1809.07674 0.01540
1807.79097 0.01560
1806.50520 0.01581
1805.21943 0.01603
1803.93366 0.01622
1802.64790 0.01627
1801.36213 0.01620
1800.07636 0.01608
1798.79059 0.01600
1797.50482 0.01598
1796.21905 0.01596
1794.93328 0.01589
1793.64751 0.01579
1792.36174 0.01583
1791.07598 0.01609
1789.79021 0.01645
1788.50444 0.01670
1787.21867 0.01671
1785.93290 0.01655
1784.64713 0.01637
1783.36136 0.01626
1782.07559 0.01619
1780.78983 0.01613
1779.50406 0.01609
1778.21829 0.01607
1776.93252 0.01603
1775.64675 0.01593
1774.36098 0.01578
1773.07521 0.01573
1771.78944 0.01591
1770.50367 0.01623
1769.21791 0.01643
1767.93214 0.01643
1766.64637 0.01639
1765.36060 0.01642
1764.07483 0.01649
1762.78906 0.01661
1761.50329 0.01678
1760.21752 0.01692
1758.93176 0.01693
1757.64599 0.01682
1756.36022 0.01673
1755.07445 0.01672
1753.78868 0.01666
1752.50291 0.01655
1751.21714 0.01654
1749.93137 0.01669
1748.64560 0.01689
1747.35984 0.01701
1746.07407 0.01705
1744.78830 0.01707
1743.50253 0.01710
1742.21676 0.01710
1740.93099 0.01706
1739.64522 0.01705
1738.35945 0.01711
1737.07369 0.01711
1735.78792 0.01695
1734.50215 0.01682
1733.21638 0.01694
1731.93061 0.01721
1730.64484 0.01738
1729.35907 0.01742
1728.07330 0.01749
1726.78753 0.01763
1725.50177 0.01778
1724.21600 0.01793
1722.93023 0.01815
1721.64446 0.01845
1720.35869 0.01869
1719.07292 0.01881
1717.78715 0.01894
1716.50138 0.01920
1715.21561 0.01955
1713.92985 0.01989
1712.64408 0.02025
1711.35831 0.02068
1710.07254 0.02118
1708.78677 0.02170
1707.50100 0.02217
1706.21523 0.02263
1704.92946 0.02314
1703.64370 0.02364
1702.35793 0.02397
1701.07216 0.02425
1699.78639 0.02478
1698.50062 0.02549
1697.21485 0.02613
1695.92908 0.02674
1694.64331 0.02757
1693.35754 0.02844
1692.07178 0.02905
1690.78601 0.02947
1689.50024 0.02996
1688.21447 0.03053
1686.92870 0.03100
1685.64293 0.03135
1684.35716 0.03187
1683.07139 0.03271
1681.78563 0.03364
1680.49986 0.03442
1679.21409 0.03508
1677.92832 0.03568
1676.64255 0.03625
1675.35678 0.03689
1674.07101 0.03766
1672.78524 0.03843
1671.49947 0.03903
1670.21371 0.03957
1668.92794 0.04020
1667.64217 0.04093
1666.35640 0.04163
1665.07063 0.04219
1663.78486 0.04270
1662.49909 0.04331
1661.21332 0.04398
1659.92756 0.04462
1658.64179 0.04521
1657.35602 0.04579
1656.07025 0.04626
1654.78448 0.04652
1653.49871 0.04678
1652.21294 0.04734
1650.92717 0.04802
1649.64140 0.04837
1648.35564 0.04832
1647.06987 0.04824
1645.78410 0.04838
1644.49833 0.04859
1643.21256 0.04867
1641.92679 0.04858
1640.64102 0.04848
1639.35525 0.04844
1638.06949 0.04832
1636.78372 0.04808
1635.49795 0.04786
1634.21218 0.04777
1632.92641 0.04771
1631.64064 0.04752
1630.35487 0.04724
1629.06910 0.04694
1627.78333 0.04668
1626.49757 0.04639
1625.21180 0.04601
1623.92603 0.04557
1622.64026 0.04520
1621.35449 0.04497
1620.06872 0.04475
1618.78295 0.04443
1617.49718 0.04407
1616.21142 0.04390
1614.92565 0.04391
1613.63988 0.04389
1612.35411 0.04372
1611.06834 0.04351
1609.78257 0.04334
1608.49680 0.04321
1607.21103 0.04313
1605.92526 0.04308
1604.63950 0.04309
1603.35373 0.04313
1602.06796 0.04320
1600.78219 0.04327
1599.49642 0.04334
1598.21065 0.04341
1596.92488 0.04352
1595.63911 0.04369
1594.35335 0.04391
1593.06758 0.04415
1591.78181 0.04436
1590.49604 0.04452
1589.21027 0.04465
1587.92450 0.04482
1586.63873 0.04503
1585.35296 0.04528
1584.06719 0.04551
1582.78143 0.04573
1581.49566 0.04601
1580.20989 0.04638
1578.92412 0.04674
1577.63835 0.04698
1576.35258 0.04723
1575.06681 0.04767
1573.78104 0.04822
1572.49528 0.04865
1571.20951 0.04890
1569.92374 0.04912
1568.63797 0.04940
1567.35220 0.04972
1566.06643 0.05000
1564.78066 0.05028
1563.49489 0.05059
1562.20912 0.05076
1560.92336 0.05073
1559.63759 0.05072
1558.35182 0.05103
1557.06605 0.05154
1555.78028 0.05187
1554.49451 0.05193
1553.20874 0.05190
1551.92297 0.05186
1550.63721 0.05182
1549.35144 0.05178
1548.06567 0.05176
1546.77990 0.05168
1545.49413 0.05152
1544.20836 0.05131
1542.92259 0.05103
1541.63682 0.05063
1540.35105 0.05021
1539.06529 0.04998
1537.77952 0.04992
1536.49375 0.04977
1535.20798 0.04939
1533.92221 0.04898
1532.63644 0.04880
1531.35067 0.04883
1530.06490 0.04891
1528.77914 0.04896
1527.49337 0.04900
1526.20760 0.04910
1524.92183 0.04925
1523.63606 0.04938
1522.35029 0.04948
1521.06452 0.04970
1519.77875 0.05008
1518.49298 0.05047
1517.20722 0.05081
1515.92145 0.05121
1514.63568 0.05172
1513.34991 0.05232
1512.06414 0.05301
1510.77837 0.05377
1509.49260 0.05445
1508.20683 0.05495
1506.92107 0.05540
1505.63530 0.05603
1504.34953 0.05678
1503.06376 0.05743
1501.77799 0.05789
1500.49222 0.05828
1499.20645 0.05866
1497.92068 0.05899
1496.63491 0.05929
1495.34915 0.05967
1494.06338 0.06012
1492.77761 0.06050
1491.49184 0.06081
1490.20607 0.06119
1488.92030 0.06171
1487.63453 0.06235
1486.34876 0.06300
1485.06299 0.06360
1483.77723 0.06415
1482.49146 0.06471
1481.20569 0.06537
1479.91992 0.06618
1478.63415 0.06707
1477.34838 0.06799
1476.06261 0.06888
1474.77684 0.06969
1473.49108 0.07041
1472.20531 0.07113
1470.91954 0.07183
1469.63377 0.07244
1468.34800 0.07290
1467.06223 0.07327
1465.77646 0.07366
1464.49069 0.07414
1463.20492 0.07469
1461.91916 0.07528
1460.63339 0.07583
1459.34762 0.07628
1458.06185 0.07669
1456.77608 0.07721
1455.49031 0.07789
1454.20454 0.07851
1452.91877 0.07892
1451.63301 0.07918
1450.34724 0.07941
1449.06147 0.07963
1447.77570 0.07982
1446.48993 0.07997
1445.20416 0.08004
1443.91839 0.08002
1442.63262 0.07995
1441.34685 0.07986
1440.06109 0.07974
1438.77532 0.07956
1437.48955 0.07941
1436.20378 0.07949
1434.91801 0.07982
1433.63224 0.08027
1432.34647 0.08075
1431.06070 0.08132
1429.77494 0.08203
1428.48917 0.08287
1427.20340 0.08377
1425.91763 0.08470
1424.63186 0.08568
1423.34609 0.08670
1422.06032 0.08768
1420.77455 0.08855
1419.48878 0.08940
1418.20302 0.09029
1416.91725 0.09111
1415.63148 0.09171
1414.34571 0.09206
1413.05994 0.09227
1411.77417 0.09238
1410.48840 0.09241
1409.20263 0.09234
1407.91687 0.09212
1406.63110 0.09171
1405.34533 0.09112
1404.05956 0.09036
1402.77379 0.08944
1401.48802 0.08838
1400.20225 0.08722
1398.91648 0.08602
1397.63071 0.08481
1396.34495 0.08352
1395.05918 0.08218
1393.77341 0.08081
1392.48764 0.07943
1391.20187 0.07802
1389.91610 0.07658
1388.63033 0.07517
1387.34456 0.07382
1386.05880 0.07254
1384.77303 0.07123
1383.48726 0.06984
1382.20149 0.06838
1380.91572 0.06693
1379.62995 0.06555
1378.34418 0.06425
1377.05841 0.06298
1375.77264 0.06164
1374.48688 0.06019
1373.20111 0.05869
1371.91534 0.05718
1370.62957 0.05570
1369.34380 0.05429
1368.05803 0.05297
1366.77226 0.05174
1365.48649 0.05055
1364.20073 0.04936
1362.91496 0.04819
1361.62919 0.04705
1360.34342 0.04596
1359.05765 0.04494
1357.77188 0.04403
1356.48611 0.04325
1355.20034 0.04258
1353.91457 0.04196
1352.62881 0.04135
1351.34304 0.04076
1350.05727 0.04022
1348.77150 0.03973
1347.48573 0.03925
1346.19996 0.03878
1344.91419 0.03831
1343.62842 0.03787
1342.34266 0.03746
1341.05689 0.03705
1339.77112 0.03665
1338.48535 0.03627
1337.19958 0.03589
1335.91381 0.03551
1334.62804 0.03511
1333.34227 0.03471
1332.05650 0.03433
1330.77074 0.03398
1329.48497 0.03364
1328.19920 0.03330
1326.91343 0.03295
1325.62766 0.03259
1324.34189 0.03224
1323.05612 0.03193
1321.77035 0.03163
1320.48459 0.03136
1319.19882 0.03110
1317.91305 0.03085
1316.62728 0.03063
1315.34151 0.03042
1314.05574 0.03022
1312.76997 0.03001
1311.48420 0.02978
1310.19843 0.02952
1308.91267 0.02925
1307.62690 0.02897
1306.34113 0.02868
1305.05536 0.02841
1303.76959 0.02816
1302.48382 0.02791
1301.19805 0.02767
1299.91228 0.02744
1298.62652 0.02722
1297.34075 0.02701
1296.05498 0.02679
1294.76921 0.02658
1293.48344 0.02641
1292.19767 0.02631
1290.91190 0.02625
1289.62613 0.02618
1288.34036 0.02606
1287.05460 0.02590
1285.76883 0.02575
1284.48306 0.02564
1283.19729 0.02557
1281.91152 0.02551
1280.62575 0.02542
1279.33998 0.02529
1278.05421 0.02514
1276.76845 0.02500
1275.48268 0.02486
1274.19691 0.02475
1272.91114 0.02464
1271.62537 0.02454
1270.33960 0.02445
1269.05383 0.02438
1267.76806 0.02434
1266.48229 0.02433
1265.19653 0.02432
1263.91076 0.02428
1262.62499 0.02419
1261.33922 0.02406
1260.05345 0.02393
1258.76768 0.02385
1257.48191 0.02380
1256.19614 0.02378
1254.91037 0.02374
1253.62461 0.02368
1252.33884 0.02362
1251.05307 0.02357
1249.76730 0.02354
1248.48153 0.02350
1247.19576 0.02342
1245.90999 0.02330
1244.62422 0.02319
1243.33846 0.02310
1242.05269 0.02303
1240.76692 0.02296
1239.48115 0.02288
1238.19538 0.02281
1236.90961 0.02277
1235.62384 0.02276
1234.33807 0.02274
1233.05230 0.02270
1231.76654 0.02264
1230.48077 0.02256
1229.19500 0.02245
1227.90923 0.02228
1226.62346 0.02208
1225.33769 0.02190
1224.05192 0.02172
1222.76615 0.02152
1221.48039 0.02128
1220.19462 0.02101
1218.90885 0.02078
1217.62308 0.02061
1216.33731 0.02047
1215.05154 0.02032
1213.76577 0.02016
1212.48000 0.02001
1211.19423 0.01990
1209.90847 0.01985
1208.62270 0.01984
1207.33693 0.01986
1206.05116 0.01987
1204.76539 0.01985
1203.47962 0.01980
1202.19385 0.01967
1200.90808 0.01950
1199.62232 0.01961
1198.33655 0.01950
1197.05078 0.01936
1195.76501 0.01925
1194.47924 0.01917
1193.19347 0.01912
1191.90770 0.01903
1190.62193 0.01892
1189.33616 0.01878
1188.05040 0.01866
1186.76463 0.01858
1185.47886 0.01852
1184.19309 0.01844
1182.90732 0.01834
1181.62155 0.01826
1180.33578 0.01824
1179.05001 0.01829
1177.76425 0.01837
1176.47848 0.01843
1175.19271 0.01847
1173.90694 0.01850
1172.62117 0.01854
1171.33540 0.01861
1170.04963 0.01870
1168.76386 0.01881
1167.47809 0.01891
1166.19233 0.01897
1164.90656 0.01900
1163.62079 0.01902
1162.33502 0.01904
1161.04925 0.01908
1159.76348 0.01910
1158.47771 0.01912
1157.19194 0.01922
1155.90618 0.01944
1154.62041 0.01975
1153.33464 0.02009
1152.04887 0.02036
1150.76310 0.02055
1149.47733 0.02069
1148.19156 0.02087
1146.90579 0.02114
1145.62002 0.02151
1144.33426 0.02199
1143.04849 0.02256
1141.76272 0.02322
1140.47695 0.02392
1139.19118 0.02464
1137.90541 0.02541
1136.61964 0.02628
1135.33387 0.02731
1134.04811 0.02848
1132.76234 0.02973
1131.47657 0.03102
1130.19080 0.03242
1128.90503 0.03402
1127.61926 0.03588
1126.33349 0.03797
1125.04772 0.04019
1123.76195 0.04245
1122.47619 0.04475
1121.19042 0.04712
1119.90465 0.04959
1118.61888 0.05213
1117.33311 0.05470
1116.04734 0.05727
1114.76157 0.05982
1113.47580 0.06235
1112.19004 0.06485
1110.90427 0.06729
1109.61850 0.06967
1108.33273 0.07196
1107.04696 0.07419
1105.76119 0.07639
1104.47542 0.07857
1103.18965 0.08072
1101.90388 0.08274
1100.61812 0.08459
1099.33235 0.08631
1098.04658 0.08801
1096.76081 0.08974
1095.47504 0.09143
1094.18927 0.09300
1092.90350 0.09439
1091.61773 0.09562
1090.33197 0.09676
1089.04620 0.09789
1087.76043 0.09907
1086.47466 0.10033
1085.18889 0.10163
1083.90312 0.10292
1082.61735 0.10422
1081.33158 0.10560
1080.04581 0.10711
1078.76005 0.10876
1077.47428 0.11054
1076.18851 0.11245
1074.90274 0.11443
1073.61697 0.11641
1072.33120 0.11839
1071.04543 0.12044
1069.75966 0.12257
1068.47390 0.12471
1067.18813 0.12682
1065.90236 0.12894
1064.61659 0.13117
1063.33082 0.13352
1062.04505 0.13591
1060.75928 0.13829
1059.47351 0.14059
1058.18774 0.14282
1056.90198 0.14497
1055.61621 0.14707
1054.33044 0.14915
1053.04467 0.15125
1051.75890 0.15338
1050.47313 0.15557
1049.18736 0.15782
1047.90159 0.16012
1046.61583 0.16243
1045.33006 0.16474
1044.04429 0.16706
1042.75852 0.16942
1041.47275 0.17183
1040.18698 0.17432
1038.90121 0.17691
1037.61544 0.17955
1036.32967 0.18215
1035.04391 0.18465
1033.75814 0.18701
1032.47237 0.18924
1031.18660 0.19136
1029.90083 0.19338
1028.61506 0.19526
1027.32929 0.19699
1026.04352 0.19852
1024.75775 0.19985
1023.47199 0.20097
1022.18622 0.20185
1020.90045 0.20250
1019.61468 0.20294
1018.32891 0.20318
1017.04314 0.20323
1015.75737 0.20306
1014.47160 0.20267
1013.18584 0.20199
1011.90007 0.20089
1010.61430 0.19935
1009.32853 0.19749
1008.04276 0.19544
1006.75699 0.19325
1005.47122 0.19084
1004.18545 0.18813
1002.89968 0.18513
1001.61392 0.18190
1000.32815 0.17852
999.04238 0.17501
997.75661 0.17130
996.47084 0.16737
995.18507 0.16328
993.89930 0.15912
992.61353 0.15494
991.32777 0.15071
990.04200 0.14645
988.75623 0.14219
987.47046 0.13803
986.18469 0.13400
984.89892 0.13006
983.61315 0.12616
982.32738 0.12234
981.04161 0.11869
979.75585 0.11525
978.47008 0.11196
977.18431 0.10877
975.89854 0.10572
974.61277 0.10293
973.32700 0.10055
972.04123 0.09865
970.75546 0.09722
969.46970 0.09623
968.18393 0.09567
966.89816 0.09553
965.61239 0.09571
964.32662 0.09606
963.04085 0.09636
961.75508 0.09645
960.46931 0.09625
959.18354 0.09573
957.89778 0.09485
956.61201 0.09363
955.32624 0.09217
954.04047 0.09062
952.75470 0.08905
951.46893 0.08740
950.18316 0.08560
948.89739 0.08364
947.61163 0.08164
946.32586 0.07972
945.04009 0.07793
943.75432 0.07621
942.46855 0.07448
941.18278 0.07274
939.89701 0.07104
938.61124 0.06944
937.32547 0.06797
936.03971 0.06662
934.75394 0.06539
933.46817 0.06429
932.18240 0.06327
930.89663 0.06225
929.61086 0.06119
928.32509 0.06016
927.03932 0.05921
925.75356 0.05835
924.46779 0.05755
923.18202 0.05678
921.89625 0.05602
920.61048 0.05526
919.32471 0.05448
918.03894 0.05371
916.75317 0.05305
915.46740 0.05253
914.18164 0.05211
912.89587 0.05169
911.61010 0.05119
910.32433 0.05061
909.03856 0.05000
907.75279 0.04944
906.46702 0.04899
905.18125 0.04864
903.89549 0.04833
902.60972 0.04793
901.32395 0.04738
900.03818 0.04670
898.75241 0.04604
897.46664 0.04549
896.18087 0.04506
894.89510 0.04473
893.60933 0.04447
892.32357 0.04427
891.03780 0.04409
889.75203 0.04393
888.46626 0.04384
887.18049 0.04393
885.89472 0.04437
884.60895 0.04537
883.32318 0.04702
882.03742 0.04918
880.75165 0.05145
879.46588 0.05344
878.18011 0.05501
876.89434 0.05635
875.60857 0.05771
874.32280 0.05914
873.03703 0.06046
871.75126 0.06134
870.46550 0.06157
869.17973 0.06107
867.89396 0.05998
866.60819 0.05848
865.32242 0.05678
864.03665 0.05498
862.75088 0.05319
861.46511 0.05147
860.17935 0.04989
858.89358 0.04854
857.60781 0.04743
856.32204 0.04652
855.03627 0.04571
853.75050 0.04496
852.46473 0.04428
851.17896 0.04369
849.89319 0.04315
848.60743 0.04265
847.32166 0.04217
846.03589 0.04173
844.75012 0.04132
843.46435 0.04096
842.17858 0.04064
840.89281 0.04040
839.60704 0.04021
838.32128 0.04004
837.03551 0.03981
835.74974 0.03951
834.46397 0.03917
833.17820 0.03888
831.89243 0.03869
830.60666 0.03858
829.32089 0.03852
828.03512 0.03845
826.74936 0.03833
825.46359 0.03812
824.17782 0.03789
822.89205 0.03774
821.60628 0.03775
820.32051 0.03783
819.03474 0.03784
817.74897 0.03772
816.46321 0.03749
815.17744 0.03722
813.89167 0.03698
812.60590 0.03681
811.32013 0.03677
810.03436 0.03682
808.74859 0.03686
807.46282 0.03676
806.17705 0.03655
804.89129 0.03634
803.60552 0.03627
802.31975 0.03636
801.03398 0.03649
799.74821 0.03653
798.46244 0.03640
797.17667 0.03615
795.89090 0.03588
794.60513 0.03568
793.31937 0.03555
792.03360 0.03549
790.74783 0.03549
789.46206 0.03551
788.17629 0.03553
786.89052 0.03555
785.60475 0.03556
784.31898 0.03554
783.03322 0.03545
781.74745 0.03533
780.46168 0.03524
779.17591 0.03522
777.89014 0.03520
776.60437 0.03513
775.31860 0.03498
774.03283 0.03485
772.74706 0.03483
771.46130 0.03491
770.17553 0.03504
768.88976 0.03514
767.60399 0.03519
766.31822 0.03520
765.03245 0.03519
763.74668 0.03517
762.46091 0.03514
761.17515 0.03509
759.88938 0.03504
758.60361 0.03504
757.31784 0.03508
756.03207 0.03513
754.74630 0.03513
753.46053 0.03508
752.17476 0.03503
750.88899 0.03500
749.60323 0.03494
748.31746 0.03483
747.03169 0.03467
745.74592 0.03453
744.46015 0.03439
743.17438 0.03421
741.88861 0.03396
740.60284 0.03373
739.31708 0.03367
738.03131 0.03379
736.74554 0.03393
735.45977 0.03400
734.17400 0.03400
732.88823 0.03402
731.60246 0.03409
730.31669 0.03420
729.03092 0.03430
727.74516 0.03436
726.45939 0.03434
725.17362 0.03424
723.88785 0.03435
722.60208 0.03409
721.31631 0.03394
720.03054 0.03395
718.74477 0.03400
717.45901 0.03403
716.17324 0.03400
714.88747 0.03393
713.60170 0.03387
712.31593 0.03386
711.03016 0.03386
709.74439 0.03383
708.45862 0.03375
707.17285 0.03364
705.88709 0.03357
704.60132 0.03355
703.31555 0.03360
702.02978 0.03366
700.74401 0.03369
699.45824 0.03364
698.17247 0.03353
696.88670 0.03341
695.60094 0.03330
694.31517 0.03324
693.02940 0.03320
691.74363 0.03320
690.45786 0.03320
689.17209 0.03319
687.88632 0.03318
686.60055 0.03314
685.31478 0.03305
684.02902 0.03288
682.74325 0.03265
681.45748 0.03242
680.17171 0.03227
678.88594 0.03220
677.60017 0.03221
676.31440 0.03226
675.02863 0.03235
673.74287 0.03246
672.45710 0.03256
671.17133 0.03265
669.88556 0.03272
668.59979 0.03276
667.31402 0.03279
666.02825 0.03278
664.74248 0.03272
663.45671 0.03260
662.17095 0.03244
660.88518 0.03227
659.59941 0.03211
658.31364 0.03196
657.02787 0.03179
655.74210 0.03159
654.45633 0.03133
653.17056 0.03104
651.88480 0.03076
650.59903 0.03050
649.31326 0.03030
648.02749 0.03021
646.74172 0.03021
645.45595 0.03023
644.17018 0.03024
642.88441 0.03021
641.59864 0.03015
640.31288 0.03009
639.02711 0.03006
637.74134 0.03007
636.45557 0.03013
635.16980 0.03026
633.88403 0.03050
632.59826 0.03078
631.31249 0.03037
630.02673 0.02881
628.74096 0.02901
627.45519 0.03193
626.16942 0.03373
624.88365 0.03446
623.59788 0.03486
622.31211 0.03523
621.02634 0.03612
619.74057 0.03808
618.45481 0.04089
617.16904 0.04362
615.88327 0.04562
614.59750 0.04743
613.31173 0.05041
612.02596 0.05539
610.74019 0.06166
609.45442 0.06770
608.16866 0.07260
606.88289 0.07638
605.59712 0.07923
604.31135 0.08113
603.02558 0.08209
601.73981 0.08228
600.45404 0.08193
599.16827 0.08119
597.88250 0.08012
596.59674 0.07872
595.31097 0.07701
594.02520 0.07511
592.73943 0.07326
591.45366 0.07175
590.16789 0.07076
588.88212 0.07034
587.59635 0.07045
586.31059 0.07103
585.02482 0.07204
583.73905 0.07342
582.45328 0.07509
581.16751 0.07702
579.88174 0.07916
578.59597 0.08144
577.31020 0.08368
576.02443 0.08568
574.73867 0.08737
573.45290 0.08889
572.16713 0.09049
570.88136 0.09236
569.59559 0.09461
568.30982 0.09723
567.02405 0.10009
565.73828 0.10295
564.45251 0.10548
563.16675 0.10737
561.88098 0.10839
560.59521 0.10846
559.30944 0.10759
558.02367 0.10584
556.73790 0.10326
555.45213 0.09999
554.16636 0.09624
552.88060 0.09222
551.59483 0.08808
550.30906 0.08401
549.02329 0.08022
547.73752 0.07686
546.45175 0.07393
545.16598 0.07131
543.88021 0.06893
542.59444 0.06682
541.30868 0.06500
540.02291 0.06334
538.73714 0.06167
537.45137 0.05995
536.16560 0.05826
534.87983 0.05673
533.59406 0.05540
532.30829 0.05424
531.02253 0.05316
529.73676 0.05207
528.45099 0.05092
527.16522 0.04970
525.87945 0.04854
524.59368 0.04757
523.30791 0.04685
522.02214 0.04627
520.73637 0.04566
519.45061 0.04489
518.16484 0.04398
516.87907 0.04304
515.59330 0.04216
514.30753 0.04138
513.02176 0.04068
511.73599 0.04004
510.45022 0.03947
509.16446 0.03899
507.87869 0.03856
506.59292 0.03814
505.30715 0.03769
504.02138 0.03726
502.73561 0.03686
501.44984 0.03648
500.16407 0.03606
498.87830 0.03559
497.59254 0.03507
496.30677 0.03453
495.02100 0.03397
493.73523 0.03348
492.44946 0.03313
491.16369 0.03292
489.87792 0.03278
488.59215 0.03261
487.30639 0.03242
486.02062 0.03231
484.73485 0.03232
483.44908 0.03237
482.16331 0.03238
480.87754 0.03233
479.59177 0.03228
478.30600 0.03230
477.02023 0.03238
475.73447 0.03251
474.44870 0.03269
473.16293 0.03295
471.87716 0.03321
470.59139 0.03333
469.30562 0.03326
468.01985 0.03302
466.73408 0.03270
465.44832 0.03235
464.16255 0.03196
462.87678 0.03155
461.59101 0.03113
460.30524 0.03069
459.01947 0.03027
457.73370 0.02993
456.44793 0.02968
455.16216 0.02945
453.87640 0.02915
452.59063 0.02877
451.30486 0.02839
450.01909 0.02805
448.73332 0.02773
447.44755 0.02742
446.16178 0.02713
444.87601 0.02691
443.59025 0.02677
442.30448 0.02666
441.01871 0.02652
439.73294 0.02635
438.44717 0.02619
437.16140 0.02607
435.87563 0.02599
434.58986 0.02593
433.30409 0.02584
432.01833 0.02573
430.73256 0.02559
429.44679 0.02540
428.16102 0.02519
426.87525 0.02498
425.58948 0.02481
424.30371 0.02470
423.01794 0.02461
421.73218 0.02453
420.44641 0.02442
419.16064 0.02431
417.87487 0.02420
416.58910 0.02404
415.30333 0.02384
414.01756 0.02364
412.73179 0.02353
411.44602 0.02350
410.16026 0.02351
408.87449 0.02351
407.58872 0.02347
406.30295 0.02341
405.01718 0.02336
403.73141 0.02338
402.44564 0.02346
401.15987 0.02356
399.87411 0.02363
