3997.45528 0.06067
3996.16951 0.06049
3994.88374 0.06013
3993.59798 0.05898
3992.31221 0.05702
3991.02644 0.05495
3989.74067 0.05354
3988.45490 0.05310
3987.16913 0.05337
3985.88336 0.05384
3984.59759 0.05411
3983.31183 0.05412
3982.02606 0.05408
3980.74029 0.05412
3979.45452 0.05414
3978.16875 0.05408
3976.88298 0.05409
3975.59721 0.05429
3974.31144 0.05450
3973.02567 0.05460
3971.73991 0.05485
3970.45414 0.05558
3969.16837 0.05660
3967.88260 0.05727
3966.59683 0.05711
3965.31106 0.05617
3964.02529 0.05483
3962.73952 0.05342
3961.45376 0.05221
3960.16799 0.05156
3958.88222 0.05182
3957.59645 0.05288
3956.31068 0.05393
3955.02491 0.05397
3953.73914 0.05283
3952.45337 0.05147
3951.16760 0.05110
3949.88184 0.05213
3948.59607 0.05405
3947.31030 0.05592
3946.02453 0.05695
3944.73876 0.05688
3943.45299 0.05607
3942.16722 0.05507
3940.88145 0.05408
3939.59569 0.05307
3938.30992 0.05225
3937.02415 0.05205
3935.73838 0.05254
3934.45261 0.05320
3933.16684 0.05349
3931.88107 0.05340
3930.59530 0.05333
3929.30953 0.05366
3928.02377 0.05432
3926.73800 0.05484
3925.45223 0.05480
3924.16646 0.05412
3922.88069 0.05314
3921.59492 0.05261
3920.30915 0.05334
3919.02338 0.05530
3917.73762 0.05737
3916.45185 0.05817
3915.16608 0.05741
3913.88031 0.05599
3912.59454 0.05496
3911.30877 0.05456
3910.02300 0.05450
3908.73723 0.05464
3907.45146 0.05509
3906.16570 0.05577
3904.87993 0.05635
3903.59416 0.05644
3902.30839 0.05590
3901.02262 0.05488
3899.73685 0.05373
3898.45108 0.05281
3897.16531 0.05224
3895.87955 0.05206
3894.59378 0.05225
3893.30801 0.05270
3892.02224 0.05316
3890.73647 0.05328
3889.45070 0.05287
3888.16493 0.05206
3886.87916 0.05151
3885.59339 0.05185
3884.30763 0.05286
3883.02186 0.05374
3881.73609 0.05410
3880.45032 0.05425
3879.16455 0.05454
3877.87878 0.05490
3876.59301 0.05524
3875.30724 0.05571
3874.02148 0.05622
3872.73571 0.05615
3871.44994 0.05505
3870.16417 0.05350
3868.87840 0.05253
3867.59263 0.05232
3866.30686 0.05227
3865.02109 0.05199
3863.73532 0.05161
3862.44956 0.05134
3861.16379 0.05127
3859.87802 0.05138
3858.59225 0.05165
3857.30648 0.05202
3856.02071 0.05232
3854.73494 0.05245
3853.44917 0.05269
3852.16341 0.05319
3850.87764 0.05361
3849.59187 0.05358
3848.30610 0.05320
3847.02033 0.05294
3845.73456 0.05312
3844.44879 0.05359
3843.16302 0.05387
3841.87725 0.05376
3840.59149 0.05349
3839.30572 0.05348
3838.01995 0.05389
3836.73418 0.05443
3835.44841 0.05452
3834.16264 0.05378
3832.87687 0.05243
3831.59110 0.05100
3830.30534 0.04988
3829.01957 0.04920
3827.73380 0.04892
3826.44803 0.04908
3825.16226 0.04962
3823.87649 0.05018
3822.59072 0.05047
3821.30495 0.05061
3820.01918 0.05084
3818.73342 0.05100
3817.44765 0.05094
3816.16188 0.05090
3814.87611 0.05101
3813.59034 0.05095
3812.30457 0.05057
3811.01880 0.05020
3809.73303 0.05006
3808.44726 0.04998
3807.16150 0.04992
3805.87573 0.05000
3804.58996 0.05019
3803.30419 0.05050
3802.01842 0.05112
3800.73265 0.05197
3799.44688 0.05230
3798.16111 0.05155
3796.87535 0.05010
3795.58958 0.04890
3794.30381 0.04846
3793.01804 0.04872
3791.73227 0.04938
3790.44650 0.05018
3789.16073 0.05104
3787.87496 0.05195
3786.58919 0.05264
3785.30343 0.05264
3784.01766 0.05178
3782.73189 0.05048
3781.44612 0.04942
3780.16035 0.04893
3778.87458 0.04885
3777.58881 0.04875
3776.30304 0.04848
3775.01728 0.04833
3773.73151 0.04864
3772.44574 0.04933
3771.15997 0.05004
3769.87420 0.05047
3768.58843 0.05048
3767.30266 0.05017
3766.01689 0.04998
3764.73112 0.05034
3763.44536 0.05098
3762.15959 0.05108
3760.87382 0.05016
3759.58805 0.04865
3758.30228 0.04746
3757.01651 0.04722
3755.73074 0.04783
3754.44497 0.04867
3753.15921 0.04925
3751.87344 0.04941
3750.58767 0.04923
3749.30190 0.04910
3748.01613 0.04938
3746.73036 0.04973
3745.44459 0.04985
3744.15882 0.05012
3742.87305 0.05066
3741.58729 0.05095
3740.30152 0.05071
3739.01575 0.05016
3737.72998 0.04944
3736.44421 0.04871
3735.15844 0.04824
3733.87267 0.04805
3732.58690 0.04812
3731.30114 0.04846
3730.01537 0.04886
3728.72960 0.04897
3727.44383 0.04881
3726.15806 0.04869
3724.87229 0.04866
3723.58652 0.04839
3722.30075 0.04774
3721.01498 0.04697
3719.72922 0.04644
3718.44345 0.04630
3717.15768 0.04636
3715.87191 0.04632
3714.58614 0.04599
3713.30037 0.04548
3712.01460 0.04510
3710.72883 0.04515
3709.44307 0.04575
3708.15730 0.04681
3706.87153 0.04789
3705.58576 0.04847
3704.29999 0.04837
3703.01422 0.04805
3701.72845 0.04805
3700.44268 0.04837
3699.15691 0.04840
3697.87115 0.04778
3696.58538 0.04685
3695.29961 0.04616
3694.01384 0.04592
3692.72807 0.04601
3691.44230 0.04622
3690.15653 0.04629
3688.87076 0.04608
3687.58500 0.04559
3686.29923 0.04488
3685.01346 0.04430
3683.72769 0.04432
3682.44192 0.04498
3681.15615 0.04578
3679.87038 0.04635
3678.58461 0.04674
3677.29884 0.04713
3676.01308 0.04773
3674.72731 0.04853
3673.44154 0.04911
3672.15577 0.04909
3670.87000 0.04867
3669.58423 0.04807
3668.29846 0.04726
3667.01269 0.04659
3665.72693 0.04679
3664.44116 0.04789
3663.15539 0.04889
3661.86962 0.04899
3660.58385 0.04842
3659.29808 0.04792
3658.01231 0.04797
3656.72654 0.04866
3655.44077 0.04985
3654.15501 0.05105
3652.86924 0.05155
3651.58347 0.05105
3650.29770 0.04986
3649.01193 0.04853
3647.72616 0.04749
3646.44039 0.04692
3645.15462 0.04685
3643.86886 0.04720
3642.58309 0.04780
3641.29732 0.04837
3640.01155 0.04868
3638.72578 0.04873
3637.44001 0.04865
3636.15424 0.04847
3634.86847 0.04820
3633.58270 0.04815
3632.29694 0.04867
3631.01117 0.04966
3629.72540 0.05064
3628.43963 0.05104
3627.15386 0.05054
3625.86809 0.04944
3624.58232 0.04856
3623.29655 0.04846
3622.01079 0.04894
3620.72502 0.04959
3619.43925 0.05035
3618.15348 0.05126
3616.86771 0.05210
3615.58194 0.05250
3614.29617 0.05239
3613.01040 0.05210
3611.72463 0.05203
3610.43887 0.05225
3609.15310 0.05264
3607.86733 0.05315
3606.58156 0.05387
3605.29579 0.05487
3604.01002 0.05592
3602.72425 0.05666
3601.43848 0.05689
3600.15272 0.05674
3598.86695 0.05647
3597.58118 0.05622
3596.29541 0.05600
3595.00964 0.05574
3593.72387 0.05551
3592.43810 0.05570
3591.15233 0.05667
3589.86656 0.05831
3588.58080 0.05993
3587.29503 0.06068
3586.00926 0.06020
3584.72349 0.05891
3583.43772 0.05765
3582.15195 0.05696
3580.86618 0.05687
3579.58041 0.05724
3578.29464 0.05804
3577.00888 0.05920
3575.72311 0.06034
3574.43734 0.06095
3573.15157 0.06091
3571.86580 0.06065
3570.58003 0.06068
3569.29426 0.06107
3568.00849 0.06161
3566.72273 0.06198
3565.43696 0.06198
3564.15119 0.06155
3562.86542 0.06098
3561.57965 0.06068
3560.29388 0.06085
3559.00811 0.06134
3557.72234 0.06205
3556.43657 0.06297
3555.15081 0.06396
3553.86504 0.06460
3552.57927 0.06458
3551.29350 0.06409
3550.00773 0.06366
3548.72196 0.06361
3547.43619 0.06385
3546.15042 0.06409
3544.86466 0.06422
3543.57889 0.06437
3542.29312 0.06464
3541.00735 0.06499
3539.72158 0.06527
3538.43581 0.06545
3537.15004 0.06550
3535.86427 0.06533
3534.57850 0.06494
3533.29274 0.06460
3532.00697 0.06468
3530.72120 0.06534
3529.43543 0.06632
3528.14966 0.06717
3526.86389 0.06761
3525.57812 0.06773
3524.29235 0.06777
3523.00659 0.06775
3521.72082 0.06744
3520.43505 0.06670
3519.14928 0.06584
3517.86351 0.06544
3516.57774 0.06593
3515.29197 0.06727
3514.00620 0.06892
3512.72043 0.07012
3511.43467 0.07037
3510.14890 0.06986
3508.86313 0.06925
3507.57736 0.06909
3506.29159 0.06935
3505.00582 0.06966
3503.72005 0.06968
3502.43428 0.06939
3501.14852 0.06898
3499.86275 0.06879
3498.57698 0.06906
3497.29121 0.06985
3496.00544 0.07089
3494.71967 0.07177
3493.43390 0.07218
3492.14813 0.07210
3490.86236 0.07179
3489.57660 0.07155
3488.29083 0.07147
3487.00506 0.07158
3485.71929 0.07199
3484.43352 0.07278
3483.14775 0.07369
3481.86198 0.07426
3480.57621 0.07427
3479.29045 0.07397
3478.00468 0.07375
3476.71891 0.07374
3475.43314 0.07388
3474.14737 0.07416
3472.86160 0.07471
3471.57583 0.07549
3470.29006 0.07613
3469.00429 0.07620
3467.71853 0.07558
3466.43276 0.07455
3465.14699 0.07361
3463.86122 0.07309
3462.57545 0.07310
3461.28968 0.07352
3460.00391 0.07410
3458.71814 0.07459
3457.43238 0.07479
3456.14661 0.07469
3454.86084 0.07444
3453.57507 0.07434
3452.28930 0.07457
3451.00353 0.07503
3449.71776 0.07549
3448.43199 0.07580
3447.14622 0.07592
3445.86046 0.07592
3444.57469 0.07587
3443.28892 0.07600
3442.00315 0.07648
3440.71738 0.07731
3439.43161 0.07824
3438.14584 0.07899
3436.86007 0.07940
3435.57431 0.07930
3434.28854 0.07864
3433.00277 0.07772
3431.71700 0.07711
3430.43123 0.07719
3429.14546 0.07783
3427.85969 0.07853
3426.57392 0.07891
3425.28815 0.07890
3424.00239 0.07871
3422.71662 0.07868
3421.43085 0.07904
3420.14508 0.07968
3418.85931 0.08015
3417.57354 0.08012
3416.28777 0.07978
3415.00200 0.07969
3413.71624 0.08024
3412.43047 0.08109
3411.14470 0.08139
3409.85893 0.08065
3408.57316 0.07935
3407.28739 0.07856
3406.00162 0.07892
3404.71585 0.08010
3403.43008 0.08124
3402.14432 0.08191
3400.85855 0.08222
3399.57278 0.08206
3398.28701 0.08169
3397.00124 0.08163
3395.71547 0.08165
3394.42970 0.08143
3393.14393 0.08100
3391.85817 0.08066
3390.57240 0.08074
3389.28663 0.08132
3388.00086 0.08215
3386.71509 0.08294
3385.42932 0.08356
3384.14355 0.08400
3382.85778 0.08422
3381.57201 0.08423
3380.28625 0.08413
3379.00048 0.08402
3377.71471 0.08380
3376.42894 0.08338
3375.14317 0.08299
3373.85740 0.08308
3372.57163 0.08370
3371.28586 0.08438
3370.00010 0.08457
3368.71433 0.08424
3367.42856 0.08377
3366.14279 0.08343
3364.85702 0.08323
3363.57125 0.08308
3362.28548 0.08301
3360.99971 0.08306
3359.71394 0.08318
3358.42818 0.08329
3357.14241 0.08335
3355.85664 0.08341
3354.57087 0.08351
3353.28510 0.08375
3351.99933 0.08421
3350.71356 0.08486
3349.42779 0.08537
3348.14202 0.08529
3346.85626 0.08442
3345.57049 0.08327
3344.28472 0.08271
3342.99895 0.08318
3341.71318 0.08426
3340.42741 0.08507
3339.14164 0.08517
3337.85587 0.08487
3336.57011 0.08469
3335.28434 0.08483
3333.99857 0.08508
3332.71280 0.08520
3331.42703 0.08514
3330.14126 0.08502
3328.85549 0.08491
3327.56972 0.08488
3326.28395 0.08491
3324.99819 0.08490
3323.71242 0.08477
3322.42665 0.08457
3321.14088 0.08449
3319.85511 0.08462
3318.56934 0.08485
3317.28357 0.08500
3315.99780 0.08510
3314.71204 0.08534
3313.42627 0.08582
3312.14050 0.08636
3310.85473 0.08672
3309.56896 0.08691
3308.28319 0.08712
3306.99742 0.08733
3305.71165 0.08725
3304.42588 0.08668
3303.14012 0.08589
3301.85435 0.08547
3300.56858 0.08569
3299.28281 0.08623
3297.99704 0.08652
3296.71127 0.08636
3295.42550 0.08608
3294.13973 0.08610
3292.85397 0.08655
3291.56820 0.08710
3290.28243 0.08740
3288.99666 0.08734
3287.71089 0.08712
3286.42512 0.08695
3285.13935 0.08679
3283.85358 0.08651
3282.56781 0.08615
3281.28205 0.08585
3279.99628 0.08573
3278.71051 0.08564
3277.42474 0.08544
3276.13897 0.08510
3274.85320 0.08478
3273.56743 0.08467
3272.28166 0.08485
3270.99590 0.08519
3269.71013 0.08547
3268.42436 0.08559
3267.13859 0.08562
3265.85282 0.08572
3264.56705 0.08589
3263.28128 0.08604
3261.99551 0.08614
3260.70974 0.08622
3259.42398 0.08626
3258.13821 0.08614
3256.85244 0.08574
3255.56667 0.08517
3254.28090 0.08469
3252.99513 0.08453
3251.70936 0.08472
3250.42359 0.08514
3249.13783 0.08559
3247.85206 0.08583
3246.56629 0.08571
3245.28052 0.08530
3243.99475 0.08477
3242.70898 0.08429
3241.42321 0.08404
3240.13744 0.08416
3238.85167 0.08462
3237.56591 0.08511
3236.28014 0.08519
3234.99437 0.08468
3233.70860 0.08376
3232.42283 0.08285
3231.13706 0.08232
3229.85129 0.08228
3228.56552 0.08251
3227.27976 0.08265
3225.99399 0.08260
3224.70822 0.08257
3223.42245 0.08276
3222.13668 0.08309
3220.85091 0.08325
3219.56514 0.08301
3218.27937 0.08248
3216.99360 0.08202
3215.70784 0.08195
3214.42207 0.08228
3213.13630 0.08271
3211.85053 0.08290
3210.56476 0.08278
3209.27899 0.08251
3207.99322 0.08229
3206.70745 0.08221
3205.42169 0.08222
3204.13592 0.08224
3202.85015 0.08230
3201.56438 0.08245
3200.27861 0.08260
3198.99284 0.08260
3197.70707 0.08237
3196.42130 0.08207
3195.13553 0.08188
3193.84977 0.08182
3192.56400 0.08180
3191.27823 0.08176
3189.99246 0.08170
3188.70669 0.08169
3187.42092 0.08173
3186.13515 0.08176
3184.84938 0.08164
3183.56362 0.08134
3182.27785 0.08103
3180.99208 0.08095
3179.70631 0.08115
3178.42054 0.08136
3177.13477 0.08123
3175.84900 0.08071
3174.56323 0.08004
3173.27746 0.07947
3171.99170 0.07905
3170.70593 0.07865
3169.42016 0.07829
3168.13439 0.07817
3166.84862 0.07845
3165.56285 0.07904
3164.27708 0.07959
3162.99131 0.07981
3161.70555 0.07967
3160.41978 0.07934
3159.13401 0.07893
3157.84824 0.07844
3156.56247 0.07787
3155.27670 0.07729
3153.99093 0.07681
3152.70516 0.07651
3151.41939 0.07639
3150.13363 0.07644
3148.84786 0.07663
3147.56209 0.07690
3146.27632 0.07729
3144.99055 0.07781
3143.70478 0.07836
3142.41901 0.07873
3141.13324 0.07877
3139.84748 0.07861
3138.56171 0.07847
3137.27594 0.07839
3135.99017 0.07821
3134.70440 0.07787
3133.41863 0.07761
3132.13286 0.07766
3130.84709 0.07790
3129.56132 0.07792
3128.27556 0.07751
3126.98979 0.07687
3125.70402 0.07636
3124.41825 0.07609
3123.13248 0.07591
3121.84671 0.07565
3120.56094 0.07530
3119.27517 0.07497
3117.98940 0.07477
3116.70364 0.07476
3115.41787 0.07493
3114.13210 0.07524
3112.84633 0.07561
3111.56056 0.07596
3110.27479 0.07615
3108.98902 0.07606
3107.70325 0.07565
3106.41749 0.07505
3105.13172 0.07446
3103.84595 0.07414
3102.56018 0.07421
3101.27441 0.07454
3099.98864 0.07481
3098.70287 0.07479
3097.41710 0.07448
3096.13133 0.07405
3094.84557 0.07374
3093.55980 0.07367
3092.27403 0.07383
3090.98826 0.07406
3089.70249 0.07416
3088.41672 0.07400
3087.13095 0.07365
3085.84518 0.07329
3084.55942 0.07312
3083.27365 0.07318
3081.98788 0.07338
3080.70211 0.07354
3079.41634 0.07355
3078.13057 0.07346
3076.84480 0.07344
3075.55903 0.07359
3074.27326 0.07380
3072.98750 0.07382
3071.70173 0.07360
3070.41596 0.07330
3069.13019 0.07313
3067.84442 0.07308
3066.55865 0.07304
3065.27288 0.07294
3063.98711 0.07279
3062.70135 0.07261
3061.41558 0.07242
3060.12981 0.07230
3058.84404 0.07237
3057.55827 0.07257
3056.27250 0.07271
3054.98673 0.07263
3053.70096 0.07237
3052.41519 0.07210
3051.12943 0.07186
3049.84366 0.07153
3048.55789 0.07102
3047.27212 0.07036
3045.98635 0.06979
3044.70058 0.06949
3043.41481 0.06944
3042.12904 0.06952
3040.84328 0.06961
3039.55751 0.06974
3038.27174 0.07002
3036.98597 0.07041
3035.70020 0.07069
3034.41443 0.07066
3033.12866 0.07031
3031.84289 0.06988
3030.55712 0.06959
3029.27136 0.06950
3027.98559 0.06952
3026.69982 0.06956
3025.41405 0.06952
3024.12828 0.06939
3022.84251 0.06919
3021.55674 0.06893
3020.27097 0.06866
3018.98521 0.06847
3017.69944 0.06842
3016.41367 0.06849
3015.12790 0.06858
3013.84213 0.06860
3012.55636 0.06854
3011.27059 0.06843
3009.98482 0.06827
3008.69905 0.06805
3007.41329 0.06783
3006.12752 0.06766
3004.84175 0.06752
3003.55598 0.06742
3002.27021 0.06748
3000.98444 0.06766
2999.69867 0.06743
2998.41290 0.06755
2997.12714 0.06772
2995.84137 0.06794
2994.55560 0.06813
2993.26983 0.06813
2991.98406 0.06791
2990.69829 0.06762
2989.41252 0.06739
2988.12675 0.06718
2986.84098 0.06694
2985.55522 0.06682
2984.26945 0.06701
2982.98368 0.06752
2981.69791 0.06809
2980.41214 0.06847
2979.12637 0.06869
2977.84060 0.06895
2976.55483 0.06935
2975.26907 0.06984
2973.98330 0.07025
2972.69753 0.07060
2971.41176 0.07107
2970.12599 0.07187
2968.84022 0.07300
2967.55445 0.07421
2966.26868 0.07527
2964.98291 0.07616
2963.69715 0.07699
2962.41138 0.07779
2961.12561 0.07850
2959.83984 0.07908
2958.55407 0.07965
2957.26830 0.08033
2955.98253 0.08105
2954.69676 0.08156
2953.41100 0.08169
2952.12523 0.08153
2950.83946 0.08130
2949.55369 0.08115
2948.26792 0.08103
2946.98215 0.08076
2945.69638 0.08031
2944.41061 0.07982
2943.12484 0.07952
2941.83908 0.07957
2940.55331 0.08003
2939.26754 0.08081
2937.98177 0.08164
2936.69600 0.08219
2935.41023 0.08238
2934.12446 0.08246
2932.83869 0.08273
2931.55293 0.08319
2930.26716 0.08363
2928.98139 0.08407
2927.69562 0.08468
2926.40985 0.08542
2925.12408 0.08595
2923.83831 0.08605
2922.55254 0.08582
2921.26677 0.08551
2919.98101 0.08521
2918.69524 0.08485
2917.40947 0.08443
2916.12370 0.08399
2914.83793 0.08348
2913.55216 0.08280
2912.26639 0.08199
2910.98062 0.08123
2909.69486 0.08066
2908.40909 0.08018
2907.12332 0.07957
2905.83755 0.07882
2904.55178 0.07813
2903.26601 0.07772
2901.98024 0.07753
2900.69447 0.07735
2899.40870 0.07705
2898.12294 0.07669
2896.83717 0.07631
2895.55140 0.07586
2894.26563 0.07521
2892.97986 0.07436
2891.69409 0.07341
2890.40832 0.07252
2889.12255 0.07183
2887.83678 0.07143
2886.55102 0.07132
2885.26525 0.07140
2883.97948 0.07149
2882.69371 0.07149
2881.40794 0.07140
2880.12217 0.07130
2878.83640 0.07123
2877.55063 0.07129
2876.26487 0.07162
2874.97910 0.07218
2873.69333 0.07270
2872.40756 0.07290
2871.12179 0.07281
2869.83602 0.07274
2868.55025 0.07286
2867.26448 0.07302
2865.97871 0.07296
2864.69295 0.07266
2863.40718 0.07233
2862.12141 0.07219
2860.83564 0.07224
2859.54987 0.07233
2858.26410 0.07231
2856.97833 0.07211
2855.69256 0.07180
2854.40680 0.07149
2853.12103 0.07124
2851.83526 0.07101
2850.54949 0.07068
2849.26372 0.07014
2847.97795 0.06936
2846.69218 0.06853
2845.40641 0.06785
2844.12064 0.06741
2842.83488 0.06708
2841.54911 0.06663
2840.26334 0.06590
2838.97757 0.06488
2837.69180 0.06371
2836.40603 0.06258
2835.12026 0.06164
2833.83449 0.06103
2832.54873 0.06081
2831.26296 0.06083
2829.97719 0.06082
2828.69142 0.06058
2827.40565 0.06012
2826.11988 0.05963
2824.83411 0.05928
2823.54834 0.05908
2822.26257 0.05895
2820.97681 0.05879
2819.69104 0.05859
2818.40527 0.05838
2817.11950 0.05817
2815.83373 0.05790
2814.54796 0.05748
2813.26219 0.05697
2811.97642 0.05657
2810.69066 0.05639
2809.40489 0.05635
2808.11912 0.05624
2806.83335 0.05596
2805.54758 0.05554
2804.26181 0.05516
2802.97604 0.05499
2801.69027 0.05512
2800.40450 0.05550
2799.11874 0.05592
2797.83297 0.05620
2796.54720 0.05624
2795.26143 0.05607
2793.97566 0.05573
2792.68989 0.05528
2791.40412 0.05487
2790.11835 0.05464
2788.83259 0.05466
2787.54682 0.05476
2786.26105 0.05479
2784.97528 0.05470
2783.68951 0.05460
2782.40374 0.05456
2781.11797 0.05452
2779.83220 0.05436
2778.54643 0.05415
2777.26067 0.05399
2775.97490 0.05395
2774.68913 0.05394
2773.40336 0.05384
2772.11759 0.05365
2770.83182 0.05351
2769.54605 0.05359
2768.26028 0.05390
2766.97452 0.05420
2765.68875 0.05424
2764.40298 0.05400
2763.11721 0.05365
2761.83144 0.05333
2760.54567 0.05308
2759.25990 0.05287
2757.97413 0.05268
2756.68836 0.05252
2755.40260 0.05242
2754.11683 0.05236
2752.83106 0.05233
2751.54529 0.05229
2750.25952 0.05225
2748.97375 0.05217
2747.68798 0.05198
2746.40221 0.05165
2745.11645 0.05131
2743.83068 0.05117
2742.54491 0.05129
2741.25914 0.05157
2739.97337 0.05178
2738.68760 0.05181
2737.40183 0.05166
2736.11606 0.05147
2734.83029 0.05134
2733.54453 0.05133
2732.25876 0.05141
2730.97299 0.05148
2729.68722 0.05143
2728.40145 0.05126
2727.11568 0.05106
2725.82991 0.05092
2724.54414 0.05082
2723.25838 0.05072
2721.97261 0.05062
2720.68684 0.05053
2719.40107 0.05047
2718.11530 0.05043
2716.82953 0.05039
2715.54376 0.05029
2714.25799 0.05010
2712.97222 0.04988
2711.68646 0.04967
2710.40069 0.04946
2709.11492 0.04922
2707.82915 0.04900
2706.54338 0.04888
2705.25761 0.04890
2703.97184 0.04902
2702.68607 0.04912
2701.40031 0.04912
2700.11454 0.04898
2698.82877 0.04870
2697.54300 0.04838
2696.25723 0.04813
2694.97146 0.04802
2693.68569 0.04806
2692.39992 0.04814
2691.11415 0.04820
2689.82839 0.04821
2688.54262 0.04822
2687.25685 0.04821
2685.97108 0.04815
2684.68531 0.04804
2683.39954 0.04795
2682.11377 0.04795
2680.82800 0.04804
2679.54224 0.04815
2678.25647 0.04815
2676.97070 0.04796
2675.68493 0.04763
2674.39916 0.04734
2673.11339 0.04722
2671.82762 0.04726
2670.54185 0.04736
2669.25608 0.04746
2667.97032 0.04751
2666.68455 0.04742
2665.39878 0.04719
2664.11301 0.04696
2662.82724 0.04692
2661.54147 0.04710
2660.25570 0.04736
2658.96993 0.04752
2657.68417 0.04750
2656.39840 0.04740
2655.11263 0.04732
2653.82686 0.04724
2652.54109 0.04707
2651.25532 0.04672
2649.96955 0.04622
2648.68378 0.04571
2647.39801 0.04532
2646.11225 0.04513
2644.82648 0.04509
2643.54071 0.04514
2642.25494 0.04516
2640.96917 0.04506
2639.68340 0.04487
2638.39763 0.04476
2637.11186 0.04486
2635.82609 0.04505
2634.54033 0.04508
2633.25456 0.04490
2631.96879 0.04471
2630.68302 0.04472
2629.39725 0.04498
2628.11148 0.04526
2626.82571 0.04529
2625.53994 0.04497
2624.25418 0.04443
2622.96841 0.04391
2621.68264 0.04349
2620.39687 0.04313
2619.11110 0.04273
2617.82533 0.04228
2616.53956 0.04186
2615.25379 0.04168
2613.96802 0.04182
2612.68226 0.04209
2611.39649 0.04212
2610.11072 0.04178
2608.82495 0.04126
2607.53918 0.04081
2606.25341 0.04061
2604.96764 0.04072
2603.68187 0.04106
2602.39611 0.04138
2601.11034 0.04140
2599.82457 0.04102
2598.53880 0.04041
2597.25303 0.03982
2595.96726 0.03945
2594.68149 0.03936
2593.39572 0.03948
2592.10995 0.03969
2590.82419 0.03986
2589.53842 0.03989
2588.25265 0.03972
2586.96688 0.03940
2585.68111 0.03903
2584.39534 0.03884
2583.10957 0.03892
2581.82380 0.03918
2580.53804 0.03937
2579.25227 0.03932
2577.96650 0.03912
2576.68073 0.03897
2575.39496 0.03898
2574.10919 0.03902
2572.82342 0.03897
2571.53765 0.03882
2570.25188 0.03875
2568.96612 0.03890
2567.68035 0.03919
2566.39458 0.03938
2565.10881 0.03926
2563.82304 0.03879
2562.53727 0.03820
2561.25150 0.03778
2559.96573 0.03762
2558.67997 0.03755
2557.39420 0.03739
2556.10843 0.03716
2554.82266 0.03700
2553.53689 0.03694
2552.25112 0.03689
2550.96535 0.03681
2549.67958 0.03664
2548.39381 0.03635
2547.10805 0.03600
2545.82228 0.03569
2544.53651 0.03550
2543.25074 0.03541
2541.96497 0.03542
2540.67920 0.03549
2539.39343 0.03553
2538.10766 0.03554
2536.82190 0.03559
2535.53613 0.03574
2534.25036 0.03591
2532.96459 0.03602
2531.67882 0.03606
2530.39305 0.03598
2529.10728 0.03568
2527.82151 0.03523
2526.53574 0.03492
2525.24998 0.03509
2523.96421 0.03570
2522.67844 0.03642
2521.39267 0.03686
2520.10690 0.03691
2518.82113 0.03671
2517.53536 0.03642
2516.24959 0.03609
2514.96383 0.03569
2513.67806 0.03531
2512.39229 0.03519
2511.10652 0.03552
2509.82075 0.03611
2508.53498 0.03648
2507.24921 0.03631
2505.96344 0.03577
2504.67767 0.03527
2503.39191 0.03500
2502.10614 0.03478
2500.82037 0.03448
2499.53460 0.03429
2498.24883 0.03446
2496.96306 0.03490
2495.67729 0.03530
2494.39152 0.03540
2493.10576 0.03522
2491.81999 0.03490
2490.53422 0.03456
2489.24845 0.03432
2487.96268 0.03428
2486.67691 0.03445
2485.39114 0.03469
2484.10537 0.03487
2482.81960 0.03492
2481.53384 0.03487
2480.24807 0.03474
2478.96230 0.03453
2477.67653 0.03432
2476.39076 0.03419
2475.10499 0.03417
2473.81922 0.03419
2472.53345 0.03417
2471.24769 0.03408
2469.96192 0.03394
2468.67615 0.03381
2467.39038 0.03368
2466.10461 0.03358
2464.81884 0.03353
2463.53307 0.03355
2462.24730 0.03367
2460.96153 0.03384
2459.67577 0.03405
2458.39000 0.03422
2457.10423 0.03425
2455.81846 0.03400
2454.53269 0.03354
2453.24692 0.03317
2451.96115 0.03323
2450.67538 0.03376
2449.38962 0.03449
2448.10385 0.03500
2446.81808 0.03507
2445.53231 0.03479
2444.24654 0.03442
2442.96077 0.03412
2441.67500 0.03395
2440.38923 0.03390
2439.10346 0.03395
2437.81770 0.03399
2436.53193 0.03389
2435.24616 0.03358
2433.96039 0.03325
2432.67462 0.03318
2431.38885 0.03349
2430.10308 0.03408
2428.81731 0.03459
2427.53155 0.03475
2426.24578 0.03450
2424.96001 0.03402
2423.67424 0.03345
2422.38847 0.03285
2421.10270 0.03227
2419.81693 0.03185
2418.53116 0.03168
2417.24539 0.03172
2415.95963 0.03191
2414.67386 0.03222
2413.38809 0.03259
2412.10232 0.03287
2410.81655 0.03289
2409.53078 0.03273
2408.24501 0.03249
2406.95924 0.03220
2405.67347 0.03191
2404.38771 0.03179
2403.10194 0.03200
2401.81617 0.03242
2400.53040 0.03280
2399.24463 0.03369
2397.95886 0.03304
2396.67309 0.03240
2395.38732 0.03221
2394.10156 0.03227
2392.81579 0.03245
2391.53002 0.03260
2390.24425 0.03258
2388.95848 0.03240
2387.67271 0.03216
2386.38694 0.03196
2385.10117 0.03187
2383.81540 0.03192
2382.52964 0.03208
2381.24387 0.03226
2379.95810 0.03236
2378.67233 0.03230
2377.38656 0.03216
2376.10079 0.03205
2374.81502 0.03210
2373.52925 0.03232
2372.24349 0.03253
2370.95772 0.03268
2369.67195 0.03270
2368.38618 0.03274
2367.10041 0.03295
2365.81464 0.03323
2364.52887 0.03326
2363.24310 0.03309
2361.95733 0.03296
2360.67157 0.03303
2359.38580 0.03311
2358.10003 0.03319
2356.81426 0.03326
2355.52849 0.03333
2354.24272 0.03350
2352.95695 0.03366
2351.67118 0.03385
2350.38542 0.03412
2349.09965 0.03425
2347.81388 0.03405
2346.52811 0.03375
2345.24234 0.03351
2343.95657 0.03338
2342.67080 0.03325
2341.38503 0.03327
2340.09926 0.03350
2338.81350 0.03381
2337.52773 0.03407
2336.24196 0.03405
2334.95619 0.03382
2333.67042 0.03373
2332.38465 0.03362
2331.09888 0.03358
2329.81311 0.03366
2328.52735 0.03369
2327.24158 0.03395
2325.95581 0.03432
2324.67004 0.03449
2323.38427 0.03456
2322.09850 0.03458
2320.81273 0.03441
2319.52696 0.03435
2318.24119 0.03427
2316.95543 0.03398
2315.66966 0.03361
2314.38389 0.03314
2313.09812 0.03264
2311.81235 0.03223
2310.52658 0.03181
2309.24081 0.03141
2307.95504 0.03101
2306.66928 0.03056
2305.38351 0.03024
2304.09774 0.03009
2302.81197 0.03011
2301.52620 0.03017
2300.24043 0.03015
2298.95466 0.03006
2297.66889 0.03001
2296.38312 0.03013
2295.09736 0.03047
2293.81159 0.03087
2292.52582 0.03108
2291.24005 0.03087
2289.95428 0.03033
2288.66851 0.02970
2287.38274 0.02915
2286.09697 0.02864
2284.81121 0.02812
2283.52544 0.02773
2282.23967 0.02767
2280.95390 0.02797
2279.66813 0.02832
2278.38236 0.02837
2277.09659 0.02795
2275.81082 0.02730
2274.52505 0.02687
2273.23929 0.02697
2271.95352 0.02747
2270.66775 0.02789
2269.38198 0.02779
2268.09621 0.02712
2266.81044 0.02629
2265.52467 0.02584
2264.23890 0.02590
2262.95314 0.02608
2261.66737 0.02581
2260.38160 0.02491
2259.09583 0.02373
2257.81006 0.02278
2256.52429 0.02228
2255.23852 0.02216
2253.95275 0.02235
2252.66698 0.02275
2251.38122 0.02302
2250.09545 0.02317
2248.80968 0.02428
2247.52391 0.02432
2246.23814 0.02441
2244.95237 0.02466
2243.66660 0.02471
2242.38083 0.02415
2241.09507 0.02304
2239.80930 0.02195
2238.52353 0.02148
2237.23776 0.02179
2235.95199 0.02257
2234.66622 0.02333
2233.38045 0.02366
2232.09468 0.02344
2230.80891 0.02290
2229.52315 0.02230
2228.23738 0.02172
2226.95161 0.02107
2225.66584 0.02046
2224.38007 0.02020
2223.09430 0.02047
2221.80853 0.02109
2220.52276 0.02165
2219.23700 0.02185
2217.95123 0.02160
2216.66546 0.02095
2215.37969 0.02023
2214.09392 0.01982
2212.80815 0.01989
2211.52238 0.02028
2210.23661 0.02081
2208.95084 0.02137
2207.66508 0.02173
2206.37931 0.02154
2205.09354 0.02082
2203.80777 0.02011
2202.52200 0.01984
2201.23623 0.01980
2199.95046 0.01957
2198.66469 0.01911
2197.37893 0.01865
2196.09316 0.01830
2194.80739 0.01806
2193.52162 0.01812
2192.23585 0.01862
2190.95008 0.01927
2189.66431 0.01943
2188.37854 0.01861
2187.09277 0.01689
2185.80701 0.01485
2184.52124 0.01322
2183.23547 0.01240
2181.94970 0.01235
2180.66393 0.01285
2179.37816 0.01370
2178.09239 0.01455
2176.80662 0.01486
2175.52085 0.01438
2174.23509 0.01349
2172.94932 0.01290
2171.66355 0.01315
2170.37778 0.01426
2169.09201 0.01563
2167.80624 0.01630
2166.52047 0.01567
2165.23470 0.01407
2163.94894 0.01234
2162.66317 0.01095
2161.37740 0.00969
2160.09163 0.00832
2158.80586 0.00707
2157.52009 0.00641
2156.23432 0.00650
2154.94855 0.00699
2153.66278 0.00757
2152.37702 0.00832
2151.09125 0.00955
2149.80548 0.01122
2148.51971 0.01287
2147.23394 0.01414
2145.94817 0.01518
2144.66240 0.01623
2143.37663 0.01718
2142.09087 0.01756
2140.80510 0.01704
2139.51933 0.01577
2138.23356 0.01440
2136.94779 0.01366
2135.66202 0.01383
2134.37625 0.01458
2133.09048 0.01535
2131.80471 0.01583
2130.51895 0.01610
2129.23318 0.01627
2127.94741 0.01627
2126.66164 0.01599
2125.37587 0.01560
2124.09010 0.01542
2122.80433 0.01556
2121.51856 0.01581
2120.23280 0.01606
2118.94703 0.01642
2117.66126 0.01697
2116.37549 0.01749
2115.08972 0.01769
2113.80395 0.01759
2112.51818 0.01741
2111.23241 0.01736
2109.94664 0.01747
2108.66088 0.01774
2107.37511 0.01808
2106.08934 0.01834
2104.80357 0.01839
2103.51780 0.01821
2102.23203 0.01779
2100.94626 0.01723
2099.66049 0.01755
2098.37473 0.01783
2097.08896 0.01753
2095.80319 0.01687
2094.51742 0.01609
2093.23165 0.01545
2091.94588 0.01515
2090.66011 0.01516
2089.37434 0.01534
2088.08857 0.01559
2086.80281 0.01588
2085.51704 0.01620
2084.23127 0.01653
2082.94550 0.01689
2081.65973 0.01723
2080.37396 0.01739
2079.08819 0.01714
2077.80242 0.01636
2076.51666 0.01524
2075.23089 0.01423
2073.94512 0.01377
2072.65935 0.01400
2071.37358 0.01465
2070.08781 0.01528
2068.80204 0.01562
2067.51627 0.01561
2066.23050 0.01531
2064.94474 0.01476
2063.65897 0.01400
2062.37320 0.01312
2061.08743 0.01232
2059.80166 0.01192
2058.51589 0.01214
2057.23012 0.01277
2055.94435 0.01324
2054.65859 0.01316
2053.37282 0.01274
2052.08705 0.01252
2050.80128 0.01273
2049.51551 0.01311
2048.22974 0.01318
2046.94397 0.01268
2045.65820 0.01164
2044.37243 0.01032
2043.08667 0.00923
2041.80090 0.00910
2040.51513 0.01032
2039.22936 0.01243
2037.94359 0.01423
2036.65782 0.01461
2035.37205 0.01342
2034.08628 0.01143
2032.80052 0.00952
2031.51475 0.00799
2030.22898 0.00670
2028.94321 0.00563
2027.65744 0.00514
2026.37167 0.00547
2025.08590 0.00627
2023.80013 0.00685
2022.51436 0.00684
2021.22860 0.00646
2019.94283 0.00618
2018.65706 0.00639
2017.37129 0.00727
2016.08552 0.00866
2014.79975 0.01005
2013.51398 0.01091
2012.22821 0.01116
2010.94245 0.01105
2009.65668 0.01079
2008.37091 0.01040
2007.08514 0.00998
2005.79937 0.00978
2004.51360 0.00985
2003.22783 0.00998
2001.94206 0.01004
2000.65629 0.01030
1999.37053 0.01099
1998.08476 0.01183
1996.79899 0.01227
1995.51322 0.01213
1994.22745 0.01182
1992.94168 0.01189
1991.65591 0.01243
1990.37014 0.01300
1989.08438 0.01314
1987.79861 0.01280
1986.51284 0.01238
1985.22707 0.01224
1983.94130 0.01235
1982.65553 0.01248
1981.36976 0.01257
1980.08399 0.01283
1978.79822 0.01339
1977.51246 0.01399
1976.22669 0.01425
1974.94092 0.01411
1973.65515 0.01397
1972.36938 0.01424
1971.08361 0.01497
1969.79784 0.01582
1968.51207 0.01631
1967.22631 0.01619
1965.94054 0.01561
1964.65477 0.01493
1963.36900 0.01440
1962.08323 0.01399
1960.79746 0.01361
1959.51169 0.01336
1958.22592 0.01337
1956.94015 0.01362
1955.65439 0.01397
1954.36862 0.01433
1953.08285 0.01473
1951.79708 0.01516
1950.51131 0.01556
1949.22554 0.01585
1947.93977 0.01595
1946.65400 0.01584
1945.36823 0.01567
1944.08247 0.01569
1942.79670 0.01607
1941.51093 0.01673
1940.22516 0.01750
1938.93939 0.01820
1937.65362 0.01872
1936.36785 0.01889
1935.08208 0.01871
1933.79632 0.01839
1932.51055 0.01822
1931.22478 0.01826
1929.93901 0.01828
1928.65324 0.01812
1927.36747 0.01778
1926.08170 0.01743
1924.79593 0.01727
1923.51016 0.01743
1922.22440 0.01792
1920.93863 0.01855
1919.65286 0.01898
1918.36709 0.01907
1917.08132 0.01888
1915.79555 0.01857
1914.50978 0.01835
1913.22401 0.01839
1911.93825 0.01866
1910.65248 0.01892
1909.36671 0.01898
1908.08094 0.01880
1906.79517 0.01847
1905.50940 0.01807
1904.22363 0.01766
1902.93786 0.01734
1901.65209 0.01725
1900.36633 0.01742
1899.08056 0.01778
1897.79479 0.01818
1896.50902 0.01851
1895.22325 0.01875
1893.93748 0.01895
1892.65171 0.01912
1891.36594 0.01919
1890.08018 0.01906
1888.79441 0.01876
1887.50864 0.01841
1886.22287 0.01821
1884.93710 0.01826
1883.65133 0.01847
1882.36556 0.01863
1881.07979 0.01857
1879.79402 0.01830
1878.50826 0.01803
1877.22249 0.01797
1875.93672 0.01816
1874.65095 0.01844
1873.36518 0.01866
1872.07941 0.01877
1870.79364 0.01878
1869.50787 0.01866
1868.22211 0.01845
1866.93634 0.01824
1865.65057 0.01811
1864.36480 0.01808
1863.07903 0.01812
1861.79326 0.01815
1860.50749 0.01813
1859.22172 0.01805
1857.93595 0.01794
1856.65019 0.01790
1855.36442 0.01800
1854.07865 0.01824
1852.79288 0.01852
1851.50711 0.01873
1850.22134 0.01885
1848.93557 0.01895
1847.64980 0.01905
1846.36404 0.01912
1845.07827 0.01913
1843.79250 0.01917
1842.50673 0.01921
1841.22096 0.01920
1839.93519 0.01910
1838.64942 0.01900
1837.36365 0.01894
1836.07788 0.01893
1834.79212 0.01894
1833.50635 0.01896
1832.22058 0.01894
1830.93481 0.01890
1829.64904 0.01894
1828.36327 0.01909
1827.07750 0.01930
1825.79173 0.01951
1824.50597 0.01971
1823.22020 0.01987
1821.93443 0.01992
1820.64866 0.01980
1819.36289 0.01955
1818.07712 0.01921
1816.79135 0.01888
1815.50558 0.01862
1814.21981 0.01845
1812.93405 0.01835
1811.64828 0.01828
1810.36251 0.01825
1809.07674 0.01828
1807.79097 0.01838
1806.50520 0.01858
1805.21943 0.01885
1803.93366 0.01909
1802.64790 0.01917
1801.36213 0.01907
1800.07636 0.01888
1798.79059 0.01872
1797.50482 0.01868
1796.21905 0.01879
1794.93328 0.01897
1793.64751 0.01913
1792.36174 0.01929
1791.07598 0.01952
1789.79021 0.01975
1788.50444 0.01989
1787.21867 0.01989
1785.93290 0.01980
1784.64713 0.01971
1783.36136 0.01967
1782.07559 0.01962
1780.78983 0.01954
1779.50406 0.01949
1778.21829 0.01953
1776.93252 0.01968
1775.64675 0.01986
1774.36098 0.01996
1773.07521 0.01995
1771.78944 0.01994
1770.50367 0.01992
1769.21791 0.01985
1767.93214 0.01976
1766.64637 0.01978
1765.36060 0.01991
1764.07483 0.02005
1762.78906 0.02017
1761.50329 0.02030
1760.21752 0.02038
1758.93176 0.02036
1757.64599 0.02023
1756.36022 0.02011
1755.07445 0.02005
1753.78868 0.01998
1752.50291 0.01989
1751.21714 0.01991
1749.93137 0.02005
1748.64560 0.02018
1747.35984 0.02020
1746.07407 0.02016
1744.78830 0.02017
1743.50253 0.02026
1742.21676 0.02039
1740.93099 0.02052
1739.64522 0.02069
1738.35945 0.02093
1737.07369 0.02111
1735.78792 0.02109
1734.50215 0.02098
1733.21638 0.02099
1731.93061 0.02105
1730.64484 0.02101
1729.35907 0.02094
1728.07330 0.02097
1726.78753 0.02108
1725.50177 0.02116
1724.21600 0.02123
1722.93023 0.02143
1721.64446 0.02182
1720.35869 0.02227
1719.07292 0.02264
1717.78715 0.02295
1716.50138 0.02330
1715.21561 0.02368
1713.92985 0.02405
1712.64408 0.02447
1711.35831 0.02500
1710.07254 0.02559
1708.78677 0.02617
1707.50100 0.02670
1706.21523 0.02722
1704.92946 0.02784
1703.64370 0.02855
1702.35793 0.02916
1701.07216 0.02975
1699.78639 0.03056
1698.50062 0.03151
1697.21485 0.03229
1695.92908 0.03293
1694.64331 0.03367
1693.35754 0.03443
1692.07178 0.03503
1690.78601 0.03558
1689.50024 0.03632
1688.21447 0.03719
1686.92870 0.03797
1685.64293 0.03860
1684.35716 0.03931
1683.07139 0.04021
1681.78563 0.04111
1680.49986 0.04185
1679.21409 0.04254
1677.92832 0.04326
1676.64255 0.04396
1675.35678 0.04468
1674.07101 0.04545
1672.78524 0.04622
1671.49947 0.04692
1670.21371 0.04764
1668.92794 0.04842
1667.64217 0.04923
1666.35640 0.04996
1665.07063 0.05061
1663.78486 0.05128
1662.49909 0.05202
1661.21332 0.05277
1659.92756 0.05344
1658.64179 0.05409
1657.35602 0.05480
1656.07025 0.05549
1654.78448 0.05596
1653.49871 0.05633
1652.21294 0.05687
1650.92717 0.05748
1649.64140 0.05784
1648.35564 0.05790
1647.06987 0.05793
1645.78410 0.05809
1644.49833 0.05826
1643.21256 0.05830
1641.92679 0.05820
1640.64102 0.05808
1639.35525 0.05802
1638.06949 0.05798
1636.78372 0.05792
1635.49795 0.05786
1634.21218 0.05782
1632.92641 0.05770
1631.64064 0.05744
1630.35487 0.05715
1629.06910 0.05692
1627.78333 0.05676
1626.49757 0.05663
1625.21180 0.05649
1623.92603 0.05633
1622.64026 0.05624
1621.35449 0.05622
1620.06872 0.05616
1618.78295 0.05595
1617.49718 0.05570
1616.21142 0.05560
1614.92565 0.05569
1613.63988 0.05582
1612.35411 0.05588
1611.06834 0.05595
1609.78257 0.05606
1608.49680 0.05619
1607.21103 0.05633
1605.92526 0.05645
1604.63950 0.05655
1603.35373 0.05664
1602.06796 0.05673
1600.78219 0.05686
1599.49642 0.05701
1598.21065 0.05716
1596.92488 0.05731
1595.63911 0.05746
1594.35335 0.05764
1593.06758 0.05786
1591.78181 0.05809
1590.49604 0.05830
1589.21027 0.05848
1587.92450 0.05860
1586.63873 0.05869
1585.35296 0.05876
1584.06719 0.05885
1582.78143 0.05898
1581.49566 0.05918
1580.20989 0.05947
1578.92412 0.05975
1577.63835 0.05994
1576.35258 0.06013
1575.06681 0.06046
1573.78104 0.06084
1572.49528 0.06106
1571.20951 0.06116
1569.92374 0.06129
1568.63797 0.06154
1567.35220 0.06180
1566.06643 0.06198
1564.78066 0.06217
1563.49489 0.06246
1562.20912 0.06275
1560.92336 0.06291
1559.63759 0.06301
1558.35182 0.06324
1557.06605 0.06352
1555.78028 0.06359
1554.49451 0.06347
1553.20874 0.06336
1551.92297 0.06332
1550.63721 0.06331
1549.35144 0.06333
1548.06567 0.06338
1546.77990 0.06339
1545.49413 0.06335
1544.20836 0.06330
1542.92259 0.06320
1541.63682 0.06294
1540.35105 0.06254
1539.06529 0.06219
1537.77952 0.06196
1536.49375 0.06171
1535.20798 0.06138
1533.92221 0.06112
1532.63644 0.06107
1531.35067 0.06117
1530.06490 0.06130
1528.77914 0.06146
1527.49337 0.06169
1526.20760 0.06204
1524.92183 0.06248
1523.63606 0.06288
1522.35029 0.06321
1521.06452 0.06359
1519.77875 0.06411
1518.49298 0.06465
1517.20722 0.06518
1515.92145 0.06581
1514.63568 0.06662
1513.34991 0.06754
1512.06414 0.06860
1510.77837 0.06980
1509.49260 0.07100
1508.20683 0.07205
1506.92107 0.07297
1505.63530 0.07390
1504.34953 0.07481
1503.06376 0.07555
1501.77799 0.07613
1500.49222 0.07666
1499.20645 0.07717
1497.92068 0.07759
1496.63491 0.07795
1495.34915 0.07838
1494.06338 0.07889
1492.77761 0.07944
1491.49184 0.08002
1490.20607 0.08073
1488.92030 0.08160
1487.63453 0.08258
1486.34876 0.08364
1485.06299 0.08475
1483.77723 0.08588
1482.49146 0.08701
1481.20569 0.08816
1479.91992 0.08940
1478.63415 0.09073
1477.34838 0.09211
1476.06261 0.09349
1474.77684 0.09475
1473.49108 0.09584
1472.20531 0.09683
1470.91954 0.09777
1469.63377 0.09859
1468.34800 0.09924
1467.06223 0.09976
1465.77646 0.10023
1464.49069 0.10072
1463.20492 0.10129
1461.91916 0.10193
1460.63339 0.10265
1459.34762 0.10341
1458.06185 0.10417
1456.77608 0.10499
1455.49031 0.10582
1454.20454 0.10646
1452.91877 0.10684
1451.63301 0.10708
1450.34724 0.10730
1449.06147 0.10750
1447.77570 0.10763
1446.48993 0.10763
1445.20416 0.10746
1443.91839 0.10713
1442.63262 0.10674
1441.34685 0.10637
1440.06109 0.10600
1438.77532 0.10558
1437.48955 0.10516
1436.20378 0.10493
1434.91801 0.10503
1433.63224 0.10541
1432.34647 0.10601
1431.06070 0.10684
1429.77494 0.10794
1428.48917 0.10927
1427.20340 0.11077
1425.91763 0.11237
1424.63186 0.11404
1423.34609 0.11574
1422.06032 0.11737
1420.77455 0.11881
1419.48878 0.12011
1418.20302 0.12131
1416.91725 0.12231
1415.63148 0.12302
1414.34571 0.12347
1413.05994 0.12371
1411.77417 0.12375
1410.48840 0.12353
1409.20263 0.12304
1407.91687 0.12222
1406.63110 0.12109
1405.34533 0.11969
1404.05956 0.11810
1402.77379 0.11634
1401.48802 0.11440
1400.20225 0.11232
1398.91648 0.11019
1397.63071 0.10800
1396.34495 0.10569
1395.05918 0.10327
1393.77341 0.10085
1392.48764 0.09852
1391.20187 0.09628
1389.91610 0.09411
1388.63033 0.09201
1387.34456 0.08998
1386.05880 0.08801
1384.77303 0.08602
1383.48726 0.08398
1382.20149 0.08192
1380.91572 0.07988
1379.62995 0.07792
1378.34418 0.07603
1377.05841 0.07411
1375.77264 0.07208
1374.48688 0.06992
1373.20111 0.06772
1371.91534 0.06560
1370.62957 0.06362
1369.34380 0.06178
1368.05803 0.06009
1366.77226 0.05850
1365.48649 0.05699
1364.20073 0.05552
1362.91496 0.05411
1361.62919 0.05279
1360.34342 0.05156
1359.05765 0.05049
1357.77188 0.04958
1356.48611 0.04878
1355.20034 0.04802
1353.91457 0.04723
1352.62881 0.04646
1351.34304 0.04576
1350.05727 0.04514
1348.77150 0.04455
1347.48573 0.04395
1346.19996 0.04333
1344.91419 0.04274
1343.62842 0.04220
1342.34266 0.04169
1341.05689 0.04117
1339.77112 0.04065
1338.48535 0.04015
1337.19958 0.03966
1335.91381 0.03916
1334.62804 0.03868
1333.34227 0.03823
1332.05650 0.03784
1330.77074 0.03748
1329.48497 0.03713
1328.19920 0.03673
1326.91343 0.03630
1325.62766 0.03586
1324.34189 0.03542
1323.05612 0.03504
1321.77035 0.03471
1320.48459 0.03442
1319.19882 0.03416
1317.91305 0.03389
1316.62728 0.03360
1315.34151 0.03330
1314.05574 0.03299
1312.76997 0.03266
1311.48420 0.03235
1310.19843 0.03206
1308.91267 0.03180
1307.62690 0.03157
1306.34113 0.03132
1305.05536 0.03106
1303.76959 0.03077
1302.48382 0.03049
1301.19805 0.03020
1299.91228 0.02989
1298.62652 0.02957
1297.34075 0.02926
1296.05498 0.02897
1294.76921 0.02872
1293.48344 0.02851
1292.19767 0.02835
1290.91190 0.02822
1289.62613 0.02811
1288.34036 0.02797
1287.05460 0.02781
1285.76883 0.02767
1284.48306 0.02756
1283.19729 0.02750
1281.91152 0.02746
1280.62575 0.02740
1279.33998 0.02729
1278.05421 0.02714
1276.76845 0.02694
1275.48268 0.02674
1274.19691 0.02658
1272.91114 0.02645
1271.62537 0.02634
1270.33960 0.02624
1269.05383 0.02613
1267.76806 0.02607
1266.48229 0.02606
1265.19653 0.02605
1263.91076 0.02600
1262.62499 0.02589
1261.33922 0.02577
1260.05345 0.02569
1258.76768 0.02565
1257.48191 0.02563
1256.19614 0.02560
1254.91037 0.02555
1253.62461 0.02549
1252.33884 0.02543
1251.05307 0.02536
1249.76730 0.02529
1248.48153 0.02521
1247.19576 0.02514
1245.90999 0.02510
1244.62422 0.02509
1243.33846 0.02507
1242.05269 0.02501
1240.76692 0.02493
1239.48115 0.02486
1238.19538 0.02482
1236.90961 0.02478
1235.62384 0.02472
1234.33807 0.02464
1233.05230 0.02457
1231.76654 0.02452
1230.48077 0.02443
1229.19500 0.02425
1227.90923 0.02398
1226.62346 0.02372
1225.33769 0.02356
1224.05192 0.02348
1222.76615 0.02339
1221.48039 0.02324
1220.19462 0.02303
1218.90885 0.02281
1217.62308 0.02262
1216.33731 0.02246
1215.05154 0.02233
1213.76577 0.02223
1212.48000 0.02218
1211.19423 0.02215
1209.90847 0.02213
1208.62270 0.02211
1207.33693 0.02212
1206.05116 0.02213
1204.76539 0.02214
1203.47962 0.02213
1202.19385 0.02204
1200.90808 0.02186
1199.62232 0.02183
1198.33655 0.02182
1197.05078 0.02177
1195.76501 0.02168
1194.47924 0.02158
1193.19347 0.02150
1191.90770 0.02143
1190.62193 0.02134
1189.33616 0.02122
1188.05040 0.02110
1186.76463 0.02106
1185.47886 0.02108
1184.19309 0.02113
1182.90732 0.02117
1181.62155 0.02120
1180.33578 0.02122
1179.05001 0.02126
1177.76425 0.02135
1176.47848 0.02147
1175.19271 0.02160
1173.90694 0.02173
1172.62117 0.02185
1171.33540 0.02198
1170.04963 0.02215
1168.76386 0.02236
1167.47809 0.02264
1166.19233 0.02291
1164.90656 0.02314
1163.62079 0.02333
1162.33502 0.02353
1161.04925 0.02377
1159.76348 0.02407
1158.47771 0.02442
1157.19194 0.02484
1155.90618 0.02534
1154.62041 0.02587
1153.33464 0.02639
1152.04887 0.02687
1150.76310 0.02732
1149.47733 0.02776
1148.19156 0.02824
1146.90579 0.02882
1145.62002 0.02955
1144.33426 0.03043
1143.04849 0.03140
1141.76272 0.03241
1140.47695 0.03348
1139.19118 0.03464
1137.90541 0.03595
1136.61964 0.03742
1135.33387 0.03904
1134.04811 0.04079
1132.76234 0.04267
1131.47657 0.04472
1130.19080 0.04700
1128.90503 0.04952
1127.61926 0.05228
1126.33349 0.05527
1125.04772 0.05848
1123.76195 0.06188
1122.47619 0.06541
1121.19042 0.06902
1119.90465 0.07268
1118.61888 0.07638
1117.33311 0.08013
1116.04734 0.08390
1114.76157 0.08764
1113.47580 0.09132
1112.19004 0.09491
1110.90427 0.09843
1109.61850 0.10192
1108.33273 0.10541
1107.04696 0.10887
1105.76119 0.11231
1104.47542 0.11571
1103.18965 0.11901
1101.90388 0.12215
1100.61812 0.12515
1099.33235 0.12808
1098.04658 0.13099
1096.76081 0.13385
1095.47504 0.13657
1094.18927 0.13911
1092.90350 0.14148
1091.61773 0.14373
1090.33197 0.14593
1089.04620 0.14811
1087.76043 0.15027
1086.47466 0.15241
1085.18889 0.15455
1083.90312 0.15671
1082.61735 0.15894
1081.33158 0.16125
1080.04581 0.16368
1078.76005 0.16627
1077.47428 0.16909
1076.18851 0.17216
1074.90274 0.17542
1073.61697 0.17873
1072.33120 0.18203
1071.04543 0.18536
1069.75966 0.18883
1068.47390 0.19247
1067.18813 0.19625
1065.90236 0.20010
1064.61659 0.20394
1063.33082 0.20774
1062.04505 0.21152
1060.75928 0.21530
1059.47351 0.21910
1058.18774 0.22286
1056.90198 0.22648
1055.61621 0.22994
1054.33044 0.23336
1053.04467 0.23687
1051.75890 0.24052
1050.47313 0.24426
1049.18736 0.24808
1047.90159 0.25201
1046.61583 0.25611
1045.33006 0.26041
1044.04429 0.26485
1042.75852 0.26932
1041.47275 0.27375
1040.18698 0.27815
1038.90121 0.28261
1037.61544 0.28719
1036.32967 0.29186
1035.04391 0.29653
1033.75814 0.30111
1032.47237 0.30551
1031.18660 0.30964
1029.90083 0.31345
1028.61506 0.31694
1027.32929 0.32008
1026.04352 0.32285
1024.75775 0.32527
1023.47199 0.32733
1022.18622 0.32898
1020.90045 0.33016
1019.61468 0.33085
1018.32891 0.33105
1017.04314 0.33079
1015.75737 0.33004
1014.47160 0.32873
1013.18584 0.32681
1011.90007 0.32429
1010.61430 0.32120
1009.32853 0.31756
1008.04276 0.31335
1006.75699 0.30859
1005.47122 0.30336
1004.18545 0.29773
1002.89968 0.29167
1001.61392 0.28515
1000.32815 0.27820
999.04238 0.27090
997.75661 0.26331
996.47084 0.25546
995.18507 0.24739
993.89930 0.23921
992.61353 0.23103
991.32777 0.22291
990.04200 0.21491
988.75623 0.20705
987.47046 0.19936
986.18469 0.19184
984.89892 0.18449
983.61315 0.17739
982.32738 0.17065
981.04161 0.16433
979.75585 0.15843
978.47008 0.15289
977.18431 0.14773
975.89854 0.14305
974.61277 0.13892
973.32700 0.13541
972.04123 0.13253
970.75546 0.13026
969.46970 0.12871
968.18393 0.12795
966.89816 0.12801
965.61239 0.12866
964.32662 0.12958
963.04085 0.13040
961.75508 0.13084
960.46931 0.13071
959.18354 0.12987
957.89778 0.12827
956.61201 0.12601
955.32624 0.12333
954.04047 0.12050
952.75470 0.11764
951.46893 0.11474
950.18316 0.11175
948.89739 0.10868
947.61163 0.10561
946.32586 0.10263
945.04009 0.09978
943.75432 0.09706
942.46855 0.09444
941.18278 0.09186
939.89701 0.08933
938.61124 0.08687
937.32547 0.08452
936.03971 0.08231
934.75394 0.08027
933.46817 0.07845
932.18240 0.07681
930.89663 0.07529
929.61086 0.07386
928.32509 0.07252
927.03932 0.07127
925.75356 0.07009
924.46779 0.06891
923.18202 0.06774
921.89625 0.06661
920.61048 0.06553
919.32471 0.06451
918.03894 0.06356
916.75317 0.06274
915.46740 0.06210
914.18164 0.06160
912.89587 0.06109
911.61010 0.06046
910.32433 0.05968
909.03856 0.05884
907.75279 0.05810
906.46702 0.05754
905.18125 0.05715
903.89549 0.05679
902.60972 0.05633
901.32395 0.05577
900.03818 0.05518
898.75241 0.05460
897.46664 0.05406
896.18087 0.05355
894.89510 0.05309
893.60933 0.05269
892.32357 0.05240
891.03780 0.05229
889.75203 0.05241
888.46626 0.05278
887.18049 0.05346
885.89472 0.05460
884.60895 0.05647
883.32318 0.05925
882.03742 0.06268
880.75165 0.06612
879.46588 0.06891
878.18011 0.07082
876.89434 0.07226
875.60857 0.07379
874.32280 0.07558
873.03703 0.07728
871.75126 0.07826
870.46550 0.07814
869.17973 0.07692
867.89396 0.07485
866.60819 0.07225
865.32242 0.06942
864.03665 0.06659
862.75088 0.06394
861.46511 0.06154
860.17935 0.05942
858.89358 0.05757
857.60781 0.05595
856.32204 0.05453
855.03627 0.05331
853.75050 0.05228
852.46473 0.05143
851.17896 0.05072
849.89319 0.05010
848.60743 0.04954
847.32166 0.04902
846.03589 0.04853
844.75012 0.04804
843.46435 0.04755
842.17858 0.04709
840.89281 0.04673
839.60704 0.04648
838.32128 0.04625
837.03551 0.04595
835.74974 0.04555
834.46397 0.04509
833.17820 0.04464
831.89243 0.04423
830.60666 0.04390
829.32089 0.04368
828.03512 0.04355
826.74936 0.04344
825.46359 0.04327
824.17782 0.04307
822.89205 0.04288
821.60628 0.04278
820.32051 0.04279
819.03474 0.04285
817.74897 0.04288
816.46321 0.04280
815.17744 0.04263
813.89167 0.04246
812.60590 0.04235
811.32013 0.04229
810.03436 0.04220
808.74859 0.04205
807.46282 0.04185
806.17705 0.04162
804.89129 0.04141
803.60552 0.04127
802.31975 0.04125
801.03398 0.04128
799.74821 0.04132
798.46244 0.04130
797.17667 0.04125
795.89090 0.04121
794.60513 0.04115
793.31937 0.04101
792.03360 0.04080
790.74783 0.04061
789.46206 0.04055
788.17629 0.04063
786.89052 0.04081
785.60475 0.04097
784.31898 0.04105
783.03322 0.04101
781.74745 0.04089
780.46168 0.04073
779.17591 0.04054
777.89014 0.04033
776.60437 0.04015
775.31860 0.04005
774.03283 0.04007
772.74706 0.04019
771.46130 0.04032
770.17553 0.04042
768.88976 0.04047
767.60399 0.04047
766.31822 0.04046
765.03245 0.04046
763.74668 0.04046
762.46091 0.04042
761.17515 0.04037
759.88938 0.04034
758.60361 0.04035
757.31784 0.04041
756.03207 0.04050
754.74630 0.04061
753.46053 0.04070
752.17476 0.04069
750.88899 0.04051
749.60323 0.04021
748.31746 0.03993
747.03169 0.03978
745.74592 0.03976
744.46015 0.03974
743.17438 0.03966
741.88861 0.03951
740.60284 0.03939
739.31708 0.03937
738.03131 0.03943
736.74554 0.03950
735.45977 0.03952
734.17400 0.03951
732.88823 0.03946
731.60246 0.03939
730.31669 0.03929
729.03092 0.03919
727.74516 0.03916
726.45939 0.03918
725.17362 0.03923
723.88785 0.03948
722.60208 0.03934
721.31631 0.03921
720.03054 0.03917
718.74477 0.03912
717.45901 0.03907
716.17324 0.03901
714.88747 0.03894
713.60170 0.03883
712.31593 0.03871
711.03016 0.03864
709.74439 0.03863
708.45862 0.03865
707.17285 0.03865
705.88709 0.03859
704.60132 0.03850
703.31555 0.03844
702.02978 0.03841
700.74401 0.03839
699.45824 0.03835
698.17247 0.03826
696.88670 0.03814
695.60094 0.03802
694.31517 0.03794
693.02940 0.03792
691.74363 0.03792
690.45786 0.03793
689.17209 0.03795
687.88632 0.03797
686.60055 0.03799
685.31478 0.03794
684.02902 0.03778
682.74325 0.03757
681.45748 0.03739
680.17171 0.03731
678.88594 0.03731
677.60017 0.03733
676.31440 0.03734
675.02863 0.03737
673.74287 0.03749
672.45710 0.03774
671.17133 0.03813
669.88556 0.03848
668.59979 0.03844
667.31402 0.03844
666.02825 0.03855
664.74248 0.03825
663.45671 0.03788
662.17095 0.03760
660.88518 0.03739
659.59941 0.03722
658.31364 0.03708
657.02787 0.03692
655.74210 0.03671
654.45633 0.03650
653.17056 0.03633
651.88480 0.03624
650.59903 0.03623
649.31326 0.03627
648.02749 0.03632
646.74172 0.03635
645.45595 0.03634
644.17018 0.03633
642.88441 0.03636
641.59864 0.03641
640.31288 0.03650
639.02711 0.03666
637.74134 0.03696
636.45557 0.03737
635.16980 0.03786
633.88403 0.03841
632.59826 0.03890
631.31249 0.03889
630.02673 0.03868
628.74096 0.04054
627.45519 0.04251
626.16942 0.04582
624.88365 0.04985
623.59788 0.05365
622.31211 0.05727
621.02634 0.06103
619.74057 0.06458
618.45481 0.06708
617.16904 0.06842
615.88327 0.06961
614.59750 0.07216
613.31173 0.07683
612.02596 0.08292
610.74019 0.08889
609.45442 0.09413
608.16866 0.09957
606.88289 0.10602
605.59712 0.11290
604.31135 0.11877
603.02558 0.12244
601.73981 0.12347
600.45404 0.12203
599.16827 0.11886
597.88250 0.11491
596.59674 0.11102
595.31097 0.10760
594.02520 0.10469
592.73943 0.10226
591.45366 0.10037
590.16789 0.09911
588.88212 0.09856
587.59635 0.09873
586.31059 0.09958
585.02482 0.10110
583.73905 0.10321
582.45328 0.10586
581.16751 0.10893
579.88174 0.11229
578.59597 0.11573
577.31020 0.11911
576.02443 0.12237
574.73867 0.12552
573.45290 0.12866
572.16713 0.13194
570.88136 0.13557
569.59559 0.13966
568.30982 0.14414
567.02405 0.14876
565.73828 0.15327
564.45251 0.15740
563.16675 0.16074
561.88098 0.16268
560.59521 0.16271
559.30944 0.16066
558.02367 0.15677
556.73790 0.15148
555.45213 0.14521
554.16636 0.13834
552.88060 0.13118
551.59483 0.12402
550.30906 0.11710
549.02329 0.11066
547.73752 0.10488
546.45175 0.09975
545.16598 0.09516
543.88021 0.09100
542.59444 0.08728
541.30868 0.08403
540.02291 0.08115
538.73714 0.07845
537.45137 0.07580
536.16560 0.07318
534.87983 0.07067
533.59406 0.06837
532.30829 0.06628
531.02253 0.06438
529.73676 0.06261
528.45099 0.06090
527.16522 0.05919
525.87945 0.05753
524.59368 0.05605
523.30791 0.05485
522.02214 0.05383
520.73637 0.05282
519.45061 0.05170
518.16484 0.05047
516.87907 0.04925
515.59330 0.04811
514.30753 0.04706
513.02176 0.04610
511.73599 0.04523
510.45022 0.04447
509.16446 0.04377
507.87869 0.04310
506.59292 0.04246
505.30715 0.04191
504.02138 0.04147
502.73561 0.04109
501.44984 0.04065
500.16407 0.04008
498.87830 0.03939
497.59254 0.03866
496.30677 0.03799
495.02100 0.03745
493.73523 0.03704
492.44946 0.03674
491.16369 0.03654
489.87792 0.03638
488.59215 0.03621
487.30639 0.03602
486.02062 0.03587
484.73485 0.03578
483.44908 0.03577
482.16331 0.03578
480.87754 0.03581
479.59177 0.03589
478.30600 0.03603
477.02023 0.03619
475.73447 0.03633
474.44870 0.03646
473.16293 0.03663
471.87716 0.03681
470.59139 0.03689
469.30562 0.03677
468.01985 0.03649
466.73408 0.03614
465.44832 0.03576
464.16255 0.03539
462.87678 0.03502
461.59101 0.03465
460.30524 0.03423
459.01947 0.03376
457.73370 0.03330
456.44793 0.03290
455.16216 0.03254
453.87640 0.03219
452.59063 0.03186
451.30486 0.03157
450.01909 0.03131
448.73332 0.03102
447.44755 0.03069
446.16178 0.03040
444.87601 0.03023
443.59025 0.03016
442.30448 0.03014
441.01871 0.03011
439.73294 0.03007
438.44717 0.03003
437.16140 0.03001
435.87563 0.03000
434.58986 0.02997
433.30409 0.02988
432.01833 0.02973
430.73256 0.02951
429.44679 0.02923
428.16102 0.02895
426.87525 0.02870
425.58948 0.02855
424.30371 0.02848
423.01794 0.02849
421.73218 0.02853
420.44641 0.02855
419.16064 0.02853
417.87487 0.02844
416.58910 0.02829
415.30333 0.02811
414.01756 0.02796
412.73179 0.02789
411.44602 0.02787
410.16026 0.02788
408.87449 0.02793
407.58872 0.02801
406.30295 0.02815
405.01718 0.02832
403.73141 0.02851
402.44564 0.02868
401.15987 0.02879
399.87411 0.02887
