3997.45528 0.07285
3996.16951 0.07350
3994.88374 0.07400
3993.59798 0.07414
3992.31221 0.07395
3991.02644 0.07364
3989.74067 0.07331
3988.45490 0.07300
3987.16913 0.07279
3985.88336 0.07265
3984.59759 0.07240
3983.31183 0.07195
3982.02606 0.07151
3980.74029 0.07140
3979.45452 0.07178
3978.16875 0.07237
3976.88298 0.07266
3975.59721 0.07227
3974.31144 0.07131
3973.02567 0.07027
3971.73991 0.06962
3970.45414 0.06960
3969.16837 0.07021
3967.88260 0.07125
3966.59683 0.07238
3965.31106 0.07326
3964.02529 0.07367
3962.73952 0.07358
3961.45376 0.07312
3960.16799 0.07260
3958.88222 0.07235
3957.59645 0.07247
3956.31068 0.07263
3955.02491 0.07246
3953.73914 0.07204
3952.45337 0.07198
3951.16760 0.07262
3949.88184 0.07348
3948.59607 0.07367
3947.31030 0.07296
3946.02453 0.07199
3944.73876 0.07156
3943.45299 0.07204
3942.16722 0.07321
3940.88145 0.07453
3939.59569 0.07536
3938.30992 0.07542
3937.02415 0.07493
3935.73838 0.07428
3934.45261 0.07356
3933.16684 0.07267
3931.88107 0.07162
3930.59530 0.07064
3929.30953 0.06996
3928.02377 0.06971
3926.73800 0.06999
3925.45223 0.07082
3924.16646 0.07198
3922.88069 0.07292
3921.59492 0.07311
3920.30915 0.07240
3919.02338 0.07099
3917.73762 0.06938
3916.45185 0.06813
3915.16608 0.06758
3913.88031 0.06767
3912.59454 0.06819
3911.30877 0.06901
3910.02300 0.06997
3908.73723 0.07057
3907.45146 0.07018
3906.16570 0.06859
3904.87993 0.06642
3903.59416 0.06483
3902.30839 0.06459
3901.02262 0.06557
3899.73685 0.06699
3898.45108 0.06811
3897.16531 0.06880
3895.87955 0.06944
3894.59378 0.07035
3893.30801 0.07137
3892.02224 0.07203
3890.73647 0.07207
3889.45070 0.07152
3888.16493 0.07059
3886.87916 0.06972
3885.59339 0.06932
3884.30763 0.06941
3883.02186 0.06962
3881.73609 0.06959
3880.45032 0.06932
3879.16455 0.06895
3877.87878 0.06856
3876.59301 0.06822
3875.30724 0.06807
3874.02148 0.06825
3872.73571 0.06867
3871.44994 0.06906
3870.16417 0.06927
3868.87840 0.06915
3867.59263 0.06852
3866.30686 0.06759
3865.02109 0.06695
3863.73532 0.06692
3862.44956 0.06726
3861.16379 0.06770
3859.87802 0.06819
3858.59225 0.06866
3857.30648 0.06879
3856.02071 0.06840
3854.73494 0.06787
3853.44917 0.06782
3852.16341 0.06822
3850.87764 0.06848
3849.59187 0.06826
3848.30610 0.06781
3847.02033 0.06742
3845.73456 0.06722
3844.44879 0.06725
3843.16302 0.06748
3841.87725 0.06767
3840.59149 0.06739
3839.30572 0.06651
3838.01995 0.06543
3836.73418 0.06471
3835.44841 0.06454
3834.16264 0.06481
3832.87687 0.06534
3831.59110 0.06589
3830.30534 0.06611
3829.01957 0.06574
3827.73380 0.06484
3826.44803 0.06379
3825.16226 0.06302
3823.87649 0.06280
3822.59072 0.06326
3821.30495 0.06441
3820.01918 0.06594
3818.73342 0.06716
3817.44765 0.06751
3816.16188 0.06712
3814.87611 0.06644
3813.59034 0.06578
3812.30457 0.06538
3811.01880 0.06542
3809.73303 0.06567
3808.44726 0.06565
3807.16150 0.06525
3805.87573 0.06485
3804.58996 0.06479
3803.30419 0.06516
3802.01842 0.06584
3800.73265 0.06660
3799.44688 0.06708
3798.16111 0.06716
3796.87535 0.06704
3795.58958 0.06671
3794.30381 0.06584
3793.01804 0.06435
3791.73227 0.06285
3790.44650 0.06208
3789.16073 0.06209
3787.87496 0.06230
3786.58919 0.06227
3785.30343 0.06213
3784.01766 0.06228
3782.73189 0.06278
3781.44612 0.06329
3780.16035 0.06353
3778.87458 0.06347
3777.58881 0.06323
3776.30304 0.06288
3775.01728 0.06254
3773.73151 0.06229
3772.44574 0.06217
3771.15997 0.06229
3769.87420 0.06284
3768.58843 0.06376
3767.30266 0.06469
3766.01689 0.06526
3764.73112 0.06536
3763.44536 0.06504
3762.15959 0.06446
3760.87382 0.06383
3759.58805 0.06326
3758.30228 0.06285
3757.01651 0.06273
3755.73074 0.06291
3754.44497 0.06312
3753.15921 0.06305
3751.87344 0.06262
3750.58767 0.06187
3749.30190 0.06110
3748.01613 0.06068
3746.73036 0.06069
3745.44459 0.06109
3744.15882 0.06171
3742.87305 0.06208
3741.58729 0.06179
3740.30152 0.06126
3739.01575 0.06120
3737.72998 0.06167
3736.44421 0.06209
3735.15844 0.06200
3733.87267 0.06136
3732.58690 0.06052
3731.30114 0.05991
3730.01537 0.05963
3728.72960 0.05949
3727.44383 0.05950
3726.15806 0.05995
3724.87229 0.06094
3723.58652 0.06213
3722.30075 0.06304
3721.01498 0.06335
3719.72922 0.06315
3718.44345 0.06279
3717.15768 0.06252
3715.87191 0.06224
3714.58614 0.06180
3713.30037 0.06138
3712.01460 0.06130
3710.72883 0.06153
3709.44307 0.06174
3708.15730 0.06180
3706.87153 0.06185
3705.58576 0.06193
3704.29999 0.06186
3703.01422 0.06153
3701.72845 0.06105
3700.44268 0.06053
3699.15691 0.05996
3697.87115 0.05942
3696.58538 0.05906
3695.29961 0.05892
3694.01384 0.05887
3692.72807 0.05892
3691.44230 0.05936
3690.15653 0.06021
3688.87076 0.06103
3687.58500 0.06134
3686.29923 0.06102
3685.01346 0.06037
3683.72769 0.05988
3682.44192 0.05983
3681.15615 0.06017
3679.87038 0.06069
3678.58461 0.06115
3677.29884 0.06137
3676.01308 0.06158
3674.72731 0.06216
3673.44154 0.06287
3672.15577 0.06315
3670.87000 0.06288
3669.58423 0.06251
3668.29846 0.06230
3667.01269 0.06212
3665.72693 0.06184
3664.44116 0.06155
3663.15539 0.06159
3661.86962 0.06225
3660.58385 0.06329
3659.29808 0.06403
3658.01231 0.06416
3656.72654 0.06409
3655.44077 0.06437
3654.15501 0.06481
3652.86924 0.06472
3651.58347 0.06383
3650.29770 0.06259
3649.01193 0.06174
3647.72616 0.06161
3646.44039 0.06189
3645.15462 0.06211
3643.86886 0.06230
3642.58309 0.06300
3641.29732 0.06449
3640.01155 0.06627
3638.72578 0.06754
3637.44001 0.06788
3636.15424 0.06738
3634.86847 0.06643
3633.58270 0.06558
3632.29694 0.06519
3631.01117 0.06524
3629.72540 0.06555
3628.43963 0.06603
3627.15386 0.06653
3625.86809 0.06679
3624.58232 0.06677
3623.29655 0.06665
3622.01079 0.06643
3620.72502 0.06601
3619.43925 0.06549
3618.15348 0.06512
3616.86771 0.06510
3615.58194 0.06547
3614.29617 0.06630
3613.01040 0.06755
3611.72463 0.06887
3610.43887 0.06979
3609.15310 0.07028
3607.86733 0.07063
3606.58156 0.07093
3605.29579 0.07101
3604.01002 0.07090
3602.72425 0.07081
3601.43848 0.07082
3600.15272 0.07082
3598.86695 0.07088
3597.58118 0.07122
3596.29541 0.07180
3595.00964 0.07228
3593.72387 0.07250
3592.43810 0.07267
3591.15233 0.07297
3589.86656 0.07321
3588.58080 0.07316
3587.29503 0.07303
3586.00926 0.07334
3584.72349 0.07433
3583.43772 0.07564
3582.15195 0.07665
3580.86618 0.07699
3579.58041 0.07682
3578.29464 0.07666
3577.00888 0.07686
3575.72311 0.07724
3574.43734 0.07730
3573.15157 0.07677
3571.86580 0.07598
3570.58003 0.07547
3569.29426 0.07556
3568.00849 0.07619
3566.72273 0.07720
3565.43696 0.07832
3564.15119 0.07918
3562.86542 0.07949
3561.57965 0.07940
3560.29388 0.07941
3559.00811 0.07986
3557.72234 0.08070
3556.43657 0.08161
3555.15081 0.08232
3553.86504 0.08284
3552.57927 0.08339
3551.29350 0.08413
3550.00773 0.08482
3548.72196 0.08499
3547.43619 0.08450
3546.15042 0.08385
3544.86466 0.08366
3543.57889 0.08404
3542.29312 0.08449
3541.00735 0.08451
3539.72158 0.08414
3538.43581 0.08383
3537.15004 0.08389
3535.86427 0.08426
3534.57850 0.08472
3533.29274 0.08519
3532.00697 0.08580
3530.72120 0.08660
3529.43543 0.08726
3528.14966 0.08746
3526.86389 0.08722
3525.57812 0.08692
3524.29235 0.08681
3523.00659 0.08682
3521.72082 0.08680
3520.43505 0.08686
3519.14928 0.08723
3517.86351 0.08793
3516.57774 0.08870
3515.29197 0.08920
3514.00620 0.08932
3512.72043 0.08907
3511.43467 0.08859
3510.14890 0.08801
3508.86313 0.08752
3507.57736 0.08733
3506.29159 0.08761
3505.00582 0.08845
3503.72005 0.08970
3502.43428 0.09105
3501.14852 0.09211
3499.86275 0.09269
3498.57698 0.09279
3497.29121 0.09257
3496.00544 0.09219
3494.71967 0.09187
3493.43390 0.09176
3492.14813 0.09189
3490.86236 0.09215
3489.57660 0.09252
3488.29083 0.09309
3487.00506 0.09395
3485.71929 0.09497
3484.43352 0.09585
3483.14775 0.09626
3481.86198 0.09618
3480.57621 0.09594
3479.29045 0.09604
3478.00468 0.09665
3476.71891 0.09745
3475.43314 0.09801
3474.14737 0.09820
3472.86160 0.09823
3471.57583 0.09832
3470.29006 0.09854
3469.00429 0.09879
3467.71853 0.09893
3466.43276 0.09889
3465.14699 0.09870
3463.86122 0.09849
3462.57545 0.09836
3461.28968 0.09836
3460.00391 0.09842
3458.71814 0.09845
3457.43238 0.09834
3456.14661 0.09812
3454.86084 0.09798
3453.57507 0.09805
3452.28930 0.09820
3451.00353 0.09817
3449.71776 0.09792
3448.43199 0.09777
3447.14622 0.09793
3445.86046 0.09823
3444.57469 0.09836
3443.28892 0.09829
3442.00315 0.09833
3440.71738 0.09871
3439.43161 0.09937
3438.14584 0.10003
3436.86007 0.10054
3435.57431 0.10094
3434.28854 0.10137
3433.00277 0.10189
3431.71700 0.10233
3430.43123 0.10253
3429.14546 0.10238
3427.85969 0.10193
3426.57392 0.10133
3425.28815 0.10070
3424.00239 0.10012
3422.71662 0.09971
3421.43085 0.09966
3420.14508 0.10011
3418.85931 0.10096
3417.57354 0.10194
3416.28777 0.10274
3415.00200 0.10319
3413.71624 0.10325
3412.43047 0.10298
3411.14470 0.10254
3409.85893 0.10216
3408.57316 0.10213
3407.28739 0.10266
3406.00162 0.10362
3404.71585 0.10458
3403.43008 0.10509
3402.14432 0.10514
3400.85855 0.10515
3399.57278 0.10551
3398.28701 0.10616
3397.00124 0.10664
3395.71547 0.10660
3394.42970 0.10617
3393.14393 0.10582
3391.85817 0.10595
3390.57240 0.10651
3389.28663 0.10709
3388.00086 0.10727
3386.71509 0.10693
3385.42932 0.10634
3384.14355 0.10596
3382.85778 0.10610
3381.57201 0.10660
3380.28625 0.10700
3379.00048 0.10687
3377.71471 0.10623
3376.42894 0.10541
3375.14317 0.10485
3373.85740 0.10483
3372.57163 0.10542
3371.28586 0.10645
3370.00010 0.10749
3368.71433 0.10804
3367.42856 0.10781
3366.14279 0.10695
3364.85702 0.10591
3363.57125 0.10517
3362.28548 0.10505
3360.99971 0.10552
3359.71394 0.10620
3358.42818 0.10666
3357.14241 0.10672
3355.85664 0.10653
3354.57087 0.10639
3353.28510 0.10635
3351.99933 0.10615
3350.71356 0.10560
3349.42779 0.10484
3348.14202 0.10428
3346.85626 0.10423
3345.57049 0.10463
3344.28472 0.10520
3342.99895 0.10567
3341.71318 0.10588
3340.42741 0.10583
3339.14164 0.10563
3337.85587 0.10548
3336.57011 0.10552
3335.28434 0.10568
3333.99857 0.10572
3332.71280 0.10547
3331.42703 0.10508
3330.14126 0.10491
3328.85549 0.10516
3327.56972 0.10565
3326.28395 0.10603
3324.99819 0.10607
3323.71242 0.10580
3322.42665 0.10547
3321.14088 0.10531
3319.85511 0.10531
3318.56934 0.10530
3317.28357 0.10507
3315.99780 0.10468
3314.71204 0.10435
3313.42627 0.10430
3312.14050 0.10450
3310.85473 0.10473
3309.56896 0.10483
3308.28319 0.10485
3306.99742 0.10492
3305.71165 0.10513
3304.42588 0.10543
3303.14012 0.10563
3301.85435 0.10553
3300.56858 0.10514
3299.28281 0.10475
3297.99704 0.10468
3296.71127 0.10487
3295.42550 0.10495
3294.13973 0.10464
3292.85397 0.10414
3291.56820 0.10387
3290.28243 0.10395
3288.99666 0.10405
3287.71089 0.10380
3286.42512 0.10322
3285.13935 0.10262
3283.85358 0.10226
3282.56781 0.10220
3281.28205 0.10252
3279.99628 0.10331
3278.71051 0.10436
3277.42474 0.10518
3276.13897 0.10534
3274.85320 0.10488
3273.56743 0.10421
3272.28166 0.10385
3270.99590 0.10412
3269.71013 0.10484
3268.42436 0.10541
3267.13859 0.10537
3265.85282 0.10482
3264.56705 0.10434
3263.28128 0.10426
3261.99551 0.10445
3260.70974 0.10457
3259.42398 0.10446
3258.13821 0.10412
3256.85244 0.10345
3255.56667 0.10238
3254.28090 0.10116
3252.99513 0.10045
3251.70936 0.10064
3250.42359 0.10146
3249.13783 0.10214
3247.85206 0.10217
3246.56629 0.10160
3245.28052 0.10090
3243.99475 0.10051
3242.70898 0.10063
3241.42321 0.10118
3240.13744 0.10182
3238.85167 0.10217
3237.56591 0.10209
3236.28014 0.10176
3234.99437 0.10147
3233.70860 0.10132
3232.42283 0.10126
3231.13706 0.10119
3229.85129 0.10111
3228.56552 0.10102
3227.27976 0.10092
3225.99399 0.10083
3224.70822 0.10084
3223.42245 0.10107
3222.13668 0.10147
3220.85091 0.10178
3219.56514 0.10166
3218.27937 0.10098
3216.99360 0.09995
3215.70784 0.09906
3214.42207 0.09865
3213.13630 0.09872
3211.85053 0.09897
3210.56476 0.09920
3209.27899 0.09941
3207.99322 0.09965
3206.70745 0.09991
3205.42169 0.10002
3204.13592 0.09974
3202.85015 0.09899
3201.56438 0.09792
3200.27861 0.09691
3198.99284 0.09631
3197.70707 0.09621
3196.42130 0.09648
3195.13553 0.09690
3193.84977 0.09730
3192.56400 0.09760
3191.27823 0.09772
3189.99246 0.09752
3188.70669 0.09696
3187.42092 0.09621
3186.13515 0.09562
3184.84938 0.09550
3183.56362 0.09588
3182.27785 0.09662
3180.99208 0.09744
3179.70631 0.09802
3178.42054 0.09811
3177.13477 0.09769
3175.84900 0.09699
3174.56323 0.09624
3173.27746 0.09558
3171.99170 0.09509
3170.70593 0.09482
3169.42016 0.09471
3168.13439 0.09466
3166.84862 0.09460
3165.56285 0.09457
3164.27708 0.09460
3162.99131 0.09460
3161.70555 0.09439
3160.41978 0.09390
3159.13401 0.09325
3157.84824 0.09269
3156.56247 0.09255
3155.27670 0.09295
3153.99093 0.09373
3152.70516 0.09444
3151.41939 0.09467
3150.13363 0.09435
3148.84786 0.09381
3147.56209 0.09345
3146.27632 0.09341
3144.99055 0.09353
3143.70478 0.09359
3142.41901 0.09349
3141.13324 0.09327
3139.84748 0.09309
3138.56171 0.09303
3137.27594 0.09296
3135.99017 0.09274
3134.70440 0.09229
3133.41863 0.09172
3132.13286 0.09118
3130.84709 0.09087
3129.56132 0.09097
3128.27556 0.09137
3126.98979 0.09163
3125.70402 0.09143
3124.41825 0.09089
3123.13248 0.09044
3121.84671 0.09028
3120.56094 0.09022
3119.27517 0.09004
3117.98940 0.08968
3116.70364 0.08923
3115.41787 0.08881
3114.13210 0.08852
3112.84633 0.08844
3111.56056 0.08853
3110.27479 0.08858
3108.98902 0.08842
3107.70325 0.08810
3106.41749 0.08788
3105.13172 0.08796
3103.84595 0.08825
3102.56018 0.08853
3101.27441 0.08863
3099.98864 0.08853
3098.70287 0.08832
3097.41710 0.08817
3096.13133 0.08816
3094.84557 0.08821
3093.55980 0.08814
3092.27403 0.08787
3090.98826 0.08738
3089.70249 0.08674
3088.41672 0.08608
3087.13095 0.08561
3085.84518 0.08551
3084.55942 0.08575
3083.27365 0.08613
3081.98788 0.08642
3080.70211 0.08645
3079.41634 0.08615
3078.13057 0.08564
3076.84480 0.08519
3075.55903 0.08508
3074.27326 0.08535
3072.98750 0.08571
3071.70173 0.08578
3070.41596 0.08548
3069.13019 0.08512
3067.84442 0.08498
3066.55865 0.08500
3065.27288 0.08490
3063.98711 0.08456
3062.70135 0.08415
3061.41558 0.08392
3060.12981 0.08396
3058.84404 0.08415
3057.55827 0.08432
3056.27250 0.08431
3054.98673 0.08410
3053.70096 0.08376
3052.41519 0.08340
3051.12943 0.08311
3049.84366 0.08289
3048.55789 0.08272
3047.27212 0.08257
3045.98635 0.08238
3044.70058 0.08211
3043.41481 0.08181
3042.12904 0.08166
3040.84328 0.08176
3039.55751 0.08198
3038.27174 0.08211
3036.98597 0.08207
3035.70020 0.08191
3034.41443 0.08178
3033.12866 0.08169
3031.84289 0.08159
3030.55712 0.08149
3029.27136 0.08142
3027.98559 0.08139
3026.69982 0.08131
3025.41405 0.08103
3024.12828 0.08058
3022.84251 0.08014
3021.55674 0.07987
3020.27097 0.07973
3018.98521 0.07958
3017.69944 0.07934
3016.41367 0.07906
3015.12790 0.07884
3013.84213 0.07870
3012.55636 0.07858
3011.27059 0.07842
3009.98482 0.07820
3008.69905 0.07796
3007.41329 0.07773
3006.12752 0.07757
3004.84175 0.07747
3003.55598 0.07748
3002.27021 0.07766
3000.98444 0.07807
2999.69867 0.07857
2998.41290 0.07886
2997.12714 0.07869
2995.84137 0.07821
2994.55560 0.07775
2993.26983 0.07748
2991.98406 0.07734
2990.69829 0.07730
2989.41252 0.07744
2988.12675 0.07784
2986.84098 0.07842
2985.55522 0.07902
2984.26945 0.07947
2982.98368 0.07967
2981.69791 0.07971
2980.41214 0.07988
2979.12637 0.08042
2977.84060 0.08132
2976.55483 0.08238
2975.26907 0.08336
2973.98330 0.08421
2972.69753 0.08502
2971.41176 0.08591
2970.12599 0.08695
2968.84022 0.08812
2967.55445 0.08928
2966.26868 0.09039
2964.98291 0.09147
2963.69715 0.09264
2962.41138 0.09392
2961.12561 0.09517
2959.83984 0.09630
2958.55407 0.09739
2957.26830 0.09861
2955.98253 0.09989
2954.69676 0.10094
2953.41100 0.10143
2952.12523 0.10132
2950.83946 0.10084
2949.55369 0.10031
2948.26792 0.10001
2946.98215 0.10006
2945.69638 0.10038
2944.41061 0.10072
2943.12484 0.10085
2941.83908 0.10080
2940.55331 0.10086
2939.26754 0.10133
2937.98177 0.10225
2936.69600 0.10344
2935.41023 0.10464
2934.12446 0.10571
2932.83869 0.10667
2931.55293 0.10756
2930.26716 0.10836
2928.98139 0.10895
2927.69562 0.10932
2926.40985 0.10958
2925.12408 0.10996
2923.83831 0.11046
2922.55254 0.11080
2921.26677 0.11066
2919.98101 0.10996
2918.69524 0.10899
2917.40947 0.10802
2916.12370 0.10710
2914.83793 0.10611
2913.55216 0.10501
2912.26639 0.10398
2910.98062 0.10318
2909.69486 0.10261
2908.40909 0.10205
2907.12332 0.10126
2905.83755 0.10023
2904.55178 0.09917
2903.26601 0.09829
2901.98024 0.09765
2900.69447 0.09705
2899.40870 0.09632
2898.12294 0.09553
2896.83717 0.09488
2895.55140 0.09445
2894.26563 0.09410
2892.97986 0.09357
2891.69409 0.09277
2890.40832 0.09175
2889.12255 0.09062
2887.83678 0.08956
2886.55102 0.08879
2885.26525 0.08835
2883.97948 0.08807
2882.69371 0.08778
2881.40794 0.08751
2880.12217 0.08745
2878.83640 0.08770
2877.55063 0.08821
2876.26487 0.08880
2874.97910 0.08933
2873.69333 0.08979
2872.40756 0.09021
2871.12179 0.09058
2869.83602 0.09086
2868.55025 0.09105
2867.26448 0.09119
2865.97871 0.09126
2864.69295 0.09122
2863.40718 0.09104
2862.12141 0.09076
2860.83564 0.09039
2859.54987 0.09005
2858.26410 0.08984
2856.97833 0.08976
2855.69256 0.08965
2854.40680 0.08939
2853.12103 0.08891
2851.83526 0.08818
2850.54949 0.08721
2849.26372 0.08611
2847.97795 0.08502
2846.69218 0.08408
2845.40641 0.08331
2844.12064 0.08265
2842.83488 0.08191
2841.54911 0.08095
2840.26334 0.07980
2838.97757 0.07866
2837.69180 0.07771
2836.40603 0.07691
2835.12026 0.07612
2833.83449 0.07530
2832.54873 0.07454
2831.26296 0.07392
2829.97719 0.07338
2828.69142 0.07278
2827.40565 0.07210
2826.11988 0.07137
2824.83411 0.07068
2823.54834 0.07008
2822.26257 0.06965
2820.97681 0.06942
2819.69104 0.06935
2818.40527 0.06930
2817.11950 0.06909
2815.83373 0.06866
2814.54796 0.06813
2813.26219 0.06766
2811.97642 0.06731
2810.69066 0.06703
2809.40489 0.06685
2808.11912 0.06680
2806.83335 0.06681
2805.54758 0.06673
2804.26181 0.06650
2802.97604 0.06614
2801.69027 0.06570
2800.40450 0.06525
2799.11874 0.06484
2797.83297 0.06459
2796.54720 0.06457
2795.26143 0.06472
2793.97566 0.06485
2792.68989 0.06479
2791.40412 0.06449
2790.11835 0.06403
2788.83259 0.06355
2787.54682 0.06319
2786.26105 0.06301
2784.97528 0.06295
2783.68951 0.06287
2782.40374 0.06269
2781.11797 0.06245
2779.83220 0.06221
2778.54643 0.06203
2777.26067 0.06201
2775.97490 0.06212
2774.68913 0.06224
2773.40336 0.06224
2772.11759 0.06213
2770.83182 0.06204
2769.54605 0.06199
2768.26028 0.06189
2766.97452 0.06168
2765.68875 0.06139
2764.40298 0.06111
2763.11721 0.06089
2761.83144 0.06071
2760.54567 0.06057
2759.25990 0.06046
2757.97413 0.06034
2756.68836 0.06016
2755.40260 0.05991
2754.11683 0.05959
2752.83106 0.05931
2751.54529 0.05922
2750.25952 0.05937
2748.97375 0.05962
2747.68798 0.05977
2746.40221 0.05967
2745.11645 0.05940
2743.83068 0.05913
2742.54491 0.05903
2741.25914 0.05907
2739.97337 0.05909
2738.68760 0.05900
2737.40183 0.05890
2736.11606 0.05888
2734.83029 0.05891
2733.54453 0.05884
2732.25876 0.05865
2730.97299 0.05837
2729.68722 0.05806
2728.40145 0.05779
2727.11568 0.05770
2725.82991 0.05787
2724.54414 0.05821
2723.25838 0.05852
2721.97261 0.05859
2720.68684 0.05836
2719.40107 0.05797
2718.11530 0.05764
2716.82953 0.05748
2715.54376 0.05741
2714.25799 0.05727
2712.97222 0.05697
2711.68646 0.05659
2710.40069 0.05626
2709.11492 0.05606
2707.82915 0.05601
2706.54338 0.05608
2705.25761 0.05621
2703.97184 0.05628
2702.68607 0.05622
2701.40031 0.05605
2700.11454 0.05583
2698.82877 0.05559
2697.54300 0.05533
2696.25723 0.05503
2694.97146 0.05477
2693.68569 0.05462
2692.39992 0.05462
2691.11415 0.05471
2689.82839 0.05485
2688.54262 0.05499
2687.25685 0.05509
2685.97108 0.05507
2684.68531 0.05484
2683.39954 0.05446
2682.11377 0.05409
2680.82800 0.05380
2679.54224 0.05364
2678.25647 0.05363
2676.97070 0.05382
2675.68493 0.05419
2674.39916 0.05455
2673.11339 0.05472
2671.82762 0.05464
2670.54185 0.05442
2669.25608 0.05417
2667.97032 0.05399
2666.68455 0.05392
2665.39878 0.05396
2664.11301 0.05411
2662.82724 0.05435
2661.54147 0.05456
2660.25570 0.05457
2658.96993 0.05429
2657.68417 0.05381
2656.39840 0.05338
2655.11263 0.05310
2653.82686 0.05293
2652.54109 0.05280
2651.25532 0.05278
2649.96955 0.05289
2648.68378 0.05295
2647.39801 0.05276
2646.11225 0.05232
2644.82648 0.05185
2643.54071 0.05158
2642.25494 0.05158
2640.96917 0.05178
2639.68340 0.05200
2638.39763 0.05200
2637.11186 0.05165
2635.82609 0.05105
2634.54033 0.05046
2633.25456 0.05006
2631.96879 0.04991
2630.68302 0.04997
2629.39725 0.05014
2628.11148 0.05023
2626.82571 0.05007
2625.53994 0.04972
2624.25418 0.04936
2622.96841 0.04914
2621.68264 0.04905
2620.39687 0.04903
2619.11110 0.04896
2617.82533 0.04870
2616.53956 0.04821
2615.25379 0.04764
2613.96802 0.04725
2612.68226 0.04714
2611.39649 0.04728
2610.11072 0.04757
2608.82495 0.04793
2607.53918 0.04822
2606.25341 0.04822
2604.96764 0.04781
2603.68187 0.04706
2602.39611 0.04623
2601.11034 0.04561
2599.82457 0.04540
2598.53880 0.04557
2597.25303 0.04589
2595.96726 0.04612
2594.68149 0.04612
2593.39572 0.04598
2592.10995 0.04582
2590.82419 0.04569
2589.53842 0.04552
2588.25265 0.04524
2586.96688 0.04486
2585.68111 0.04442
2584.39534 0.04398
2583.10957 0.04367
2581.82380 0.04359
2580.53804 0.04370
2579.25227 0.04377
2577.96650 0.04362
2576.68073 0.04326
2575.39496 0.04278
2574.10919 0.04231
2572.82342 0.04208
2571.53765 0.04225
2570.25188 0.04270
2568.96612 0.04307
2567.68035 0.04315
2566.39458 0.04306
2565.10881 0.04307
2563.82304 0.04326
2562.53727 0.04351
2561.25150 0.04365
2559.96573 0.04361
2558.67997 0.04333
2557.39420 0.04283
2556.10843 0.04237
2554.82266 0.04228
2553.53689 0.04261
2552.25112 0.04298
2550.96535 0.04298
2549.67958 0.04266
2548.39381 0.04236
2547.10805 0.04235
2545.82228 0.04255
2544.53651 0.04271
2543.25074 0.04258
2541.96497 0.04209
2540.67920 0.04139
2539.39343 0.04072
2538.10766 0.04029
2536.82190 0.04020
2535.53613 0.04044
2534.25036 0.04081
2532.96459 0.04112
2531.67882 0.04129
2530.39305 0.04146
2529.10728 0.04170
2527.82151 0.04189
2526.53574 0.04190
2525.24998 0.04176
2523.96421 0.04164
2522.67844 0.04160
2521.39267 0.04155
2520.10690 0.04139
2518.82113 0.04111
2517.53536 0.04078
2516.24959 0.04045
2514.96383 0.04017
2513.67806 0.03999
2512.39229 0.03996
2511.10652 0.04003
2509.82075 0.04017
2508.53498 0.04041
2507.24921 0.04072
2505.96344 0.04099
2504.67767 0.04105
2503.39191 0.04079
2502.10614 0.04016
2500.82037 0.03940
2499.53460 0.03895
2498.24883 0.03905
2496.96306 0.03948
2495.67729 0.03976
2494.39152 0.03966
2493.10576 0.03936
2491.81999 0.03910
2490.53422 0.03901
2489.24845 0.03905
2487.96268 0.03917
2486.67691 0.03933
2485.39114 0.03957
2484.10537 0.03992
2482.81960 0.04028
2481.53384 0.04043
2480.24807 0.04019
2478.96230 0.03963
2477.67653 0.03901
2476.39076 0.03858
2475.10499 0.03843
2473.81922 0.03848
2472.53345 0.03853
2471.24769 0.03847
2469.96192 0.03837
2468.67615 0.03838
2467.39038 0.03856
2466.10461 0.03873
2464.81884 0.03867
2463.53307 0.03840
2462.24730 0.03824
2460.96153 0.03847
2459.67577 0.03902
2458.39000 0.03953
2457.10423 0.03965
2455.81846 0.03933
2454.53269 0.03883
2453.24692 0.03843
2451.96115 0.03828
2450.67538 0.03836
2449.38962 0.03860
2448.10385 0.03885
2446.81808 0.03893
2445.53231 0.03869
2444.24654 0.03818
2442.96077 0.03761
2441.67500 0.03724
2440.38923 0.03718
2439.10346 0.03736
2437.81770 0.03758
2436.53193 0.03766
2435.24616 0.03762
2433.96039 0.03759
2432.67462 0.03768
2431.38885 0.03784
2430.10308 0.03797
2428.81731 0.03802
2427.53155 0.03795
2426.24578 0.03767
2424.96001 0.03717
2423.67424 0.03665
2422.38847 0.03641
2421.10270 0.03651
2419.81693 0.03674
2418.53116 0.03691
2417.24539 0.03695
2415.95963 0.03679
2414.67386 0.03645
2413.38809 0.03600
2412.10232 0.03559
2410.81655 0.03533
2409.53078 0.03526
2408.24501 0.03538
2406.95924 0.03561
2405.67347 0.03580
2404.38771 0.03587
2403.10194 0.03588
2401.81617 0.03587
2400.53040 0.03587
2399.24463 0.03585
2397.95886 0.03590
2396.67309 0.03599
2395.38732 0.03603
2394.10156 0.03598
2392.81579 0.03592
2391.53002 0.03597
2390.24425 0.03612
2388.95848 0.03625
2387.67271 0.03624
2386.38694 0.03619
2385.10117 0.03624
2383.81540 0.03645
2382.52964 0.03673
2381.24387 0.03687
2379.95810 0.03686
2378.67233 0.03683
2377.38656 0.03697
2376.10079 0.03726
2374.81502 0.03749
2373.52925 0.03743
2372.24349 0.03709
2370.95772 0.03667
2369.67195 0.03640
2368.38618 0.03633
2367.10041 0.03640
2365.81464 0.03660
2364.52887 0.03686
2363.24310 0.03709
2361.95733 0.03714
2360.67157 0.03691
2359.38580 0.03659
2358.10003 0.03649
2356.81426 0.03671
2355.52849 0.03717
2354.24272 0.03761
2352.95695 0.03773
2351.67118 0.03736
2350.38542 0.03685
2349.09965 0.03667
2347.81388 0.03680
2346.52811 0.03683
2345.24234 0.03678
2343.95657 0.03702
2342.67080 0.03738
2341.38503 0.03711
2340.09926 0.03639
2338.81350 0.03646
2337.52773 0.03727
2336.24196 0.03740
2334.95619 0.03691
2333.67042 0.03709
2332.38465 0.03759
2331.09888 0.03719
2329.81311 0.03685
2328.52735 0.03746
2327.24158 0.03780
2325.95581 0.03787
2324.67004 0.03836
2323.38427 0.03847
2322.09850 0.03800
2320.81273 0.03776
2319.52696 0.03734
2318.24119 0.03680
2316.95543 0.03665
2315.66966 0.03658
2314.38389 0.03655
2313.09812 0.03658
2311.81235 0.03628
2310.52658 0.03581
2309.24081 0.03536
2307.95504 0.03504
2306.66928 0.03503
2305.38351 0.03504
2304.09774 0.03479
2302.81197 0.03425
2301.52620 0.03359
2300.24043 0.03318
2298.95466 0.03316
2297.66889 0.03339
2296.38312 0.03360
2295.09736 0.03356
2293.81159 0.03329
2292.52582 0.03297
2291.24005 0.03274
2289.95428 0.03251
2288.66851 0.03217
2287.38274 0.03179
2286.09697 0.03159
2284.81121 0.03170
2283.52544 0.03199
2282.23967 0.03222
2280.95390 0.03219
2279.66813 0.03186
2278.38236 0.03131
2277.09659 0.03073
2275.81082 0.03027
2274.52505 0.02997
2273.23929 0.02975
2271.95352 0.02955
2270.66775 0.02937
2269.38198 0.02927
2268.09621 0.02920
2266.81044 0.02895
2265.52467 0.02841
2264.23890 0.02775
2262.95314 0.02743
2261.66737 0.02778
2260.38160 0.02871
2259.09583 0.02963
2257.81006 0.02989
2256.52429 0.02933
2255.23852 0.02832
2253.95275 0.02740
2252.66698 0.02678
2251.38122 0.02635
2250.09545 0.02594
2248.80968 0.02549
2247.52391 0.02500
2246.23814 0.02480
2244.95237 0.02500
2243.66660 0.02547
2242.38083 0.02602
2241.09507 0.02659
2239.80930 0.02709
2238.52353 0.02734
2237.23776 0.02713
2235.95199 0.02654
2234.66622 0.02587
2233.38045 0.02531
2232.09468 0.02479
2230.80891 0.02420
2229.52315 0.02364
2228.23738 0.02335
2226.95161 0.02343
2225.66584 0.02376
2224.38007 0.02401
2223.09430 0.02388
2221.80853 0.02332
2220.52276 0.02247
2219.23700 0.02164
2217.95123 0.02108
2216.66546 0.02091
2215.37969 0.02102
2214.09392 0.02109
2212.80815 0.02095
2211.52238 0.02076
2210.23661 0.02094
2208.95084 0.02171
2207.66508 0.02281
2206.37931 0.02367
2205.09354 0.02390
2203.80777 0.02361
2202.52200 0.02312
2201.23623 0.02263
2199.95046 0.02212
2198.66469 0.02167
2197.37893 0.02144
2196.09316 0.02131
2194.80739 0.02084
2193.52162 0.01979
2192.23585 0.01847
2190.95008 0.01751
2189.66431 0.01734
2188.37854 0.01788
2187.09277 0.01877
2185.80701 0.01947
2184.52124 0.01941
2183.23547 0.01825
2181.94970 0.01638
2180.66393 0.01485
2179.37816 0.01460
2178.09239 0.01555
2176.80662 0.01667
2175.52085 0.01702
2174.23509 0.01669
2172.94932 0.01644
2171.66355 0.01673
2170.37778 0.01737
2169.09201 0.01788
2167.80624 0.01787
2166.52047 0.01717
2165.23470 0.01597
2163.94894 0.01479
2162.66317 0.01397
2161.37740 0.01335
2160.09163 0.01258
2158.80586 0.01198
2157.52009 0.01232
2156.23432 0.01364
2154.94855 0.01488
2153.66278 0.01488
2152.37702 0.01360
2151.09125 0.01211
2149.80548 0.01151
2148.51971 0.01207
2147.23394 0.01336
2145.94817 0.01474
2144.66240 0.01567
2143.37663 0.01578
2142.09087 0.01522
2140.80510 0.01462
2139.51933 0.01467
2138.23356 0.01543
2136.94779 0.01632
2135.66202 0.01669
2134.37625 0.01648
2133.09048 0.01624
2131.80471 0.01652
2130.51895 0.01740
2129.23318 0.01849
2127.94741 0.01935
2126.66164 0.01983
2125.37587 0.01996
2124.09010 0.01994
2122.80433 0.01997
2121.51856 0.02016
2120.23280 0.02039
2118.94703 0.02056
2117.66126 0.02074
2116.37549 0.02113
2115.08972 0.02167
2113.80395 0.02199
2112.51818 0.02186
2111.23241 0.02139
2109.94664 0.02084
2108.66088 0.02032
2107.37511 0.01987
2106.08934 0.01959
2104.80357 0.01952
2103.51780 0.01951
2102.23203 0.01937
2100.94626 0.01918
2099.66049 0.01930
2098.37473 0.01959
2097.08896 0.01978
2095.80319 0.01970
2094.51742 0.01953
2093.23165 0.01962
2091.94588 0.02002
2090.66011 0.02045
2089.37434 0.02062
2088.08857 0.02049
2086.80281 0.02032
2085.51704 0.02028
2084.23127 0.02028
2082.94550 0.02004
2081.65973 0.01935
2080.37396 0.01835
2079.08819 0.01745
2077.80242 0.01705
2076.51666 0.01722
2075.23089 0.01765
2073.94512 0.01794
2072.65935 0.01787
2071.37358 0.01740
2070.08781 0.01657
2068.80204 0.01555
2067.51627 0.01472
2066.23050 0.01447
2064.94474 0.01489
2063.65897 0.01566
2062.37320 0.01620
2061.08743 0.01607
2059.80166 0.01531
2058.51589 0.01438
2057.23012 0.01382
2055.94435 0.01387
2054.65859 0.01430
2053.37282 0.01471
2052.08705 0.01473
2050.80128 0.01436
2049.51551 0.01388
2048.22974 0.01358
2046.94397 0.01330
2045.65820 0.01264
2044.37243 0.01145
2043.08667 0.01019
2041.80090 0.00944
2040.51513 0.00931
2039.22936 0.00950
2037.94359 0.00967
2036.65782 0.00968
2035.37205 0.00955
2034.08628 0.00940
2032.80052 0.00942
2031.51475 0.00968
2030.22898 0.01002
2028.94321 0.01008
2027.65744 0.00974
2026.37167 0.00926
2025.08590 0.00906
2023.80013 0.00917
2022.51436 0.00912
2021.22860 0.00847
2019.94283 0.00738
2018.65706 0.00648
2017.37129 0.00630
2016.08552 0.00685
2014.79975 0.00784
2013.51398 0.00898
2012.22821 0.01008
2010.94245 0.01101
2009.65668 0.01165
2008.37091 0.01193
2007.08514 0.01190
2005.79937 0.01183
2004.51360 0.01199
2003.22783 0.01241
2001.94206 0.01288
2000.65629 0.01315
1999.37053 0.01323
1998.08476 0.01334
1996.79899 0.01363
1995.51322 0.01400
1994.22745 0.01405
1992.94168 0.01355
1991.65591 0.01278
1990.37014 0.01235
1989.08438 0.01253
1987.79861 0.01295
1986.51284 0.01318
1985.22707 0.01323
1983.94130 0.01342
1982.65553 0.01378
1981.36976 0.01396
1980.08399 0.01352
1978.79822 0.01242
1977.51246 0.01111
1976.22669 0.01024
1974.94092 0.01031
1973.65515 0.01136
1972.36938 0.01290
1971.08361 0.01420
1969.79784 0.01477
1968.51207 0.01467
1967.22631 0.01438
1965.94054 0.01436
1964.65477 0.01464
1963.36900 0.01488
1962.08323 0.01476
1960.79746 0.01448
1959.51169 0.01455
1958.22592 0.01515
1956.94015 0.01584
1955.65439 0.01617
1954.36862 0.01623
1953.08285 0.01642
1951.79708 0.01681
1950.51131 0.01709
1949.22554 0.01709
1947.93977 0.01705
1946.65400 0.01734
1945.36823 0.01803
1944.08247 0.01882
1942.79670 0.01931
1941.51093 0.01931
1940.22516 0.01895
1938.93939 0.01858
1937.65362 0.01847
1936.36785 0.01854
1935.08208 0.01853
1933.79632 0.01832
1932.51055 0.01811
1931.22478 0.01815
1929.93901 0.01842
1928.65324 0.01871
1927.36747 0.01883
1926.08170 0.01879
1924.79593 0.01873
1923.51016 0.01874
1922.22440 0.01877
1920.93863 0.01869
1919.65286 0.01837
1918.36709 0.01795
1917.08132 0.01778
1915.79555 0.01806
1914.50978 0.01859
1913.22401 0.01894
1911.93825 0.01884
1910.65248 0.01843
1909.36671 0.01802
1908.08094 0.01779
1906.79517 0.01778
1905.50940 0.01798
1904.22363 0.01834
1902.93786 0.01875
1901.65209 0.01900
1900.36633 0.01893
1899.08056 0.01858
1897.79479 0.01817
1896.50902 0.01789
1895.22325 0.01784
1893.93748 0.01805
1892.65171 0.01845
1891.36594 0.01885
1890.08018 0.01900
1888.79441 0.01878
1887.50864 0.01838
1886.22287 0.01810
1884.93710 0.01812
1883.65133 0.01833
1882.36556 0.01856
1881.07979 0.01871
1879.79402 0.01886
1878.50826 0.01912
1877.22249 0.01949
1875.93672 0.01987
1874.65095 0.02014
1873.36518 0.02027
1872.07941 0.02031
1870.79364 0.02033
1869.50787 0.02039
1868.22211 0.02046
1866.93634 0.02046
1865.65057 0.02023
1864.36480 0.01977
1863.07903 0.01927
1861.79326 0.01901
1860.50749 0.01912
1859.22172 0.01949
1857.93595 0.01987
1856.65019 0.02008
1855.36442 0.02005
1854.07865 0.01984
1852.79288 0.01959
1851.50711 0.01942
1850.22134 0.01944
1848.93557 0.01963
1847.64980 0.01985
1846.36404 0.01992
1845.07827 0.01979
1843.79250 0.01963
1842.50673 0.01955
1841.22096 0.01954
1839.93519 0.01953
1838.64942 0.01954
1837.36365 0.01963
1836.07788 0.01981
1834.79212 0.02007
1833.50635 0.02030
1832.22058 0.02039
1830.93481 0.02033
1829.64904 0.02020
1828.36327 0.02012
1827.07750 0.02012
1825.79173 0.02020
1824.50597 0.02035
1823.22020 0.02050
1821.93443 0.02053
1820.64866 0.02044
1819.36289 0.02035
1818.07712 0.02032
1816.79135 0.02033
1815.50558 0.02031
1814.21981 0.02026
1812.93405 0.02021
1811.64828 0.02023
1810.36251 0.02032
1809.07674 0.02045
1807.79097 0.02058
1806.50520 0.02070
1805.21943 0.02082
1803.93366 0.02086
1802.64790 0.02079
1801.36213 0.02066
1800.07636 0.02062
1798.79059 0.02072
1797.50482 0.02087
1796.21905 0.02095
1794.93328 0.02097
1793.64751 0.02103
1792.36174 0.02120
1791.07598 0.02145
1789.79021 0.02167
1788.50444 0.02178
1787.21867 0.02182
1785.93290 0.02184
1784.64713 0.02191
1783.36136 0.02204
1782.07559 0.02218
1780.78983 0.02228
1779.50406 0.02233
1778.21829 0.02237
1776.93252 0.02241
1775.64675 0.02240
1774.36098 0.02234
1773.07521 0.02231
1771.78944 0.02243
1770.50367 0.02269
1769.21791 0.02296
1767.93214 0.02318
1766.64637 0.02335
1765.36060 0.02344
1764.07483 0.02345
1762.78906 0.02345
1761.50329 0.02352
1760.21752 0.02367
1758.93176 0.02379
1757.64599 0.02389
1756.36022 0.02405
1755.07445 0.02426
1753.78868 0.02438
1752.50291 0.02437
1751.21714 0.02434
1749.93137 0.02442
1748.64560 0.02461
1747.35984 0.02481
1746.07407 0.02496
1744.78830 0.02505
1743.50253 0.02512
1742.21676 0.02517
1740.93099 0.02521
1739.64522 0.02532
1738.35945 0.02555
1737.07369 0.02581
1735.78792 0.02597
1734.50215 0.02607
1733.21638 0.02626
1731.93061 0.02653
1730.64484 0.02676
1729.35907 0.02694
1728.07330 0.02715
1726.78753 0.02740
1725.50177 0.02768
1724.21600 0.02797
1722.93023 0.02833
1721.64446 0.02872
1720.35869 0.02905
1719.07292 0.02927
1717.78715 0.02950
1716.50138 0.02991
1715.21561 0.03047
1713.92985 0.03107
1712.64408 0.03163
1711.35831 0.03217
1710.07254 0.03272
1708.78677 0.03328
1707.50100 0.03384
1706.21523 0.03442
1704.92946 0.03508
1703.64370 0.03575
1702.35793 0.03627
1701.07216 0.03665
1699.78639 0.03709
1698.50062 0.03754
1697.21485 0.03783
1695.92908 0.03802
1694.64331 0.03834
1693.35754 0.03874
1692.07178 0.03907
1690.78601 0.03939
1689.50024 0.03983
1688.21447 0.04037
1686.92870 0.04082
1685.64293 0.04111
1684.35716 0.04146
1683.07139 0.04200
1681.78563 0.04257
1680.49986 0.04305
1679.21409 0.04348
1677.92832 0.04389
1676.64255 0.04427
1675.35678 0.04466
1674.07101 0.04511
1672.78524 0.04554
1671.49947 0.04586
1670.21371 0.04611
1668.92794 0.04645
1667.64217 0.04695
1666.35640 0.04751
1665.07063 0.04799
1663.78486 0.04839
1662.49909 0.04877
1661.21332 0.04918
1659.92756 0.04960
1658.64179 0.05001
1657.35602 0.05040
1656.07025 0.05069
1654.78448 0.05080
1653.49871 0.05090
1652.21294 0.05120
1650.92717 0.05162
1649.64140 0.05187
1648.35564 0.05186
1647.06987 0.05180
1645.78410 0.05188
1644.49833 0.05207
1643.21256 0.05230
1641.92679 0.05254
1640.64102 0.05279
1639.35525 0.05300
1638.06949 0.05310
1636.78372 0.05311
1635.49795 0.05317
1634.21218 0.05333
1632.92641 0.05349
1631.64064 0.05355
1630.35487 0.05359
1629.06910 0.05368
1627.78333 0.05386
1626.49757 0.05406
1625.21180 0.05420
1623.92603 0.05428
1622.64026 0.05439
1621.35449 0.05456
1620.06872 0.05475
1618.78295 0.05487
1617.49718 0.05498
1616.21142 0.05521
1614.92565 0.05554
1613.63988 0.05584
1612.35411 0.05608
1611.06834 0.05630
1609.78257 0.05653
1608.49680 0.05675
1607.21103 0.05697
1605.92526 0.05723
1604.63950 0.05751
1603.35373 0.05779
1602.06796 0.05805
1600.78219 0.05829
1599.49642 0.05854
1598.21065 0.05877
1596.92488 0.05900
1595.63911 0.05923
1594.35335 0.05946
1593.06758 0.05969
1591.78181 0.05990
1590.49604 0.06007
1589.21027 0.06019
1587.92450 0.06030
1586.63873 0.06044
1585.35296 0.06064
1584.06719 0.06090
1582.78143 0.06119
1581.49566 0.06151
1580.20989 0.06182
1578.92412 0.06206
1577.63835 0.06217
1576.35258 0.06227
1575.06681 0.06249
1573.78104 0.06279
1572.49528 0.06302
1571.20951 0.06317
1569.92374 0.06337
1568.63797 0.06367
1567.35220 0.06400
1566.06643 0.06428
1564.78066 0.06451
1563.49489 0.06475
1562.20912 0.06493
1560.92336 0.06500
1559.63759 0.06509
1558.35182 0.06532
1557.06605 0.06562
1555.78028 0.06579
1554.49451 0.06585
1553.20874 0.06596
1551.92297 0.06614
1550.63721 0.06631
1549.35144 0.06642
1548.06567 0.06649
1546.77990 0.06650
1545.49413 0.06645
1544.20836 0.06637
1542.92259 0.06625
1541.63682 0.06604
1540.35105 0.06581
1539.06529 0.06566
1537.77952 0.06562
1536.49375 0.06555
1535.20798 0.06542
1533.92221 0.06533
1532.63644 0.06542
1531.35067 0.06567
1530.06490 0.06598
1528.77914 0.06633
1527.49337 0.06676
1526.20760 0.06729
1524.92183 0.06790
1523.63606 0.06850
1522.35029 0.06911
1521.06452 0.06988
1519.77875 0.07088
1518.49298 0.07201
1517.20722 0.07318
1515.92145 0.07438
1514.63568 0.07562
1513.34991 0.07688
1512.06414 0.07819
1510.77837 0.07956
1509.49260 0.08088
1508.20683 0.08211
1506.92107 0.08334
1505.63530 0.08470
1504.34953 0.08613
1503.06376 0.08745
1501.77799 0.08861
1500.49222 0.08968
1499.20645 0.09069
1497.92068 0.09161
1496.63491 0.09249
1495.34915 0.09337
1494.06338 0.09425
1492.77761 0.09506
1491.49184 0.09582
1490.20607 0.09662
1488.92030 0.09751
1487.63453 0.09848
1486.34876 0.09954
1485.06299 0.10067
1483.77723 0.10184
1482.49146 0.10305
1481.20569 0.10432
1479.91992 0.10564
1478.63415 0.10698
1477.34838 0.10830
1476.06261 0.10955
1474.77684 0.11068
1473.49108 0.11166
1472.20531 0.11257
1470.91954 0.11353
1469.63377 0.11453
1468.34800 0.11548
1467.06223 0.11629
1465.77646 0.11699
1464.49069 0.11765
1463.20492 0.11834
1461.91916 0.11906
1460.63339 0.11979
1459.34762 0.12045
1458.06185 0.12102
1456.77608 0.12160
1455.49031 0.12228
1454.20454 0.12298
1452.91877 0.12362
1451.63301 0.12415
1450.34724 0.12460
1449.06147 0.12495
1447.77570 0.12520
1446.48993 0.12537
1445.20416 0.12545
1443.91839 0.12547
1442.63262 0.12543
1441.34685 0.12536
1440.06109 0.12522
1438.77532 0.12501
1437.48955 0.12484
1436.20378 0.12486
1434.91801 0.12513
1433.63224 0.12559
1432.34647 0.12619
1431.06070 0.12696
1429.77494 0.12796
1428.48917 0.12915
1427.20340 0.13044
1425.91763 0.13172
1424.63186 0.13294
1423.34609 0.13414
1422.06032 0.13527
1420.77455 0.13632
1419.48878 0.13732
1418.20302 0.13832
1416.91725 0.13926
1415.63148 0.14001
1414.34571 0.14051
1413.05994 0.14073
1411.77417 0.14067
1410.48840 0.14036
1409.20263 0.13984
1407.91687 0.13911
1406.63110 0.13817
1405.34533 0.13702
1404.05956 0.13566
1402.77379 0.13409
1401.48802 0.13228
1400.20225 0.13029
1398.91648 0.12822
1397.63071 0.12611
1396.34495 0.12396
1395.05918 0.12177
1393.77341 0.11959
1392.48764 0.11743
1391.20187 0.11530
1389.91610 0.11317
1388.63033 0.11107
1387.34456 0.10904
1386.05880 0.10711
1384.77303 0.10526
1383.48726 0.10348
1382.20149 0.10175
1380.91572 0.10002
1379.62995 0.09824
1378.34418 0.09634
1377.05841 0.09430
1375.77264 0.09212
1374.48688 0.08981
1373.20111 0.08740
1371.91534 0.08494
1370.62957 0.08251
1369.34380 0.08019
1368.05803 0.07806
1366.77226 0.07612
1365.48649 0.07427
1364.20073 0.07244
1362.91496 0.07062
1361.62919 0.06887
1360.34342 0.06724
1359.05765 0.06572
1357.77188 0.06428
1356.48611 0.06291
1355.20034 0.06162
1353.91457 0.06042
1352.62881 0.05931
1351.34304 0.05827
1350.05727 0.05728
1348.77150 0.05632
1347.48573 0.05535
1346.19996 0.05442
1344.91419 0.05356
1343.62842 0.05280
1342.34266 0.05213
1341.05689 0.05150
1339.77112 0.05085
1338.48535 0.05016
1337.19958 0.04944
1335.91381 0.04876
1334.62804 0.04815
1333.34227 0.04762
1332.05650 0.04710
1330.77074 0.04657
1329.48497 0.04605
1328.19920 0.04558
1326.91343 0.04521
1325.62766 0.04490
1324.34189 0.04460
1323.05612 0.04427
1321.77035 0.04388
1320.48459 0.04346
1319.19882 0.04302
1317.91305 0.04258
1316.62728 0.04217
1315.34151 0.04182
1314.05574 0.04154
1312.76997 0.04128
1311.48420 0.04099
1310.19843 0.04066
1308.91267 0.04033
1307.62690 0.04002
1306.34113 0.03974
1305.05536 0.03946
1303.76959 0.03916
1302.48382 0.03886
1301.19805 0.03859
1299.91228 0.03838
1298.62652 0.03821
1297.34075 0.03805
1296.05498 0.03782
1294.76921 0.03754
1293.48344 0.03723
1292.19767 0.03696
1290.91190 0.03675
1289.62613 0.03657
1288.34036 0.03637
1287.05460 0.03616
1285.76883 0.03595
1284.48306 0.03578
1283.19729 0.03562
1281.91152 0.03547
1280.62575 0.03527
1279.33998 0.03504
1278.05421 0.03479
1276.76845 0.03456
1275.48268 0.03436
1274.19691 0.03421
1272.91114 0.03410
1271.62537 0.03399
1270.33960 0.03384
1269.05383 0.03364
1267.76806 0.03341
1266.48229 0.03319
1265.19653 0.03302
1263.91076 0.03287
1262.62499 0.03273
1261.33922 0.03258
1260.05345 0.03245
1258.76768 0.03234
1257.48191 0.03227
1256.19614 0.03220
1254.91037 0.03214
1253.62461 0.03206
1252.33884 0.03195
1251.05307 0.03181
1249.76730 0.03165
1248.48153 0.03149
1247.19576 0.03133
1245.90999 0.03118
1244.62422 0.03106
1243.33846 0.03098
1242.05269 0.03093
1240.76692 0.03086
1239.48115 0.03074
1238.19538 0.03060
1236.90961 0.03046
1235.62384 0.03034
1234.33807 0.03024
1233.05230 0.03014
1231.76654 0.03000
1230.48077 0.02983
1229.19500 0.02967
1227.90923 0.02957
1226.62346 0.02955
1225.33769 0.02957
1224.05192 0.02958
1222.76615 0.02957
1221.48039 0.02953
1220.19462 0.02946
1218.90885 0.02939
1217.62308 0.02930
1216.33731 0.02920
1215.05154 0.02906
1213.76577 0.02891
1212.48000 0.02878
1211.19423 0.02868
1209.90847 0.02864
1208.62270 0.02862
1207.33693 0.02861
1206.05116 0.02857
1204.76539 0.02848
1203.47962 0.02836
1202.19385 0.02824
1200.90808 0.02817
1199.62232 0.02816
1198.33655 0.02821
1197.05078 0.02826
1195.76501 0.02826
1194.47924 0.02822
1193.19347 0.02817
1191.90770 0.02814
1190.62193 0.02811
1189.33616 0.02806
1188.05040 0.02800
1186.76463 0.02798
1185.47886 0.02800
1184.19309 0.02803
1182.90732 0.02804
1181.62155 0.02802
1180.33578 0.02800
1179.05001 0.02799
1177.76425 0.02799
1176.47848 0.02801
1175.19271 0.02804
1173.90694 0.02810
1172.62117 0.02821
1171.33540 0.02839
1170.04963 0.02863
1168.76386 0.02890
1167.47809 0.02913
1166.19233 0.02930
1164.90656 0.02941
1163.62079 0.02951
1162.33502 0.02967
1161.04925 0.02989
1159.76348 0.03014
1158.47771 0.03041
1157.19194 0.03071
1155.90618 0.03104
1154.62041 0.03139
1153.33464 0.03177
1152.04887 0.03217
1150.76310 0.03261
1149.47733 0.03310
1148.19156 0.03367
1146.90579 0.03435
1145.62002 0.03512
1144.33426 0.03596
1143.04849 0.03685
1141.76272 0.03778
1140.47695 0.03872
1139.19118 0.03970
1137.90541 0.04075
1136.61964 0.04193
1135.33387 0.04328
1134.04811 0.04486
1132.76234 0.04674
1131.47657 0.04893
1130.19080 0.05139
1128.90503 0.05406
1127.61926 0.05692
1126.33349 0.05999
1125.04772 0.06324
1123.76195 0.06666
1122.47619 0.07020
1121.19042 0.07383
1119.90465 0.07750
1118.61888 0.08117
1117.33311 0.08480
1116.04734 0.08841
1114.76157 0.09200
1113.47580 0.09551
1112.19004 0.09891
1110.90427 0.10223
1109.61850 0.10550
1108.33273 0.10872
1107.04696 0.11188
1105.76119 0.11490
1104.47542 0.11776
1103.18965 0.12048
1101.90388 0.12316
1100.61812 0.12586
1099.33235 0.12853
1098.04658 0.13104
1096.76081 0.13332
1095.47504 0.13539
1094.18927 0.13731
1092.90350 0.13911
1091.61773 0.14076
1090.33197 0.14230
1089.04620 0.14382
1087.76043 0.14539
1086.47466 0.14701
1085.18889 0.14867
1083.90312 0.15035
1082.61735 0.15206
1081.33158 0.15386
1080.04581 0.15580
1078.76005 0.15797
1077.47428 0.16034
1076.18851 0.16282
1074.90274 0.16536
1073.61697 0.16797
1072.33120 0.17071
1071.04543 0.17359
1069.75966 0.17654
1068.47390 0.17951
1067.18813 0.18254
1065.90236 0.18570
1064.61659 0.18903
1063.33082 0.19248
1062.04505 0.19600
1060.75928 0.19955
1059.47351 0.20307
1058.18774 0.20652
1056.90198 0.20988
1055.61621 0.21314
1054.33044 0.21636
1053.04467 0.21957
1051.75890 0.22281
1050.47313 0.22617
1049.18736 0.22973
1047.90159 0.23353
1046.61583 0.23748
1045.33006 0.24147
1044.04429 0.24546
1042.75852 0.24953
1041.47275 0.25373
1040.18698 0.25803
1038.90121 0.26234
1037.61544 0.26663
1036.32967 0.27089
1035.04391 0.27510
1033.75814 0.27916
1032.47237 0.28297
1031.18660 0.28653
1029.90083 0.28987
1028.61506 0.29296
1027.32929 0.29571
1026.04352 0.29804
1024.75775 0.29990
1023.47199 0.30129
1022.18622 0.30222
1020.90045 0.30266
1019.61468 0.30267
1018.32891 0.30229
1017.04314 0.30153
1015.75737 0.30033
1014.47160 0.29857
1013.18584 0.29621
1011.90007 0.29325
1010.61430 0.28981
1009.32853 0.28597
1008.04276 0.28174
1006.75699 0.27709
1005.47122 0.27199
1004.18545 0.26648
1002.89968 0.26065
1001.61392 0.25455
1000.32815 0.24819
999.04238 0.24159
997.75661 0.23480
996.47084 0.22788
995.18507 0.22090
993.89930 0.21389
992.61353 0.20688
991.32777 0.19993
990.04200 0.19312
988.75623 0.18652
987.47046 0.18014
986.18469 0.17398
984.89892 0.16796
983.61315 0.16208
982.32738 0.15643
981.04161 0.15116
979.75585 0.14635
978.47008 0.14197
977.18431 0.13795
975.89854 0.13426
974.61277 0.13091
973.32700 0.12795
972.04123 0.12543
970.75546 0.12343
969.46970 0.12205
968.18393 0.12135
966.89816 0.12129
965.61239 0.12175
964.32662 0.12247
963.04085 0.12314
961.75508 0.12345
960.46931 0.12322
959.18354 0.12238
957.89778 0.12096
956.61201 0.11904
955.32624 0.11672
954.04047 0.11412
952.75470 0.11132
951.46893 0.10844
950.18316 0.10564
948.89739 0.10302
947.61163 0.10059
946.32586 0.09824
945.04009 0.09590
943.75432 0.09356
942.46855 0.09124
941.18278 0.08898
939.89701 0.08682
938.61124 0.08477
937.32547 0.08287
936.03971 0.08111
934.75394 0.07951
933.46817 0.07806
932.18240 0.07672
930.89663 0.07541
929.61086 0.07410
928.32509 0.07278
927.03932 0.07148
925.75356 0.07024
924.46779 0.06911
923.18202 0.06808
921.89625 0.06716
920.61048 0.06632
919.32471 0.06557
918.03894 0.06487
916.75317 0.06424
915.46740 0.06366
914.18164 0.06313
912.89587 0.06257
911.61010 0.06195
910.32433 0.06128
909.03856 0.06059
907.75279 0.05991
906.46702 0.05932
905.18125 0.05883
903.89549 0.05840
902.60972 0.05792
901.32395 0.05739
900.03818 0.05689
898.75241 0.05647
897.46664 0.05611
896.18087 0.05576
894.89510 0.05547
893.60933 0.05532
892.32357 0.05539
891.03780 0.05568
889.75203 0.05622
888.46626 0.05714
887.18049 0.05861
885.89472 0.06075
884.60895 0.06357
883.32318 0.06700
882.03742 0.07080
880.75165 0.07455
879.46588 0.07772
878.18011 0.08000
876.89434 0.08150
875.60857 0.08261
874.32280 0.08360
873.03703 0.08431
871.75126 0.08434
870.46550 0.08345
869.17973 0.08165
867.89396 0.07920
866.60819 0.07637
865.32242 0.07344
864.03665 0.07061
862.75088 0.06799
861.46511 0.06560
860.17935 0.06341
858.89358 0.06141
857.60781 0.05963
856.32204 0.05812
855.03627 0.05691
853.75050 0.05599
852.46473 0.05527
851.17896 0.05463
849.89319 0.05401
848.60743 0.05338
847.32166 0.05280
846.03589 0.05227
844.75012 0.05180
843.46435 0.05140
842.17858 0.05106
840.89281 0.05074
839.60704 0.05043
838.32128 0.05010
837.03551 0.04979
835.74974 0.04953
834.46397 0.04934
833.17820 0.04922
831.89243 0.04910
830.60666 0.04890
829.32089 0.04858
828.03512 0.04823
826.74936 0.04795
825.46359 0.04780
824.17782 0.04773
822.89205 0.04767
821.60628 0.04760
820.32051 0.04751
819.03474 0.04739
817.74897 0.04727
816.46321 0.04716
815.17744 0.04708
813.89167 0.04700
812.60590 0.04690
811.32013 0.04673
810.03436 0.04651
808.74859 0.04628
807.46282 0.04614
806.17705 0.04616
804.89129 0.04633
803.60552 0.04652
802.31975 0.04661
801.03398 0.04654
799.74821 0.04640
798.46244 0.04629
797.17667 0.04624
795.89090 0.04622
794.60513 0.04621
793.31937 0.04622
792.03360 0.04627
790.74783 0.04629
789.46206 0.04620
788.17629 0.04601
786.89052 0.04581
785.60475 0.04564
784.31898 0.04552
783.03322 0.04538
781.74745 0.04525
780.46168 0.04519
779.17591 0.04530
777.89014 0.04552
776.60437 0.04567
775.31860 0.04565
774.03283 0.04549
772.74706 0.04532
771.46130 0.04521
770.17553 0.04513
768.88976 0.04503
767.60399 0.04491
766.31822 0.04479
765.03245 0.04474
763.74668 0.04477
762.46091 0.04482
761.17515 0.04490
759.88938 0.04502
758.60361 0.04520
757.31784 0.04534
756.03207 0.04538
754.74630 0.04528
753.46053 0.04508
752.17476 0.04487
750.88899 0.04472
749.60323 0.04464
748.31746 0.04459
747.03169 0.04447
745.74592 0.04425
744.46015 0.04405
743.17438 0.04403
741.88861 0.04424
740.60284 0.04460
739.31708 0.04487
738.03131 0.04494
736.74554 0.04486
735.45977 0.04478
734.17400 0.04473
732.88823 0.04467
731.60246 0.04456
730.31669 0.04447
729.03092 0.04444
727.74516 0.04445
726.45939 0.04444
725.17362 0.04434
723.88785 0.04414
722.60208 0.04399
721.31631 0.04395
720.03054 0.04402
718.74477 0.04412
717.45901 0.04417
716.17324 0.04410
714.88747 0.04391
713.60170 0.04365
712.31593 0.04339
711.03016 0.04321
709.74439 0.04310
708.45862 0.04303
707.17285 0.04297
705.88709 0.04287
704.60132 0.04277
703.31555 0.04267
702.02978 0.04261
700.74401 0.04258
699.45824 0.04258
698.17247 0.04259
696.88670 0.04260
695.60094 0.04258
694.31517 0.04255
693.02940 0.04248
691.74363 0.04240
690.45786 0.04230
689.17209 0.04218
687.88632 0.04206
686.60055 0.04190
685.31478 0.04171
684.02902 0.04150
682.74325 0.04130
681.45748 0.04116
680.17171 0.04108
678.88594 0.04103
677.60017 0.04099
676.31440 0.04097
675.02863 0.04101
673.74287 0.04113
672.45710 0.04130
671.17133 0.04147
669.88556 0.04159
668.59979 0.04168
667.31402 0.04174
666.02825 0.04168
664.74248 0.04148
663.45671 0.04116
662.17095 0.04080
660.88518 0.04048
659.59941 0.04024
658.31364 0.04006
657.02787 0.03993
655.74210 0.03986
654.45633 0.03983
653.17056 0.03980
651.88480 0.03973
650.59903 0.03960
649.31326 0.03948
648.02749 0.03941
646.74172 0.03943
645.45595 0.03951
644.17018 0.03961
642.88441 0.03968
641.59864 0.03973
640.31288 0.03979
639.02711 0.03987
637.74134 0.03996
636.45557 0.04008
635.16980 0.04028
633.88403 0.04059
632.59826 0.04101
631.31249 0.04152
630.02673 0.04214
628.74096 0.04289
627.45519 0.04370
626.16942 0.04481
624.88365 0.04621
623.59788 0.04796
622.31211 0.05016
621.02634 0.05268
619.74057 0.05507
618.45481 0.05710
617.16904 0.05919
615.88327 0.06212
614.59750 0.06643
613.31173 0.07202
612.02596 0.07820
610.74019 0.08405
609.45442 0.08891
608.16866 0.09293
606.88289 0.09676
605.59712 0.10075
604.31135 0.10447
603.02558 0.10722
601.73981 0.10867
600.45404 0.10891
599.16827 0.10807
597.88250 0.10617
596.59674 0.10334
595.31097 0.10007
594.02520 0.09697
592.73943 0.09450
591.45366 0.09282
590.16789 0.09188
588.88212 0.09154
587.59635 0.09168
586.31059 0.09233
585.02482 0.09354
583.73905 0.09531
582.45328 0.09746
581.16751 0.09978
579.88174 0.10217
578.59597 0.10466
577.31020 0.10726
576.02443 0.10988
574.73867 0.11234
573.45290 0.11456
572.16713 0.11672
570.88136 0.11922
569.59559 0.12236
568.30982 0.12618
567.02405 0.13043
565.73828 0.13476
564.45251 0.13877
563.16675 0.14202
561.88098 0.14398
560.59521 0.14419
559.30944 0.14246
558.02367 0.13894
556.73790 0.13403
555.45213 0.12824
554.16636 0.12204
552.88060 0.11584
551.59483 0.10998
550.30906 0.10465
549.02329 0.09994
547.73752 0.09579
546.45175 0.09209
545.16598 0.08866
543.88021 0.08540
542.59444 0.08228
541.30868 0.07937
540.02291 0.07678
538.73714 0.07457
537.45137 0.07272
536.16560 0.07114
534.87983 0.06971
533.59406 0.06827
532.30829 0.06674
531.02253 0.06516
529.73676 0.06362
528.45099 0.06217
527.16522 0.06078
525.87945 0.05943
524.59368 0.05818
523.30791 0.05707
522.02214 0.05605
520.73637 0.05507
519.45061 0.05409
518.16484 0.05317
516.87907 0.05235
515.59330 0.05163
514.30753 0.05092
513.02176 0.05021
511.73599 0.04954
510.45022 0.04898
509.16446 0.04853
507.87869 0.04807
506.59292 0.04754
505.30715 0.04690
504.02138 0.04622
502.73561 0.04556
501.44984 0.04494
500.16407 0.04434
498.87830 0.04377
497.59254 0.04329
496.30677 0.04300
495.02100 0.04285
493.73523 0.04273
492.44946 0.04253
491.16369 0.04221
489.87792 0.04182
488.59215 0.04142
487.30639 0.04114
486.02062 0.04111
484.73485 0.04136
483.44908 0.04181
482.16331 0.04228
480.87754 0.04258
479.59177 0.04269
478.30600 0.04276
477.02023 0.04293
475.73447 0.04325
474.44870 0.04361
473.16293 0.04390
471.87716 0.04407
470.59139 0.04414
469.30562 0.04413
468.01985 0.04411
466.73408 0.04409
465.44832 0.04403
464.16255 0.04386
462.87678 0.04353
461.59101 0.04310
460.30524 0.04264
459.01947 0.04219
457.73370 0.04177
456.44793 0.04142
455.16216 0.04117
453.87640 0.04101
452.59063 0.04089
451.30486 0.04073
450.01909 0.04050
448.73332 0.04023
447.44755 0.03997
446.16178 0.03976
444.87601 0.03956
443.59025 0.03933
442.30448 0.03906
441.01871 0.03877
439.73294 0.03853
438.44717 0.03835
437.16140 0.03825
435.87563 0.03822
434.58986 0.03822
433.30409 0.03823
432.01833 0.03823
430.73256 0.03821
429.44679 0.03814
428.16102 0.03803
426.87525 0.03787
425.58948 0.03770
424.30371 0.03754
423.01794 0.03739
421.73218 0.03722
420.44641 0.03704
419.16064 0.03687
417.87487 0.03675
416.58910 0.03668
415.30333 0.03666
414.01756 0.03666
412.73179 0.03665
411.44602 0.03656
410.16026 0.03643
408.87449 0.03634
407.58872 0.03635
406.30295 0.03647
405.01718 0.03664
403.73141 0.03679
402.44564 0.03687
401.15987 0.03688
399.87411 0.03686
