3997.45528 0.03653
3996.16951 0.03692
3994.88374 0.03691
3993.59798 0.03663
3992.31221 0.03672
3991.02644 0.03761
3989.74067 0.03901
3988.45490 0.04017
3987.16913 0.04051
3985.88336 0.03996
3984.59759 0.03879
3983.31183 0.03743
3982.02606 0.03635
3980.74029 0.03588
3979.45452 0.03609
3978.16875 0.03671
3976.88298 0.03726
3975.59721 0.03747
3974.31144 0.03739
3973.02567 0.03726
3971.73991 0.03709
3970.45414 0.03671
3969.16837 0.03612
3967.88260 0.03574
3966.59683 0.03605
3965.31106 0.03705
3964.02529 0.03810
3962.73952 0.03838
3961.45376 0.03765
3960.16799 0.03657
3958.88222 0.03606
3957.59645 0.03635
3956.31068 0.03679
3955.02491 0.03667
3953.73914 0.03606
3952.45337 0.03574
3951.16760 0.03630
3949.88184 0.03744
3948.59607 0.03831
3947.31030 0.03844
3946.02453 0.03810
3944.73876 0.03774
3943.45299 0.03754
3942.16722 0.03750
3940.88145 0.03770
3939.59569 0.03812
3938.30992 0.03835
3937.02415 0.03794
3935.73838 0.03699
3934.45261 0.03609
3933.16684 0.03586
3931.88107 0.03636
3930.59530 0.03716
3929.30953 0.03772
3928.02377 0.03771
3926.73800 0.03727
3925.45223 0.03684
3924.16646 0.03679
3922.88069 0.03707
3921.59492 0.03731
3920.30915 0.03724
3919.02338 0.03686
3917.73762 0.03631
3916.45185 0.03573
3915.16608 0.03524
3913.88031 0.03482
3912.59454 0.03442
3911.30877 0.03413
3910.02300 0.03425
3908.73723 0.03483
3907.45146 0.03528
3906.16570 0.03482
3904.87993 0.03342
3903.59416 0.03201
3902.30839 0.03162
3901.02262 0.03241
3899.73685 0.03372
3898.45108 0.03478
3897.16531 0.03540
3895.87955 0.03585
3894.59378 0.03639
3893.30801 0.03698
3892.02224 0.03740
3890.73647 0.03750
3889.45070 0.03729
3888.16493 0.03680
3886.87916 0.03620
3885.59339 0.03577
3884.30763 0.03571
3883.02186 0.03581
3881.73609 0.03565
3880.45032 0.03505
3879.16455 0.03427
3877.87878 0.03359
3876.59301 0.03306
3875.30724 0.03269
3874.02148 0.03276
3872.73571 0.03367
3871.44994 0.03540
3870.16417 0.03716
3868.87840 0.03786
3867.59263 0.03704
3866.30686 0.03531
3865.02109 0.03368
3863.73532 0.03271
3862.44956 0.03241
3861.16379 0.03263
3859.87802 0.03325
3858.59225 0.03415
3857.30648 0.03510
3856.02071 0.03591
3854.73494 0.03657
3853.44917 0.03712
3852.16341 0.03745
3850.87764 0.03729
3849.59187 0.03670
3848.30610 0.03616
3847.02033 0.03620
3845.73456 0.03683
3844.44879 0.03756
3843.16302 0.03783
3841.87725 0.03731
3840.59149 0.03599
3839.30572 0.03417
3838.01995 0.03246
3836.73418 0.03154
3835.44841 0.03179
3834.16264 0.03302
3832.87687 0.03446
3831.59110 0.03530
3830.30534 0.03528
3829.01957 0.03473
3827.73380 0.03410
3826.44803 0.03359
3825.16226 0.03320
3823.87649 0.03287
3822.59072 0.03256
3821.30495 0.03228
3820.01918 0.03212
3818.73342 0.03219
3817.44765 0.03251
3816.16188 0.03298
3814.87611 0.03360
3813.59034 0.03440
3812.30457 0.03533
3811.01880 0.03627
3809.73303 0.03709
3808.44726 0.03761
3807.16150 0.03763
3805.87573 0.03705
3804.58996 0.03620
3803.30419 0.03574
3802.01842 0.03607
3800.73265 0.03691
3799.44688 0.03760
3798.16111 0.03781
3796.87535 0.03763
3795.58958 0.03711
3794.30381 0.03606
3793.01804 0.03433
3791.73227 0.03228
3790.44650 0.03061
3789.16073 0.02983
3787.87496 0.02993
3786.58919 0.03050
3785.30343 0.03116
3784.01766 0.03165
3782.73189 0.03186
3781.44612 0.03186
3780.16035 0.03183
3778.87458 0.03197
3777.58881 0.03225
3776.30304 0.03252
3775.01728 0.03271
3773.73151 0.03299
3772.44574 0.03351
3771.15997 0.03420
3769.87420 0.03486
3768.58843 0.03528
3767.30266 0.03534
3766.01689 0.03497
3764.73112 0.03424
3763.44536 0.03329
3762.15959 0.03232
3760.87382 0.03153
3759.58805 0.03122
3758.30228 0.03162
3757.01651 0.03260
3755.73074 0.03356
3754.44497 0.03393
3753.15921 0.03368
3751.87344 0.03321
3750.58767 0.03283
3749.30190 0.03250
3748.01613 0.03216
3746.73036 0.03184
3745.44459 0.03154
3744.15882 0.03117
3742.87305 0.03085
3741.58729 0.03098
3740.30152 0.03183
3739.01575 0.03313
3737.72998 0.03432
3736.44421 0.03494
3735.15844 0.03487
3733.87267 0.03411
3732.58690 0.03276
3731.30114 0.03114
3730.01537 0.02982
3728.72960 0.02930
3727.44383 0.02964
3726.15806 0.03046
3724.87229 0.03123
3723.58652 0.03175
3722.30075 0.03213
3721.01498 0.03256
3719.72922 0.03306
3718.44345 0.03360
3717.15768 0.03400
3715.87191 0.03397
3714.58614 0.03333
3713.30037 0.03228
3712.01460 0.03127
3710.72883 0.03058
3709.44307 0.03021
3708.15730 0.03016
3706.87153 0.03053
3705.58576 0.03120
3704.29999 0.03170
3703.01422 0.03171
3701.72845 0.03135
3700.44268 0.03107
3699.15691 0.03111
3697.87115 0.03130
3696.58538 0.03122
3695.29961 0.03059
3694.01384 0.02958
3692.72807 0.02888
3691.44230 0.02900
3690.15653 0.02974
3688.87076 0.03036
3687.58500 0.03039
3686.29923 0.03014
3685.01346 0.03012
3683.72769 0.03046
3682.44192 0.03083
3681.15615 0.03104
3679.87038 0.03128
3678.58461 0.03181
3677.29884 0.03252
3676.01308 0.03305
3674.72731 0.03318
3673.44154 0.03309
3672.15577 0.03319
3670.87000 0.03368
3669.58423 0.03439
3668.29846 0.03491
3667.01269 0.03490
3665.72693 0.03423
3664.44116 0.03310
3663.15539 0.03197
3661.86962 0.03139
3660.58385 0.03162
3659.29808 0.03252
3658.01231 0.03373
3656.72654 0.03487
3655.44077 0.03567
3654.15501 0.03602
3652.86924 0.03597
3651.58347 0.03566
3650.29770 0.03523
3649.01193 0.03484
3647.72616 0.03468
3646.44039 0.03473
3645.15462 0.03486
3643.86886 0.03497
3642.58309 0.03518
3641.29732 0.03565
3640.01155 0.03628
3638.72578 0.03683
3637.44001 0.03724
3636.15424 0.03772
3634.86847 0.03844
3633.58270 0.03931
3632.29694 0.04007
3631.01117 0.04048
3629.72540 0.04032
3628.43963 0.03946
3627.15386 0.03805
3625.86809 0.03657
3624.58232 0.03555
3623.29655 0.03524
3622.01079 0.03556
3620.72502 0.03622
3619.43925 0.03685
3618.15348 0.03701
3616.86771 0.03653
3615.58194 0.03580
3614.29617 0.03558
3613.01040 0.03629
3611.72463 0.03758
3610.43887 0.03882
3609.15310 0.03976
3607.86733 0.04052
3606.58156 0.04116
3605.29579 0.04154
3604.01002 0.04158
3602.72425 0.04147
3601.43848 0.04142
3600.15272 0.04161
3598.86695 0.04218
3597.58118 0.04303
3596.29541 0.04367
3595.00964 0.04361
3593.72387 0.04294
3592.43810 0.04227
3591.15233 0.04214
3589.86656 0.04244
3588.58080 0.04273
3587.29503 0.04277
3586.00926 0.04267
3584.72349 0.04257
3583.43772 0.04250
3582.15195 0.04248
3580.86618 0.04264
3579.58041 0.04311
3578.29464 0.04389
3577.00888 0.04477
3575.72311 0.04541
3574.43734 0.04554
3573.15157 0.04519
3571.86580 0.04478
3570.58003 0.04470
3569.29426 0.04500
3568.00849 0.04542
3566.72273 0.04575
3565.43696 0.04599
3564.15119 0.04623
3562.86542 0.04646
3561.57965 0.04664
3560.29388 0.04682
3559.00811 0.04711
3557.72234 0.04763
3556.43657 0.04834
3555.15081 0.04908
3553.86504 0.04962
3552.57927 0.04982
3551.29350 0.04962
3550.00773 0.04904
3548.72196 0.04824
3547.43619 0.04759
3546.15042 0.04747
3544.86466 0.04792
3543.57889 0.04850
3542.29312 0.04882
3541.00735 0.04893
3539.72158 0.04919
3538.43581 0.04977
3537.15004 0.05048
3535.86427 0.05096
3534.57850 0.05103
3533.29274 0.05093
3532.00697 0.05105
3530.72120 0.05161
3529.43543 0.05237
3528.14966 0.05295
3526.86389 0.05324
3525.57812 0.05344
3524.29235 0.05368
3523.00659 0.05387
3521.72082 0.05385
3520.43505 0.05354
3519.14928 0.05301
3517.86351 0.05232
3516.57774 0.05165
3515.29197 0.05131
3514.00620 0.05158
3512.72043 0.05231
3511.43467 0.05302
3510.14890 0.05329
3508.86313 0.05313
3507.57736 0.05294
3506.29159 0.05318
3505.00582 0.05409
3503.72005 0.05548
3502.43428 0.05677
3501.14852 0.05736
3499.86275 0.05715
3498.57698 0.05655
3497.29121 0.05605
3496.00544 0.05579
3494.71967 0.05561
3493.43390 0.05537
3492.14813 0.05519
3490.86236 0.05523
3489.57660 0.05549
3488.29083 0.05584
3487.00506 0.05632
3485.71929 0.05708
3484.43352 0.05806
3483.14775 0.05872
3481.86198 0.05857
3480.57621 0.05782
3479.29045 0.05734
3478.00468 0.05775
3476.71891 0.05878
3475.43314 0.05958
3474.14737 0.05973
3472.86160 0.05952
3471.57583 0.05955
3470.29006 0.06001
3469.00429 0.06058
3467.71853 0.06077
3466.43276 0.06038
3465.14699 0.05961
3463.86122 0.05893
3462.57545 0.05864
3461.28968 0.05869
3460.00391 0.05888
3458.71814 0.05906
3457.43238 0.05930
3456.14661 0.05971
3454.86084 0.06032
3453.57507 0.06104
3452.28930 0.06161
3451.00353 0.06177
3449.71776 0.06151
3448.43199 0.06118
3447.14622 0.06107
3445.86046 0.06110
3444.57469 0.06104
3443.28892 0.06083
3442.00315 0.06070
3440.71738 0.06084
3439.43161 0.06116
3438.14584 0.06134
3436.86007 0.06121
3435.57431 0.06094
3434.28854 0.06091
3433.00277 0.06131
3431.71700 0.06199
3430.43123 0.06261
3429.14546 0.06290
3427.85969 0.06272
3426.57392 0.06218
3425.28815 0.06156
3424.00239 0.06116
3422.71662 0.06103
3421.43085 0.06107
3420.14508 0.06120
3418.85931 0.06140
3417.57354 0.06169
3416.28777 0.06204
3415.00200 0.06252
3413.71624 0.06313
3412.43047 0.06383
3411.14470 0.06448
3409.85893 0.06496
3408.57316 0.06523
3407.28739 0.06537
3406.00162 0.06554
3404.71585 0.06575
3403.43008 0.06593
3402.14432 0.06605
3400.85855 0.06626
3399.57278 0.06662
3398.28701 0.06693
3397.00124 0.06703
3395.71547 0.06693
3394.42970 0.06688
3393.14393 0.06708
3391.85817 0.06748
3390.57240 0.06778
3389.28663 0.06773
3388.00086 0.06732
3386.71509 0.06661
3385.42932 0.06579
3384.14355 0.06519
3382.85778 0.06515
3381.57201 0.06572
3380.28625 0.06640
3379.00048 0.06659
3377.71471 0.06608
3376.42894 0.06507
3375.14317 0.06400
3373.85740 0.06330
3372.57163 0.06324
3371.28586 0.06377
3370.00010 0.06452
3368.71433 0.06511
3367.42856 0.06538
3366.14279 0.06540
3364.85702 0.06529
3363.57125 0.06514
3362.28548 0.06505
3360.99971 0.06512
3359.71394 0.06537
3358.42818 0.06573
3357.14241 0.06605
3355.85664 0.06629
3354.57087 0.06651
3353.28510 0.06672
3351.99933 0.06679
3350.71356 0.06655
3349.42779 0.06601
3348.14202 0.06534
3346.85626 0.06481
3345.57049 0.06462
3344.28472 0.06476
3342.99895 0.06506
3341.71318 0.06528
3340.42741 0.06539
3339.14164 0.06548
3337.85587 0.06552
3336.57011 0.06534
3335.28434 0.06482
3333.99857 0.06411
3332.71280 0.06347
3331.42703 0.06317
3330.14126 0.06334
3328.85549 0.06384
3327.56972 0.06430
3326.28395 0.06439
3324.99819 0.06411
3323.71242 0.06388
3322.42665 0.06408
3321.14088 0.06466
3319.85511 0.06516
3318.56934 0.06518
3317.28357 0.06466
3315.99780 0.06394
3314.71204 0.06348
3313.42627 0.06357
3312.14050 0.06409
3310.85473 0.06462
3309.56896 0.06484
3308.28319 0.06486
3306.99742 0.06505
3305.71165 0.06554
3304.42588 0.06609
3303.14012 0.06634
3301.85435 0.06618
3300.56858 0.06577
3299.28281 0.06538
3297.99704 0.06515
3296.71127 0.06497
3295.42550 0.06471
3294.13973 0.06434
3292.85397 0.06404
3291.56820 0.06394
3290.28243 0.06400
3288.99666 0.06401
3287.71089 0.06383
3286.42512 0.06351
3285.13935 0.06320
3283.85358 0.06298
3282.56781 0.06284
3281.28205 0.06294
3279.99628 0.06346
3278.71051 0.06432
3277.42474 0.06511
3276.13897 0.06549
3274.85320 0.06537
3273.56743 0.06497
3272.28166 0.06462
3270.99590 0.06462
3269.71013 0.06502
3268.42436 0.06548
3267.13859 0.06558
3265.85282 0.06527
3264.56705 0.06485
3263.28128 0.06460
3261.99551 0.06449
3260.70974 0.06430
3259.42398 0.06386
3258.13821 0.06320
3256.85244 0.06246
3255.56667 0.06179
3254.28090 0.06142
3252.99513 0.06158
3251.70936 0.06233
3250.42359 0.06337
3249.13783 0.06416
3247.85206 0.06425
3246.56629 0.06364
3245.28052 0.06276
3243.99475 0.06217
3242.70898 0.06213
3241.42321 0.06244
3240.13744 0.06279
3238.85167 0.06302
3237.56591 0.06315
3236.28014 0.06322
3234.99437 0.06326
3233.70860 0.06321
3232.42283 0.06308
3231.13706 0.06289
3229.85129 0.06269
3228.56552 0.06248
3227.27976 0.06220
3225.99399 0.06186
3224.70822 0.06160
3223.42245 0.06155
3222.13668 0.06166
3220.85091 0.06180
3219.56514 0.06190
3218.27937 0.06201
3216.99360 0.06216
3215.70784 0.06223
3214.42207 0.06207
3213.13630 0.06165
3211.85053 0.06110
3210.56476 0.06064
3209.27899 0.06041
3207.99322 0.06038
3206.70745 0.06044
3205.42169 0.06043
3204.13592 0.06029
3202.85015 0.06009
3201.56438 0.05999
3200.27861 0.06008
3198.99284 0.06029
3197.70707 0.06047
3196.42130 0.06051
3195.13553 0.06043
3193.84977 0.06035
3192.56400 0.06035
3191.27823 0.06039
3189.99246 0.06028
3188.70669 0.05988
3187.42092 0.05936
3186.13515 0.05902
3184.84938 0.05911
3183.56362 0.05953
3182.27785 0.06004
3180.99208 0.06041
3179.70631 0.06056
3178.42054 0.06046
3177.13477 0.06011
3175.84900 0.05951
3174.56323 0.05872
3173.27746 0.05792
3171.99170 0.05732
3170.70593 0.05715
3169.42016 0.05740
3168.13439 0.05783
3166.84862 0.05805
3165.56285 0.05786
3164.27708 0.05732
3162.99131 0.05674
3161.70555 0.05645
3160.41978 0.05654
3159.13401 0.05694
3157.84824 0.05744
3156.56247 0.05785
3155.27670 0.05811
3153.99093 0.05819
3152.70516 0.05801
3151.41939 0.05747
3150.13363 0.05675
3148.84786 0.05627
3147.56209 0.05627
3146.27632 0.05666
3144.99055 0.05713
3143.70478 0.05751
3142.41901 0.05778
3141.13324 0.05794
3139.84748 0.05796
3138.56171 0.05784
3137.27594 0.05768
3135.99017 0.05756
3134.70440 0.05749
3133.41863 0.05737
3132.13286 0.05715
3130.84709 0.05689
3129.56132 0.05674
3128.27556 0.05673
3126.98979 0.05683
3125.70402 0.05697
3124.41825 0.05710
3123.13248 0.05702
3121.84671 0.05649
3120.56094 0.05552
3119.27517 0.05446
3117.98940 0.05374
3116.70364 0.05347
3115.41787 0.05349
3114.13210 0.05364
3112.84633 0.05393
3111.56056 0.05436
3110.27479 0.05478
3108.98902 0.05493
3107.70325 0.05470
3106.41749 0.05428
3105.13172 0.05397
3103.84595 0.05383
3102.56018 0.05372
3101.27441 0.05354
3099.98864 0.05338
3098.70287 0.05338
3097.41710 0.05350
3096.13133 0.05351
3094.84557 0.05321
3093.55980 0.05263
3092.27403 0.05198
3090.98826 0.05150
3089.70249 0.05131
3088.41672 0.05140
3087.13095 0.05161
3085.84518 0.05176
3084.55942 0.05174
3083.27365 0.05152
3081.98788 0.05121
3080.70211 0.05099
3079.41634 0.05098
3078.13057 0.05113
3076.84480 0.05131
3075.55903 0.05156
3074.27326 0.05200
3072.98750 0.05264
3071.70173 0.05318
3070.41596 0.05330
3069.13019 0.05294
3067.84442 0.05233
3066.55865 0.05175
3065.27288 0.05134
3063.98711 0.05111
3062.70135 0.05099
3061.41558 0.05097
3060.12981 0.05104
3058.84404 0.05116
3057.55827 0.05116
3056.27250 0.05093
3054.98673 0.05053
3053.70096 0.05018
3052.41519 0.05005
3051.12943 0.05011
3049.84366 0.05013
3048.55789 0.05002
3047.27212 0.04985
3045.98635 0.04976
3044.70058 0.04974
3043.41481 0.04974
3042.12904 0.04980
3040.84328 0.04993
3039.55751 0.05001
3038.27174 0.04982
3036.98597 0.04932
3035.70020 0.04870
3034.41443 0.04828
3033.12866 0.04823
3031.84289 0.04847
3030.55712 0.04880
3029.27136 0.04907
3027.98559 0.04920
3026.69982 0.04920
3025.41405 0.04904
3024.12828 0.04875
3022.84251 0.04844
3021.55674 0.04825
3020.27097 0.04822
3018.98521 0.04833
3017.69944 0.04844
3016.41367 0.04845
3015.12790 0.04834
3013.84213 0.04818
3012.55636 0.04806
3011.27059 0.04796
3009.98482 0.04781
3008.69905 0.04761
3007.41329 0.04743
3006.12752 0.04740
3004.84175 0.04750
3003.55598 0.04761
3002.27021 0.04757
3000.98444 0.04735
2999.69867 0.04699
2998.41290 0.04658
2997.12714 0.04630
2995.84137 0.04629
2994.55560 0.04654
2993.26983 0.04687
2991.98406 0.04708
2990.69829 0.04713
2989.41252 0.04714
2988.12675 0.04719
2986.84098 0.04725
2985.55522 0.04725
2984.26945 0.04718
2982.98368 0.04703
2981.69791 0.04679
2980.41214 0.04655
2979.12637 0.04645
2977.84060 0.04665
2976.55483 0.04709
2975.26907 0.04758
2973.98330 0.04790
2972.69753 0.04806
2971.41176 0.04815
2970.12599 0.04821
2968.84022 0.04820
2967.55445 0.04817
2966.26868 0.04831
2964.98291 0.04871
2963.69715 0.04926
2962.41138 0.04967
2961.12561 0.04978
2959.83984 0.04967
2958.55407 0.04956
2957.26830 0.04966
2955.98253 0.05005
2954.69676 0.05054
2953.41100 0.05075
2952.12523 0.05045
2950.83946 0.04981
2949.55369 0.04928
2948.26792 0.04911
2946.98215 0.04923
2945.69638 0.04945
2944.41061 0.04969
2943.12484 0.04985
2941.83908 0.04980
2940.55331 0.04949
2939.26754 0.04913
2937.98177 0.04898
2936.69600 0.04909
2935.41023 0.04933
2934.12446 0.04951
2932.83869 0.04958
2931.55293 0.04952
2930.26716 0.04940
2928.98139 0.04924
2927.69562 0.04906
2926.40985 0.04896
2925.12408 0.04908
2923.83831 0.04943
2922.55254 0.04980
2921.26677 0.04987
2919.98101 0.04956
2918.69524 0.04904
2917.40947 0.04851
2916.12370 0.04798
2914.83793 0.04737
2913.55216 0.04669
2912.26639 0.04612
2910.98062 0.04588
2909.69486 0.04595
2908.40909 0.04611
2907.12332 0.04616
2905.83755 0.04610
2904.55178 0.04609
2903.26601 0.04612
2901.98024 0.04602
2900.69447 0.04568
2899.40870 0.04519
2898.12294 0.04471
2896.83717 0.04441
2895.55140 0.04437
2894.26563 0.04456
2892.97986 0.04483
2891.69409 0.04493
2890.40832 0.04479
2889.12255 0.04451
2887.83678 0.04430
2886.55102 0.04425
2885.26525 0.04431
2883.97948 0.04433
2882.69371 0.04424
2881.40794 0.04406
2880.12217 0.04387
2878.83640 0.04370
2877.55063 0.04349
2876.26487 0.04321
2874.97910 0.04288
2873.69333 0.04265
2872.40756 0.04267
2871.12179 0.04290
2869.83602 0.04313
2868.55025 0.04316
2867.26448 0.04295
2865.97871 0.04262
2864.69295 0.04236
2863.40718 0.04222
2862.12141 0.04213
2860.83564 0.04203
2859.54987 0.04193
2858.26410 0.04187
2856.97833 0.04176
2855.69256 0.04158
2854.40680 0.04138
2853.12103 0.04117
2851.83526 0.04091
2850.54949 0.04059
2849.26372 0.04028
2847.97795 0.03996
2846.69218 0.03959
2845.40641 0.03920
2844.12064 0.03891
2842.83488 0.03872
2841.54911 0.03855
2840.26334 0.03837
2838.97757 0.03822
2837.69180 0.03817
2836.40603 0.03821
2835.12026 0.03830
2833.83449 0.03835
2832.54873 0.03827
2831.26296 0.03811
2829.97719 0.03797
2828.69142 0.03785
2827.40565 0.03765
2826.11988 0.03726
2824.83411 0.03669
2823.54834 0.03610
2822.26257 0.03567
2820.97681 0.03550
2819.69104 0.03560
2818.40527 0.03592
2817.11950 0.03632
2815.83373 0.03657
2814.54796 0.03654
2813.26219 0.03627
2811.97642 0.03583
2810.69066 0.03531
2809.40489 0.03486
2808.11912 0.03466
2806.83335 0.03470
2805.54758 0.03485
2804.26181 0.03496
2802.97604 0.03501
2801.69027 0.03501
2800.40450 0.03492
2799.11874 0.03473
2797.83297 0.03452
2796.54720 0.03439
2795.26143 0.03444
2793.97566 0.03467
2792.68989 0.03490
2791.40412 0.03493
2790.11835 0.03473
2788.83259 0.03443
2787.54682 0.03414
2786.26105 0.03389
2784.97528 0.03367
2783.68951 0.03355
2782.40374 0.03360
2781.11797 0.03374
2779.83220 0.03382
2778.54643 0.03375
2777.26067 0.03358
2775.97490 0.03345
2774.68913 0.03341
2773.40336 0.03339
2772.11759 0.03337
2770.83182 0.03340
2769.54605 0.03353
2768.26028 0.03369
2766.97452 0.03373
2765.68875 0.03363
2764.40298 0.03353
2763.11721 0.03353
2761.83144 0.03354
2760.54567 0.03340
2759.25990 0.03312
2757.97413 0.03281
2756.68836 0.03258
2755.40260 0.03242
2754.11683 0.03232
2752.83106 0.03228
2751.54529 0.03234
2750.25952 0.03252
2748.97375 0.03277
2747.68798 0.03299
2746.40221 0.03304
2745.11645 0.03285
2743.83068 0.03255
2742.54491 0.03235
2741.25914 0.03236
2739.97337 0.03246
2738.68760 0.03245
2737.40183 0.03229
2736.11606 0.03213
2734.83029 0.03204
2733.54453 0.03202
2732.25876 0.03203
2730.97299 0.03204
2729.68722 0.03203
2728.40145 0.03194
2727.11568 0.03180
2725.82991 0.03167
2724.54414 0.03158
2723.25838 0.03149
2721.97261 0.03144
2720.68684 0.03140
2719.40107 0.03137
2718.11530 0.03132
2716.82953 0.03124
2715.54376 0.03111
2714.25799 0.03089
2712.97222 0.03059
2711.68646 0.03032
2710.40069 0.03022
2709.11492 0.03026
2707.82915 0.03034
2706.54338 0.03041
2705.25761 0.03049
2703.97184 0.03059
2702.68607 0.03072
2701.40031 0.03085
2700.11454 0.03097
2698.82877 0.03103
2697.54300 0.03099
2696.25723 0.03078
2694.97146 0.03043
2693.68569 0.03003
2692.39992 0.02972
2691.11415 0.02964
2689.82839 0.02976
2688.54262 0.02990
2687.25685 0.02991
2685.97108 0.02980
2684.68531 0.02964
2683.39954 0.02946
2682.11377 0.02923
2680.82800 0.02896
2679.54224 0.02872
2678.25647 0.02868
2676.97070 0.02894
2675.68493 0.02943
2674.39916 0.02986
2673.11339 0.02997
2671.82762 0.02972
2670.54185 0.02934
2669.25608 0.02912
2667.97032 0.02921
2666.68455 0.02953
2665.39878 0.02988
2664.11301 0.03005
2662.82724 0.02998
2661.54147 0.02978
2660.25570 0.02960
2658.96993 0.02947
2657.68417 0.02931
2656.39840 0.02909
2655.11263 0.02889
2653.82686 0.02882
2652.54109 0.02888
2651.25532 0.02898
2649.96955 0.02902
2648.68378 0.02897
2647.39801 0.02887
2646.11225 0.02876
2644.82648 0.02870
2643.54071 0.02873
2642.25494 0.02882
2640.96917 0.02884
2639.68340 0.02872
2638.39763 0.02839
2637.11186 0.02786
2635.82609 0.02724
2634.54033 0.02669
2633.25456 0.02644
2631.96879 0.02659
2630.68302 0.02707
2629.39725 0.02760
2628.11148 0.02790
2626.82571 0.02788
2625.53994 0.02769
2624.25418 0.02751
2622.96841 0.02737
2621.68264 0.02720
2620.39687 0.02694
2619.11110 0.02654
2617.82533 0.02602
2616.53956 0.02558
2615.25379 0.02540
2613.96802 0.02545
2612.68226 0.02550
2611.39649 0.02544
2610.11072 0.02547
2608.82495 0.02573
2607.53918 0.02610
2606.25341 0.02622
2604.96764 0.02593
2603.68187 0.02537
2602.39611 0.02483
2601.11034 0.02452
2599.82457 0.02452
2598.53880 0.02479
2597.25303 0.02518
2595.96726 0.02545
2594.68149 0.02549
2593.39572 0.02537
2592.10995 0.02525
2590.82419 0.02515
2589.53842 0.02492
2588.25265 0.02457
2586.96688 0.02429
2585.68111 0.02419
2584.39534 0.02414
2583.10957 0.02403
2581.82380 0.02392
2580.53804 0.02397
2579.25227 0.02419
2577.96650 0.02441
2576.68073 0.02449
2575.39496 0.02431
2574.10919 0.02391
2572.82342 0.02347
2571.53765 0.02321
2570.25188 0.02313
2568.96612 0.02299
2567.68035 0.02273
2566.39458 0.02261
2565.10881 0.02288
2563.82304 0.02343
2562.53727 0.02396
2561.25150 0.02423
2559.96573 0.02415
2558.67997 0.02377
2557.39420 0.02333
2556.10843 0.02319
2554.82266 0.02349
2553.53689 0.02397
2552.25112 0.02420
2550.96535 0.02392
2549.67958 0.02319
2548.39381 0.02241
2547.10805 0.02203
2545.82228 0.02223
2544.53651 0.02277
2543.25074 0.02315
2541.96497 0.02299
2540.67920 0.02233
2539.39343 0.02162
2538.10766 0.02135
2536.82190 0.02168
2535.53613 0.02236
2534.25036 0.02305
2532.96459 0.02348
2531.67882 0.02356
2530.39305 0.02333
2529.10728 0.02295
2527.82151 0.02258
2526.53574 0.02228
2525.24998 0.02207
2523.96421 0.02197
2522.67844 0.02201
2521.39267 0.02217
2520.10690 0.02228
2518.82113 0.02218
2517.53536 0.02184
2516.24959 0.02141
2514.96383 0.02107
2513.67806 0.02101
2512.39229 0.02125
2511.10652 0.02165
2509.82075 0.02200
2508.53498 0.02213
2507.24921 0.02213
2505.96344 0.02215
2504.67767 0.02229
2503.39191 0.02234
2502.10614 0.02203
2500.82037 0.02141
2499.53460 0.02094
2498.24883 0.02105
2496.96306 0.02158
2495.67729 0.02200
2494.39152 0.02197
2493.10576 0.02165
2491.81999 0.02139
2490.53422 0.02136
2489.24845 0.02157
2487.96268 0.02194
2486.67691 0.02235
2485.39114 0.02262
2484.10537 0.02264
2482.81960 0.02241
2481.53384 0.02207
2480.24807 0.02177
2478.96230 0.02159
2477.67653 0.02153
2476.39076 0.02154
2475.10499 0.02149
2473.81922 0.02131
2472.53345 0.02103
2471.24769 0.02080
2469.96192 0.02073
2468.67615 0.02084
2467.39038 0.02102
2466.10461 0.02107
2464.81884 0.02087
2463.53307 0.02054
2462.24730 0.02038
2460.96153 0.02055
2459.67577 0.02097
2458.39000 0.02138
2457.10423 0.02158
2455.81846 0.02158
2454.53269 0.02147
2453.24692 0.02132
2451.96115 0.02119
2450.67538 0.02121
2449.38962 0.02148
2448.10385 0.02194
2446.81808 0.02236
2445.53231 0.02243
2444.24654 0.02204
2442.96077 0.02136
2441.67500 0.02078
2440.38923 0.02050
2439.10346 0.02035
2437.81770 0.02005
2436.53193 0.01964
2435.24616 0.01941
2433.96039 0.01957
2432.67462 0.01995
2431.38885 0.02027
2430.10308 0.02042
2428.81731 0.02051
2427.53155 0.02066
2426.24578 0.02080
2424.96001 0.02075
2423.67424 0.02046
2422.38847 0.02007
2421.10270 0.01981
2419.81693 0.01970
2418.53116 0.01959
2417.24539 0.01928
2415.95963 0.01876
2414.67386 0.01822
2413.38809 0.01791
2412.10232 0.01793
2410.81655 0.01810
2409.53078 0.01829
2408.24501 0.01854
2406.95924 0.01892
2405.67347 0.01928
2404.38771 0.01944
2403.10194 0.01940
2401.81617 0.01936
2400.53040 0.01948
2399.24463 0.01969
2397.95886 0.01982
2396.67309 0.01979
2395.38732 0.01958
2394.10156 0.01927
2392.81579 0.01899
2391.53002 0.01886
2390.24425 0.01886
2388.95848 0.01889
2387.67271 0.01883
2386.38694 0.01874
2385.10117 0.01879
2383.81540 0.01907
2382.52964 0.01945
2381.24387 0.01972
2379.95810 0.01975
2378.67233 0.01960
2377.38656 0.01943
2376.10079 0.01931
2374.81502 0.01925
2373.52925 0.01920
2372.24349 0.01918
2370.95772 0.01918
2369.67195 0.01920
2368.38618 0.01924
2367.10041 0.01935
2365.81464 0.01953
2364.52887 0.01972
2363.24310 0.01980
2361.95733 0.01972
2360.67157 0.01951
2359.38580 0.01927
2358.10003 0.01911
2356.81426 0.01912
2355.52849 0.01931
2354.24272 0.01963
2352.95695 0.01991
2351.67118 0.02001
2350.38542 0.01993
2349.09965 0.01982
2347.81388 0.01981
2346.52811 0.01989
2345.24234 0.01995
2343.95657 0.01998
2342.67080 0.02000
2341.38503 0.02004
2340.09926 0.02006
2338.81350 0.02003
2337.52773 0.01997
2336.24196 0.01989
2334.95619 0.01979
2333.67042 0.01969
2332.38465 0.01961
2331.09888 0.01957
2329.81311 0.01967
2328.52735 0.02003
2327.24158 0.02068
2325.95581 0.02142
2324.67004 0.02190
2323.38427 0.02188
2322.09850 0.02144
2320.81273 0.02092
2319.52696 0.02063
2318.24119 0.02057
2316.95543 0.02056
2315.66966 0.02042
2314.38389 0.02011
2313.09812 0.01973
2311.81235 0.01937
2310.52658 0.01910
2309.24081 0.01898
2307.95504 0.01902
2306.66928 0.01911
2305.38351 0.01908
2304.09774 0.01884
2302.81197 0.01850
2301.52620 0.01822
2300.24043 0.01806
2298.95466 0.01798
2297.66889 0.01794
2296.38312 0.01793
2295.09736 0.01791
2293.81159 0.01783
2292.52582 0.01765
2291.24005 0.01746
2289.95428 0.01729
2288.66851 0.01716
2287.38274 0.01712
2286.09697 0.01723
2284.81121 0.01748
2283.52544 0.01771
2282.23967 0.01781
2280.95390 0.01770
2279.66813 0.01740
2278.38236 0.01698
2277.09659 0.01666
2275.81082 0.01660
2274.52505 0.01674
2273.23929 0.01686
2271.95352 0.01680
2270.66775 0.01662
2269.38198 0.01643
2268.09621 0.01623
2266.81044 0.01592
2265.52467 0.01548
2264.23890 0.01508
2262.95314 0.01495
2261.66737 0.01517
2260.38160 0.01557
2259.09583 0.01584
2257.81006 0.01570
2256.52429 0.01509
2255.23852 0.01424
2253.95275 0.01352
2252.66698 0.01320
2251.38122 0.01331
2250.09545 0.01365
2248.80968 0.01398
2247.52391 0.01410
2246.23814 0.01386
2244.95237 0.01346
2243.66660 0.01318
2242.38083 0.01318
2241.09507 0.01341
2239.80930 0.01372
2238.52353 0.01397
2237.23776 0.01402
2235.95199 0.01388
2234.66622 0.01372
2233.38045 0.01364
2232.09468 0.01343
2230.80891 0.01278
2229.52315 0.01184
2228.23738 0.01123
2226.95161 0.01142
2225.66584 0.01223
2224.38007 0.01295
2223.09430 0.01301
2221.80853 0.01233
2220.52276 0.01124
2219.23700 0.01017
2217.95123 0.00942
2216.66546 0.00899
2215.37969 0.00871
2214.09392 0.00848
2212.80815 0.00828
2211.52238 0.00811
2210.23661 0.00814
2208.95084 0.00876
2207.66508 0.01017
2206.37931 0.01193
2205.09354 0.01318
2203.80777 0.01344
2202.52200 0.01292
2201.23623 0.01217
2199.95046 0.01158
2198.66469 0.01117
2197.37893 0.01083
2196.09316 0.01048
2194.80739 0.01006
2193.52162 0.00950
2192.23585 0.00867
2190.95008 0.00767
2189.66431 0.00702
2188.37854 0.00732
2187.09277 0.00864
2185.80701 0.01022
2184.52124 0.01104
2183.23547 0.01070
2181.94970 0.00958
2180.66393 0.00846
2179.37816 0.00782
2178.09239 0.00762
2176.80662 0.00749
2175.52085 0.00718
2174.23509 0.00682
2172.94932 0.00683
2171.66355 0.00747
2170.37778 0.00864
2169.09201 0.00979
2167.80624 0.01020
2166.52047 0.00947
2165.23470 0.00810
2163.94894 0.00716
2162.66317 0.00710
2161.37740 0.00725
2160.09163 0.00676
2158.80586 0.00571
2157.52009 0.00492
2156.23432 0.00473
2154.94855 0.00483
2153.66278 0.00486
2152.37702 0.00473
2151.09125 0.00457
2149.80548 0.00449
2148.51971 0.00449
2147.23394 0.00458
2145.94817 0.00488
2144.66240 0.00547
2143.37663 0.00616
2142.09087 0.00658
2140.80510 0.00666
2139.51933 0.00662
2138.23356 0.00663
2136.94779 0.00659
2135.66202 0.00640
2134.37625 0.00606
2133.09048 0.00572
2131.80471 0.00568
2130.51895 0.00632
2129.23318 0.00777
2127.94741 0.00963
2126.66164 0.01106
2125.37587 0.01134
2124.09010 0.01055
2122.80433 0.00946
2121.51856 0.00887
2120.23280 0.00896
2118.94703 0.00946
2117.66126 0.01014
2116.37549 0.01093
2115.08972 0.01177
2113.80395 0.01248
2112.51818 0.01278
2111.23241 0.01243
2109.94664 0.01139
2108.66088 0.01011
2107.37511 0.00927
2106.08934 0.00920
2104.80357 0.00961
2103.51780 0.00992
2102.23203 0.00982
2100.94626 0.00948
2099.66049 0.01010
2098.37473 0.01039
2097.08896 0.01019
2095.80319 0.00961
2094.51742 0.00871
2093.23165 0.00777
2091.94588 0.00718
2090.66011 0.00710
2089.37434 0.00750
2088.08857 0.00823
2086.80281 0.00916
2085.51704 0.01010
2084.23127 0.01082
2082.94550 0.01116
2081.65973 0.01117
2080.37396 0.01104
2079.08819 0.01092
2077.80242 0.01074
2076.51666 0.01042
2075.23089 0.00997
2073.94512 0.00953
2072.65935 0.00919
2071.37358 0.00883
2070.08781 0.00830
2068.80204 0.00760
2067.51627 0.00702
2066.23050 0.00686
2064.94474 0.00709
2063.65897 0.00743
2062.37320 0.00755
2061.08743 0.00733
2059.80166 0.00682
2058.51589 0.00608
2057.23012 0.00517
2055.94435 0.00432
2054.65859 0.00403
2053.37282 0.00463
2052.08705 0.00586
2050.80128 0.00690
2049.51551 0.00702
2048.22974 0.00622
2046.94397 0.00516
2045.65820 0.00435
2044.37243 0.00377
2043.08667 0.00306
2041.80090 0.00206
2040.51513 0.00113
2039.22936 0.00087
2037.94359 0.00153
2036.65782 0.00270
2035.37205 0.00366
2034.08628 0.00403
2032.80052 0.00397
2031.51475 0.00400
2030.22898 0.00441
2028.94321 0.00505
2027.65744 0.00557
2026.37167 0.00573
2025.08590 0.00555
2023.80013 0.00510
2022.51436 0.00439
2021.22860 0.00350
2019.94283 0.00268
2018.65706 0.00223
2017.37129 0.00223
2016.08552 0.00257
2014.79975 0.00309
2013.51398 0.00370
2012.22821 0.00433
2010.94245 0.00493
2009.65668 0.00540
2008.37091 0.00554
2007.08514 0.00535
2005.79937 0.00512
2004.51360 0.00527
2003.22783 0.00580
2001.94206 0.00635
2000.65629 0.00657
1999.37053 0.00655
1998.08476 0.00658
1996.79899 0.00677
1995.51322 0.00691
1994.22745 0.00677
1992.94168 0.00644
1991.65591 0.00624
1990.37014 0.00634
1989.08438 0.00654
1987.79861 0.00649
1986.51284 0.00626
1985.22707 0.00634
1983.94130 0.00709
1982.65553 0.00826
1981.36976 0.00924
1980.08399 0.00960
1978.79822 0.00936
1977.51246 0.00887
1976.22669 0.00845
1974.94092 0.00829
1973.65515 0.00843
1972.36938 0.00887
1971.08361 0.00945
1969.79784 0.00995
1968.51207 0.01019
1967.22631 0.01017
1965.94054 0.01000
1964.65477 0.00977
1963.36900 0.00944
1962.08323 0.00903
1960.79746 0.00878
1959.51169 0.00892
1958.22592 0.00944
1956.94015 0.00996
1955.65439 0.01013
1954.36862 0.01005
1953.08285 0.01001
1951.79708 0.01007
1950.51131 0.01006
1949.22554 0.00992
1947.93977 0.00992
1946.65400 0.01021
1945.36823 0.01071
1944.08247 0.01122
1942.79670 0.01164
1941.51093 0.01187
1940.22516 0.01176
1938.93939 0.01127
1937.65362 0.01066
1936.36785 0.01025
1935.08208 0.01009
1933.79632 0.01003
1932.51055 0.01008
1931.22478 0.01038
1929.93901 0.01103
1928.65324 0.01181
1927.36747 0.01230
1926.08170 0.01223
1924.79593 0.01167
1923.51016 0.01089
1922.22440 0.01011
1920.93863 0.00947
1919.65286 0.00904
1918.36709 0.00901
1917.08132 0.00947
1915.79555 0.01025
1914.50978 0.01092
1913.22401 0.01117
1911.93825 0.01105
1910.65248 0.01084
1909.36671 0.01062
1908.08094 0.01028
1906.79517 0.00978
1905.50940 0.00935
1904.22363 0.00930
1902.93786 0.00967
1901.65209 0.01019
1900.36633 0.01054
1899.08056 0.01061
1897.79479 0.01046
1896.50902 0.01024
1895.22325 0.01010
1893.93748 0.01020
1892.65171 0.01057
1891.36594 0.01098
1890.08018 0.01107
1888.79441 0.01072
1887.50864 0.01025
1886.22287 0.01011
1884.93710 0.01048
1883.65133 0.01113
1882.36556 0.01165
1881.07979 0.01173
1879.79402 0.01142
1878.50826 0.01102
1877.22249 0.01086
1875.93672 0.01101
1874.65095 0.01130
1873.36518 0.01153
1872.07941 0.01159
1870.79364 0.01144
1869.50787 0.01113
1868.22211 0.01078
1866.93634 0.01057
1865.65057 0.01058
1864.36480 0.01070
1863.07903 0.01079
1861.79326 0.01082
1860.50749 0.01087
1859.22172 0.01092
1857.93595 0.01094
1856.65019 0.01089
1855.36442 0.01083
1854.07865 0.01080
1852.79288 0.01080
1851.50711 0.01085
1850.22134 0.01096
1848.93557 0.01112
1847.64980 0.01124
1846.36404 0.01125
1845.07827 0.01119
1843.79250 0.01115
1842.50673 0.01117
1841.22096 0.01117
1839.93519 0.01103
1838.64942 0.01077
1837.36365 0.01053
1836.07788 0.01043
1834.79212 0.01052
1833.50635 0.01074
1832.22058 0.01105
1830.93481 0.01141
1829.64904 0.01177
1828.36327 0.01206
1827.07750 0.01220
1825.79173 0.01220
1824.50597 0.01212
1823.22020 0.01198
1821.93443 0.01186
1820.64866 0.01183
1819.36289 0.01194
1818.07712 0.01206
1816.79135 0.01203
1815.50558 0.01178
1814.21981 0.01145
1812.93405 0.01123
1811.64828 0.01119
1810.36251 0.01129
1809.07674 0.01144
1807.79097 0.01161
1806.50520 0.01179
1805.21943 0.01196
1803.93366 0.01208
1802.64790 0.01209
1801.36213 0.01204
1800.07636 0.01197
1798.79059 0.01194
1797.50482 0.01190
1796.21905 0.01189
1794.93328 0.01196
1793.64751 0.01217
1792.36174 0.01244
1791.07598 0.01260
1789.79021 0.01256
1788.50444 0.01244
1787.21867 0.01238
1785.93290 0.01245
1784.64713 0.01261
1783.36136 0.01280
1782.07559 0.01296
1780.78983 0.01306
1779.50406 0.01306
1778.21829 0.01302
1776.93252 0.01299
1775.64675 0.01303
1774.36098 0.01314
1773.07521 0.01326
1771.78944 0.01334
1770.50367 0.01335
1769.21791 0.01329
1767.93214 0.01320
1766.64637 0.01315
1765.36060 0.01320
1764.07483 0.01335
1762.78906 0.01353
1761.50329 0.01364
1760.21752 0.01365
1758.93176 0.01361
1757.64599 0.01358
1756.36022 0.01364
1755.07445 0.01379
1753.78868 0.01396
1752.50291 0.01408
1751.21714 0.01409
1749.93137 0.01403
1748.64560 0.01398
1747.35984 0.01401
1746.07407 0.01412
1744.78830 0.01424
1743.50253 0.01432
1742.21676 0.01437
1740.93099 0.01440
1739.64522 0.01442
1738.35945 0.01450
1737.07369 0.01468
1735.78792 0.01495
1734.50215 0.01525
1733.21638 0.01550
1731.93061 0.01565
1730.64484 0.01572
1729.35907 0.01574
1728.07330 0.01577
1726.78753 0.01584
1725.50177 0.01599
1724.21600 0.01621
1722.93023 0.01649
1721.64446 0.01686
1720.35869 0.01727
1719.07292 0.01769
1717.78715 0.01803
1716.50138 0.01827
1715.21561 0.01843
1713.92985 0.01859
1712.64408 0.01877
1711.35831 0.01901
1710.07254 0.01930
1708.78677 0.01963
1707.50100 0.01997
1706.21523 0.02028
1704.92946 0.02056
1703.64370 0.02091
1702.35793 0.02139
1701.07216 0.02193
1699.78639 0.02242
1698.50062 0.02278
1697.21485 0.02303
1695.92908 0.02319
1694.64331 0.02329
1693.35754 0.02335
1692.07178 0.02340
1690.78601 0.02353
1689.50024 0.02380
1688.21447 0.02426
1686.92870 0.02486
1685.64293 0.02546
1684.35716 0.02591
1683.07139 0.02617
1681.78563 0.02632
1680.49986 0.02651
1679.21409 0.02679
1677.92832 0.02714
1676.64255 0.02751
1675.35678 0.02784
1674.07101 0.02816
1672.78524 0.02849
1671.49947 0.02882
1670.21371 0.02908
1668.92794 0.02923
1667.64217 0.02931
1666.35640 0.02945
1665.07063 0.02974
1663.78486 0.03015
1662.49909 0.03056
1661.21332 0.03092
1659.92756 0.03121
1658.64179 0.03147
1657.35602 0.03176
1656.07025 0.03213
1654.78448 0.03255
1653.49871 0.03292
1652.21294 0.03312
1650.92717 0.03318
1649.64140 0.03321
1648.35564 0.03330
1647.06987 0.03343
1645.78410 0.03350
1644.49833 0.03353
1643.21256 0.03361
1641.92679 0.03380
1640.64102 0.03406
1639.35525 0.03432
1638.06949 0.03456
1636.78372 0.03477
1635.49795 0.03496
1634.21218 0.03510
1632.92641 0.03520
1631.64064 0.03531
1630.35487 0.03545
1629.06910 0.03564
1627.78333 0.03585
1626.49757 0.03608
1625.21180 0.03629
1623.92603 0.03645
1622.64026 0.03657
1621.35449 0.03668
1620.06872 0.03685
1618.78295 0.03714
1617.49718 0.03748
1616.21142 0.03777
1614.92565 0.03796
1613.63988 0.03812
1612.35411 0.03836
1611.06834 0.03869
1609.78257 0.03900
1608.49680 0.03924
1607.21103 0.03942
1605.92526 0.03960
1604.63950 0.03981
1603.35373 0.04005
1602.06796 0.04029
1600.78219 0.04055
1599.49642 0.04084
1598.21065 0.04111
1596.92488 0.04132
1595.63911 0.04145
1594.35335 0.04153
1593.06758 0.04161
1591.78181 0.04173
1590.49604 0.04184
1589.21027 0.04191
1587.92450 0.04196
1586.63873 0.04204
1585.35296 0.04221
1584.06719 0.04247
1582.78143 0.04278
1581.49566 0.04312
1580.20989 0.04347
1578.92412 0.04379
1577.63835 0.04404
1576.35258 0.04415
1575.06681 0.04415
1573.78104 0.04414
1572.49528 0.04423
1571.20951 0.04447
1569.92374 0.04477
1568.63797 0.04502
1567.35220 0.04517
1566.06643 0.04526
1564.78066 0.04538
1563.49489 0.04562
1562.20912 0.04604
1560.92336 0.04656
1559.63759 0.04701
1558.35182 0.04724
1557.06605 0.04724
1555.78028 0.04715
1554.49451 0.04712
1553.20874 0.04720
1551.92297 0.04735
1550.63721 0.04752
1549.35144 0.04769
1548.06567 0.04785
1546.77990 0.04800
1545.49413 0.04816
1544.20836 0.04835
1542.92259 0.04857
1541.63682 0.04879
1540.35105 0.04893
1539.06529 0.04891
1537.77952 0.04878
1536.49375 0.04870
1535.20798 0.04878
1533.92221 0.04904
1532.63644 0.04939
1531.35067 0.04981
1530.06490 0.05029
1528.77914 0.05088
1527.49337 0.05157
1526.20760 0.05234
1524.92183 0.05314
1523.63606 0.05396
1522.35029 0.05480
1521.06452 0.05569
1519.77875 0.05666
1518.49298 0.05775
1517.20722 0.05891
1515.92145 0.06011
1514.63568 0.06129
1513.34991 0.06249
1512.06414 0.06374
1510.77837 0.06510
1509.49260 0.06659
1508.20683 0.06814
1506.92107 0.06962
1505.63530 0.07090
1504.34953 0.07197
1503.06376 0.07296
1501.77799 0.07398
1500.49222 0.07506
1499.20645 0.07614
1497.92068 0.07717
1496.63491 0.07810
1495.34915 0.07893
1494.06338 0.07972
1492.77761 0.08057
1491.49184 0.08153
1490.20607 0.08259
1488.92030 0.08371
1487.63453 0.08487
1486.34876 0.08607
1485.06299 0.08731
1483.77723 0.08857
1482.49146 0.08982
1481.20569 0.09108
1479.91992 0.09238
1478.63415 0.09371
1477.34838 0.09503
1476.06261 0.09626
1474.77684 0.09732
1473.49108 0.09818
1472.20531 0.09885
1470.91954 0.09937
1469.63377 0.09979
1468.34800 0.10014
1467.06223 0.10042
1465.77646 0.10061
1464.49069 0.10075
1463.20492 0.10090
1461.91916 0.10118
1460.63339 0.10165
1459.34762 0.10228
1458.06185 0.10297
1456.77608 0.10355
1455.49031 0.10399
1454.20454 0.10434
1452.91877 0.10472
1451.63301 0.10519
1450.34724 0.10569
1449.06147 0.10612
1447.77570 0.10639
1446.48993 0.10649
1445.20416 0.10647
1443.91839 0.10637
1442.63262 0.10621
1441.34685 0.10600
1440.06109 0.10574
1438.77532 0.10550
1437.48955 0.10536
1436.20378 0.10540
1434.91801 0.10569
1433.63224 0.10625
1432.34647 0.10709
1431.06070 0.10817
1429.77494 0.10941
1428.48917 0.11075
1427.20340 0.11217
1425.91763 0.11360
1424.63186 0.11501
1423.34609 0.11637
1422.06032 0.11768
1420.77455 0.11893
1419.48878 0.12010
1418.20302 0.12110
1416.91725 0.12187
1415.63148 0.12237
1414.34571 0.12261
1413.05994 0.12265
1411.77417 0.12248
1410.48840 0.12209
1409.20263 0.12143
1407.91687 0.12050
1406.63110 0.11932
1405.34533 0.11795
1404.05956 0.11639
1402.77379 0.11461
1401.48802 0.11262
1400.20225 0.11047
1398.91648 0.10824
1397.63071 0.10598
1396.34495 0.10371
1395.05918 0.10140
1393.77341 0.09904
1392.48764 0.09665
1391.20187 0.09430
1389.91610 0.09199
1388.63033 0.08970
1387.34456 0.08738
1386.05880 0.08499
1384.77303 0.08259
1383.48726 0.08023
1382.20149 0.07796
1380.91572 0.07576
1379.62995 0.07355
1378.34418 0.07130
1377.05841 0.06902
1375.77264 0.06675
1374.48688 0.06450
1373.20111 0.06232
1371.91534 0.06021
1370.62957 0.05822
1369.34380 0.05633
1368.05803 0.05456
1366.77226 0.05290
1365.48649 0.05134
1364.20073 0.04985
1362.91496 0.04843
1361.62919 0.04706
1360.34342 0.04575
1359.05765 0.04450
1357.77188 0.04332
1356.48611 0.04221
1355.20034 0.04120
1353.91457 0.04028
1352.62881 0.03945
1351.34304 0.03869
1350.05727 0.03796
1348.77150 0.03723
1347.48573 0.03647
1346.19996 0.03571
1344.91419 0.03498
1343.62842 0.03434
1342.34266 0.03379
1341.05689 0.03331
1339.77112 0.03287
1338.48535 0.03244
1337.19958 0.03200
1335.91381 0.03158
1334.62804 0.03116
1333.34227 0.03073
1332.05650 0.03027
1330.77074 0.02981
1329.48497 0.02940
1328.19920 0.02910
1326.91343 0.02890
1325.62766 0.02874
1324.34189 0.02853
1323.05612 0.02823
1321.77035 0.02786
1320.48459 0.02747
1319.19882 0.02713
1317.91305 0.02685
1316.62728 0.02659
1315.34151 0.02632
1314.05574 0.02604
1312.76997 0.02576
1311.48420 0.02549
1310.19843 0.02525
1308.91267 0.02505
1307.62690 0.02489
1306.34113 0.02473
1305.05536 0.02454
1303.76959 0.02435
1302.48382 0.02418
1301.19805 0.02405
1299.91228 0.02390
1298.62652 0.02371
1297.34075 0.02348
1296.05498 0.02327
1294.76921 0.02308
1293.48344 0.02291
1292.19767 0.02273
1290.91190 0.02252
1289.62613 0.02231
1288.34036 0.02212
1287.05460 0.02197
1285.76883 0.02186
1284.48306 0.02177
1283.19729 0.02168
1281.91152 0.02158
1280.62575 0.02148
1279.33998 0.02141
1278.05421 0.02137
1276.76845 0.02134
1275.48268 0.02125
1274.19691 0.02112
1272.91114 0.02098
1271.62537 0.02086
1270.33960 0.02074
1269.05383 0.02060
1267.76806 0.02045
1266.48229 0.02031
1265.19653 0.02019
1263.91076 0.02008
1262.62499 0.01996
1261.33922 0.01985
1260.05345 0.01978
1258.76768 0.01973
1257.48191 0.01969
1256.19614 0.01964
1254.91037 0.01957
1253.62461 0.01949
1252.33884 0.01941
1251.05307 0.01935
1249.76730 0.01929
1248.48153 0.01923
1247.19576 0.01916
1245.90999 0.01910
1244.62422 0.01903
1243.33846 0.01897
1242.05269 0.01893
1240.76692 0.01892
1239.48115 0.01892
1238.19538 0.01889
1236.90961 0.01880
1235.62384 0.01868
1234.33807 0.01857
1233.05230 0.01848
1231.76654 0.01840
1230.48077 0.01834
1229.19500 0.01829
1227.90923 0.01827
1226.62346 0.01829
1225.33769 0.01833
1224.05192 0.01838
1222.76615 0.01842
1221.48039 0.01845
1220.19462 0.01846
1218.90885 0.01844
1217.62308 0.01841
1216.33731 0.01836
1215.05154 0.01830
1213.76577 0.01827
1212.48000 0.01828
1211.19423 0.01832
1209.90847 0.01834
1208.62270 0.01832
1207.33693 0.01829
1206.05116 0.01826
1204.76539 0.01825
1203.47962 0.01828
1202.19385 0.01833
1200.90808 0.01835
1199.62232 0.01830
1198.33655 0.01838
1197.05078 0.01843
1195.76501 0.01846
1194.47924 0.01846
1193.19347 0.01849
1191.90770 0.01854
1190.62193 0.01860
1189.33616 0.01863
1188.05040 0.01864
1186.76463 0.01864
1185.47886 0.01867
1184.19309 0.01871
1182.90732 0.01874
1181.62155 0.01875
1180.33578 0.01875
1179.05001 0.01875
1177.76425 0.01874
1176.47848 0.01876
1175.19271 0.01884
1173.90694 0.01899
1172.62117 0.01921
1171.33540 0.01949
1170.04963 0.01979
1168.76386 0.02004
1167.47809 0.02024
1166.19233 0.02042
1164.90656 0.02061
1163.62079 0.02085
1162.33502 0.02112
1161.04925 0.02139
1159.76348 0.02170
1158.47771 0.02207
1157.19194 0.02254
1155.90618 0.02308
1154.62041 0.02362
1153.33464 0.02412
1152.04887 0.02457
1150.76310 0.02502
1149.47733 0.02552
1148.19156 0.02612
1146.90579 0.02684
1145.62002 0.02768
1144.33426 0.02860
1143.04849 0.02957
1141.76272 0.03058
1140.47695 0.03163
1139.19118 0.03272
1137.90541 0.03390
1136.61964 0.03520
1135.33387 0.03669
1134.04811 0.03839
1132.76234 0.04028
1131.47657 0.04236
1130.19080 0.04463
1128.90503 0.04712
1127.61926 0.04981
1126.33349 0.05271
1125.04772 0.05577
1123.76195 0.05896
1122.47619 0.06219
1121.19042 0.06547
1119.90465 0.06883
1118.61888 0.07231
1117.33311 0.07588
1116.04734 0.07947
1114.76157 0.08304
1113.47580 0.08656
1112.19004 0.09002
1110.90427 0.09344
1109.61850 0.09684
1108.33273 0.10024
1107.04696 0.10361
1105.76119 0.10690
1104.47542 0.11006
1103.18965 0.11315
1101.90388 0.11622
1100.61812 0.11930
1099.33235 0.12237
1098.04658 0.12535
1096.76081 0.12818
1095.47504 0.13082
1094.18927 0.13330
1092.90350 0.13567
1091.61773 0.13798
1090.33197 0.14022
1089.04620 0.14240
1087.76043 0.14450
1086.47466 0.14655
1085.18889 0.14861
1083.90312 0.15076
1082.61735 0.15304
1081.33158 0.15545
1080.04581 0.15800
1078.76005 0.16072
1077.47428 0.16361
1076.18851 0.16663
1074.90274 0.16972
1073.61697 0.17287
1072.33120 0.17611
1071.04543 0.17943
1069.75966 0.18283
1068.47390 0.18630
1067.18813 0.18985
1065.90236 0.19347
1064.61659 0.19717
1063.33082 0.20095
1062.04505 0.20477
1060.75928 0.20859
1059.47351 0.21233
1058.18774 0.21596
1056.90198 0.21949
1055.61621 0.22299
1054.33044 0.22645
1053.04467 0.22991
1051.75890 0.23341
1050.47313 0.23703
1049.18736 0.24075
1047.90159 0.24453
1046.61583 0.24834
1045.33006 0.25221
1044.04429 0.25617
1042.75852 0.26020
1041.47275 0.26432
1040.18698 0.26856
1038.90121 0.27288
1037.61544 0.27721
1036.32967 0.28144
1035.04391 0.28555
1033.75814 0.28950
1032.47237 0.29325
1031.18660 0.29671
1029.90083 0.29983
1028.61506 0.30259
1027.32929 0.30499
1026.04352 0.30702
1024.75775 0.30865
1023.47199 0.30991
1022.18622 0.31077
1020.90045 0.31117
1019.61468 0.31107
1018.32891 0.31046
1017.04314 0.30937
1015.75737 0.30775
1014.47160 0.30553
1013.18584 0.30264
1011.90007 0.29905
1010.61430 0.29487
1009.32853 0.29018
1008.04276 0.28503
1006.75699 0.27939
1005.47122 0.27318
1004.18545 0.26636
1002.89968 0.25893
1001.61392 0.25097
1000.32815 0.24261
999.04238 0.23403
997.75661 0.22534
996.47084 0.21660
995.18507 0.20778
993.89930 0.19889
992.61353 0.19001
991.32777 0.18130
990.04200 0.17292
988.75623 0.16493
987.47046 0.15729
986.18469 0.14994
984.89892 0.14287
983.61315 0.13615
982.32738 0.12986
981.04161 0.12410
979.75585 0.11891
978.47008 0.11424
977.18431 0.11006
975.89854 0.10635
974.61277 0.10316
973.32700 0.10053
972.04123 0.09851
970.75546 0.09713
969.46970 0.09644
968.18393 0.09650
966.89816 0.09724
965.61239 0.09843
964.32662 0.09975
963.04085 0.10087
961.75508 0.10159
960.46931 0.10172
959.18354 0.10112
957.89778 0.09972
956.61201 0.09756
955.32624 0.09486
954.04047 0.09185
952.75470 0.08876
951.46893 0.08570
950.18316 0.08273
948.89739 0.07986
947.61163 0.07709
946.32586 0.07443
945.04009 0.07188
943.75432 0.06946
942.46855 0.06719
941.18278 0.06504
939.89701 0.06299
938.61124 0.06104
937.32547 0.05922
936.03971 0.05751
934.75394 0.05594
933.46817 0.05452
932.18240 0.05327
930.89663 0.05218
929.61086 0.05120
928.32509 0.05027
927.03932 0.04932
925.75356 0.04833
924.46779 0.04733
923.18202 0.04645
921.89625 0.04578
920.61048 0.04529
919.32471 0.04486
918.03894 0.04438
916.75317 0.04382
915.46740 0.04324
914.18164 0.04270
912.89587 0.04221
911.61010 0.04177
910.32433 0.04137
909.03856 0.04099
907.75279 0.04067
906.46702 0.04047
905.18125 0.04038
903.89549 0.04029
902.60972 0.04009
901.32395 0.03977
900.03818 0.03944
898.75241 0.03918
897.46664 0.03903
896.18087 0.03899
894.89510 0.03907
893.60933 0.03931
892.32357 0.03977
891.03780 0.04047
889.75203 0.04147
888.46626 0.04285
887.18049 0.04470
885.89472 0.04711
884.60895 0.05015
883.32318 0.05378
882.03742 0.05771
880.75165 0.06140
879.46588 0.06435
878.18011 0.06638
876.89434 0.06779
875.60857 0.06901
874.32280 0.07021
873.03703 0.07109
871.75126 0.07112
870.46550 0.07001
869.17973 0.06783
867.89396 0.06491
866.60819 0.06163
865.32242 0.05828
864.03665 0.05513
862.75088 0.05231
861.46511 0.04986
860.17935 0.04774
858.89358 0.04591
857.60781 0.04436
856.32204 0.04309
855.03627 0.04208
853.75050 0.04129
852.46473 0.04065
851.17896 0.04007
849.89319 0.03949
848.60743 0.03891
847.32166 0.03837
846.03589 0.03790
844.75012 0.03752
843.46435 0.03721
842.17858 0.03693
840.89281 0.03663
839.60704 0.03632
838.32128 0.03605
837.03551 0.03587
835.74974 0.03581
834.46397 0.03584
833.17820 0.03587
831.89243 0.03582
830.60666 0.03563
829.32089 0.03531
828.03512 0.03500
826.74936 0.03479
825.46359 0.03469
824.17782 0.03462
822.89205 0.03451
821.60628 0.03436
820.32051 0.03423
819.03474 0.03414
817.74897 0.03409
816.46321 0.03407
815.17744 0.03409
813.89167 0.03413
812.60590 0.03416
811.32013 0.03413
810.03436 0.03402
808.74859 0.03386
807.46282 0.03370
806.17705 0.03363
804.89129 0.03369
803.60552 0.03381
802.31975 0.03390
801.03398 0.03388
799.74821 0.03377
798.46244 0.03366
797.17667 0.03358
795.89090 0.03351
794.60513 0.03342
793.31937 0.03336
792.03360 0.03338
790.74783 0.03347
789.46206 0.03352
788.17629 0.03346
786.89052 0.03331
785.60475 0.03317
784.31898 0.03309
783.03322 0.03301
781.74745 0.03290
780.46168 0.03282
779.17591 0.03291
777.89014 0.03318
776.60437 0.03347
775.31860 0.03361
774.03283 0.03356
772.74706 0.03345
771.46130 0.03339
770.17553 0.03342
768.88976 0.03345
767.60399 0.03337
766.31822 0.03315
765.03245 0.03290
763.74668 0.03279
762.46091 0.03288
761.17515 0.03313
759.88938 0.03344
758.60361 0.03374
757.31784 0.03395
756.03207 0.03405
754.74630 0.03404
753.46053 0.03399
752.17476 0.03393
750.88899 0.03390
749.60323 0.03385
748.31746 0.03374
747.03169 0.03353
745.74592 0.03323
744.46015 0.03295
743.17438 0.03281
741.88861 0.03287
740.60284 0.03310
739.31708 0.03342
738.03131 0.03373
736.74554 0.03396
735.45977 0.03409
734.17400 0.03412
732.88823 0.03409
731.60246 0.03403
730.31669 0.03400
729.03092 0.03402
727.74516 0.03409
726.45939 0.03412
725.17362 0.03407
723.88785 0.03394
722.60208 0.03379
721.31631 0.03368
720.03054 0.03364
718.74477 0.03361
717.45901 0.03357
716.17324 0.03353
714.88747 0.03351
713.60170 0.03350
712.31593 0.03349
711.03016 0.03347
709.74439 0.03344
708.45862 0.03340
707.17285 0.03336
705.88709 0.03334
704.60132 0.03336
703.31555 0.03338
702.02978 0.03339
700.74401 0.03338
699.45824 0.03332
698.17247 0.03326
696.88670 0.03321
695.60094 0.03320
694.31517 0.03323
693.02940 0.03326
691.74363 0.03326
690.45786 0.03323
689.17209 0.03320
687.88632 0.03317
686.60055 0.03314
685.31478 0.03308
684.02902 0.03300
682.74325 0.03290
681.45748 0.03279
680.17171 0.03269
678.88594 0.03259
677.60017 0.03252
676.31440 0.03253
675.02863 0.03267
673.74287 0.03295
672.45710 0.03327
671.17133 0.03356
669.88556 0.03374
668.59979 0.03380
667.31402 0.03378
666.02825 0.03366
664.74248 0.03346
663.45671 0.03320
662.17095 0.03294
660.88518 0.03273
659.59941 0.03260
658.31364 0.03255
657.02787 0.03255
655.74210 0.03261
654.45633 0.03268
653.17056 0.03274
651.88480 0.03276
650.59903 0.03276
649.31326 0.03279
648.02749 0.03287
646.74172 0.03304
645.45595 0.03327
644.17018 0.03350
642.88441 0.03371
641.59864 0.03389
640.31288 0.03409
639.02711 0.03433
637.74134 0.03467
636.45557 0.03515
635.16980 0.03576
633.88403 0.03643
632.59826 0.03705
631.31249 0.03769
630.02673 0.03886
628.74096 0.04037
627.45519 0.04023
626.16942 0.04202
624.88365 0.04543
623.59788 0.04939
622.31211 0.05342
621.02634 0.05680
619.74057 0.05869
618.45481 0.05890
617.16904 0.05819
615.88327 0.05804
614.59750 0.06014
613.31173 0.06547
612.02596 0.07345
610.74019 0.08210
609.45442 0.08963
608.16866 0.09599
606.88289 0.10201
605.59712 0.10750
604.31135 0.11116
603.02558 0.11231
601.73981 0.11156
600.45404 0.10995
599.16827 0.10787
597.88250 0.10522
596.59674 0.10206
595.31097 0.09882
594.02520 0.09597
592.73943 0.09377
591.45366 0.09224
590.16789 0.09138
588.88212 0.09123
587.59635 0.09179
586.31059 0.09298
585.02482 0.09466
583.73905 0.09673
582.45328 0.09918
581.16751 0.10197
579.88174 0.10499
578.59597 0.10810
577.31020 0.11117
576.02443 0.11415
574.73867 0.11703
573.45290 0.11988
572.16713 0.12285
570.88136 0.12617
569.59559 0.13001
568.30982 0.13432
567.02405 0.13879
565.73828 0.14298
564.45251 0.14649
563.16675 0.14898
561.88098 0.15011
560.59521 0.14954
559.30944 0.14696
558.02367 0.14234
556.73790 0.13604
555.45213 0.12873
554.16636 0.12110
552.88060 0.11360
551.59483 0.10645
550.30906 0.09975
549.02329 0.09360
547.73752 0.08808
546.45175 0.08317
545.16598 0.07880
543.88021 0.07487
542.59444 0.07131
541.30868 0.06807
540.02291 0.06517
538.73714 0.06266
537.45137 0.06054
536.16560 0.05877
534.87983 0.05723
533.59406 0.05574
532.30829 0.05422
531.02253 0.05266
529.73676 0.05116
528.45099 0.04977
527.16522 0.04848
525.87945 0.04725
524.59368 0.04609
523.30791 0.04501
522.02214 0.04397
520.73637 0.04294
519.45061 0.04192
518.16484 0.04097
516.87907 0.04011
515.59330 0.03938
514.30753 0.03878
513.02176 0.03831
511.73599 0.03790
510.45022 0.03743
509.16446 0.03680
507.87869 0.03608
506.59292 0.03542
505.30715 0.03490
504.02138 0.03446
502.73561 0.03401
501.44984 0.03352
500.16407 0.03310
498.87830 0.03281
497.59254 0.03262
496.30677 0.03245
495.02100 0.03224
493.73523 0.03201
492.44946 0.03179
491.16369 0.03157
489.87792 0.03132
488.59215 0.03103
487.30639 0.03077
486.02062 0.03063
484.73485 0.03068
483.44908 0.03089
482.16331 0.03124
480.87754 0.03161
479.59177 0.03194
478.30600 0.03220
477.02023 0.03243
475.73447 0.03260
474.44870 0.03269
473.16293 0.03269
471.87716 0.03265
470.59139 0.03261
469.30562 0.03258
468.01985 0.03255
466.73408 0.03252
465.44832 0.03244
464.16255 0.03227
462.87678 0.03201
461.59101 0.03171
460.30524 0.03144
459.01947 0.03120
457.73370 0.03096
456.44793 0.03070
455.16216 0.03043
453.87640 0.03021
452.59063 0.03004
451.30486 0.02990
450.01909 0.02972
448.73332 0.02950
447.44755 0.02927
446.16178 0.02913
444.87601 0.02912
443.59025 0.02917
442.30448 0.02919
441.01871 0.02915
439.73294 0.02911
438.44717 0.02914
437.16140 0.02925
435.87563 0.02938
434.58986 0.02948
433.30409 0.02953
432.01833 0.02955
430.73256 0.02959
429.44679 0.02963
428.16102 0.02966
426.87525 0.02966
425.58948 0.02964
424.30371 0.02966
423.01794 0.02972
421.73218 0.02981
420.44641 0.02991
419.16064 0.03001
417.87487 0.03012
416.58910 0.03022
415.30333 0.03035
414.01756 0.03049
412.73179 0.03060
411.44602 0.03063
410.16026 0.03064
408.87449 0.03071
407.58872 0.03091
406.30295 0.03123
405.01718 0.03154
403.73141 0.03177
402.44564 0.03189
401.15987 0.03197
399.87411 0.03205
