3997.45528	0.03769
3996.16951	0.03751
3994.88374	0.03733
3993.59798	0.03716
3992.31221	0.03709
3991.02644	0.03727
3989.74067	0.03765
3988.45490	0.03796
3987.16913	0.03794
3985.88336	0.03758
3984.59759	0.03719
3983.31183	0.03692
3982.02606	0.03669
3980.74029	0.03643
3979.45452	0.03636
3978.16875	0.03685
3976.88298	0.03786
3975.59721	0.03888
3974.31144	0.03932
3973.02567	0.03907
3971.73991	0.03852
3970.45414	0.03802
3969.16837	0.03762
3967.88260	0.03721
3966.59683	0.03692
3965.31106	0.03709
3964.02529	0.03777
3962.73952	0.03842
3961.45376	0.03839
3960.16799	0.03760
3958.88222	0.03672
3957.59645	0.03645
3956.31068	0.03682
3955.02491	0.03739
3953.73914	0.03776
3952.45337	0.03798
3951.16760	0.03823
3949.88184	0.03848
3948.59607	0.03840
3947.31030	0.03775
3946.02453	0.03669
3944.73876	0.03572
3943.45299	0.03529
3942.16722	0.03546
3940.88145	0.03599
3939.59569	0.03651
3938.30992	0.03678
3937.02415	0.03672
3935.73838	0.03643
3934.45261	0.03615
3933.16684	0.03619
3931.88107	0.03674
3930.59530	0.03765
3929.30953	0.03850
3928.02377	0.03886
3926.73800	0.03855
3925.45223	0.03772
3924.16646	0.03675
3922.88069	0.03610
3921.59492	0.03603
3920.30915	0.03645
3919.02338	0.03702
3917.73762	0.03738
3916.45185	0.03743
3915.16608	0.03728
3913.88031	0.03716
3912.59454	0.03717
3911.30877	0.03727
3910.02300	0.03732
3908.73723	0.03725
3907.45146	0.03714
3906.16570	0.03708
3904.87993	0.03702
3903.59416	0.03666
3902.30839	0.03582
3901.02262	0.03478
3899.73685	0.03414
3898.45108	0.03418
3897.16531	0.03467
3895.87955	0.03536
3894.59378	0.03632
3893.30801	0.03755
3892.02224	0.03863
3890.73647	0.03902
3889.45070	0.03864
3888.16493	0.03801
3886.87916	0.03770
3885.59339	0.03775
3884.30763	0.03779
3883.02186	0.03743
3881.73609	0.03671
3880.45032	0.03604
3879.16455	0.03575
3877.87878	0.03582
3876.59301	0.03599
3875.30724	0.03609
3874.02148	0.03618
3872.73571	0.03646
3871.44994	0.03701
3870.16417	0.03762
3868.87840	0.03794
3867.59263	0.03776
3866.30686	0.03725
3865.02109	0.03676
3863.73532	0.03648
3862.44956	0.03640
3861.16379	0.03643
3859.87802	0.03654
3858.59225	0.03664
3857.30648	0.03662
3856.02071	0.03644
3854.73494	0.03613
3853.44917	0.03572
3852.16341	0.03525
3850.87764	0.03494
3849.59187	0.03505
3848.30610	0.03562
3847.02033	0.03642
3845.73456	0.03715
3844.44879	0.03760
3843.16302	0.03765
3841.87725	0.03726
3840.59149	0.03658
3839.30572	0.03592
3838.01995	0.03557
3836.73418	0.03557
3835.44841	0.03572
3834.16264	0.03577
3832.87687	0.03570
3831.59110	0.03563
3830.30534	0.03561
3829.01957	0.03556
3827.73380	0.03543
3826.44803	0.03540
3825.16226	0.03570
3823.87649	0.03628
3822.59072	0.03690
3821.30495	0.03736
3820.01918	0.03768
3818.73342	0.03789
3817.44765	0.03788
3816.16188	0.03756
3814.87611	0.03707
3813.59034	0.03670
3812.30457	0.03659
3811.01880	0.03669
3809.73303	0.03689
3808.44726	0.03708
3807.16150	0.03713
3805.87573	0.03702
3804.58996	0.03692
3803.30419	0.03701
3802.01842	0.03725
3800.73265	0.03746
3799.44688	0.03750
3798.16111	0.03732
3796.87535	0.03694
3795.58958	0.03645
3794.30381	0.03604
3793.01804	0.03582
3791.73227	0.03574
3790.44650	0.03562
3789.16073	0.03541
3787.87496	0.03530
3786.58919	0.03545
3785.30343	0.03584
3784.01766	0.03621
3782.73189	0.03630
3781.44612	0.03607
3780.16035	0.03564
3778.87458	0.03513
3777.58881	0.03462
3776.30304	0.03419
3775.01728	0.03393
3773.73151	0.03397
3772.44574	0.03430
3771.15997	0.03477
3769.87420	0.03516
3768.58843	0.03537
3767.30266	0.03556
3766.01689	0.03581
3764.73112	0.03596
3763.44536	0.03566
3762.15959	0.03483
3760.87382	0.03379
3759.58805	0.03309
3758.30228	0.03303
3757.01651	0.03350
3755.73074	0.03415
3754.44497	0.03465
3753.15921	0.03482
3751.87344	0.03465
3750.58767	0.03434
3749.30190	0.03418
3748.01613	0.03424
3746.73036	0.03430
3745.44459	0.03415
3744.15882	0.03387
3742.87305	0.03376
3741.58729	0.03396
3740.30152	0.03418
3739.01575	0.03401
3737.72998	0.03342
3736.44421	0.03278
3735.15844	0.03252
3733.87267	0.03271
3732.58690	0.03312
3731.30114	0.03348
3730.01537	0.03373
3728.72960	0.03396
3727.44383	0.03421
3726.15806	0.03444
3724.87229	0.03452
3723.58652	0.03425
3722.30075	0.03352
3721.01498	0.03241
3719.72922	0.03138
3718.44345	0.03115
3717.15768	0.03208
3715.87191	0.03374
3714.58614	0.03513
3713.30037	0.03546
3712.01460	0.03477
3710.72883	0.03383
3709.44307	0.03332
3708.15730	0.03344
3706.87153	0.03372
3705.58576	0.03366
3704.29999	0.03321
3703.01422	0.03270
3701.72845	0.03251
3700.44268	0.03274
3699.15691	0.03322
3697.87115	0.03370
3696.58538	0.03394
3695.29961	0.03374
3694.01384	0.03315
3692.72807	0.03264
3691.44230	0.03264
3690.15653	0.03318
3688.87076	0.03408
3687.58500	0.03489
3686.29923	0.03511
3685.01346	0.03465
3683.72769	0.03392
3682.44192	0.03348
3681.15615	0.03372
3679.87038	0.03456
3678.58461	0.03567
3677.29884	0.03666
3676.01308	0.03707
3674.72731	0.03669
3673.44154	0.03577
3672.15577	0.03490
3670.87000	0.03447
3669.58423	0.03434
3668.29846	0.03420
3667.01269	0.03398
3665.72693	0.03377
3664.44116	0.03359
3663.15539	0.03336
3661.86962	0.03307
3660.58385	0.03284
3659.29808	0.03279
3658.01231	0.03286
3656.72654	0.03300
3655.44077	0.03328
3654.15501	0.03378
3652.86924	0.03427
3651.58347	0.03430
3650.29770	0.03368
3649.01193	0.03282
3647.72616	0.03244
3646.44039	0.03291
3645.15462	0.03398
3643.86886	0.03507
3642.58309	0.03570
3641.29732	0.03575
3640.01155	0.03545
3638.72578	0.03511
3637.44001	0.03498
3636.15424	0.03516
3634.86847	0.03551
3633.58270	0.03577
3632.29694	0.03572
3631.01117	0.03551
3629.72540	0.03558
3628.43963	0.03610
3627.15386	0.03687
3625.86809	0.03758
3624.58232	0.03805
3623.29655	0.03820
3622.01079	0.03804
3620.72502	0.03768
3619.43925	0.03733
3618.15348	0.03708
3616.86771	0.03691
3615.58194	0.03692
3614.29617	0.03725
3613.01040	0.03789
3611.72463	0.03856
3610.43887	0.03891
3609.15310	0.03876
3607.86733	0.03828
3606.58156	0.03784
3605.29579	0.03777
3604.01002	0.03820
3602.72425	0.03910
3601.43848	0.04028
3600.15272	0.04139
3598.86695	0.04205
3597.58118	0.04212
3596.29541	0.04189
3595.00964	0.04167
3593.72387	0.04159
3592.43810	0.04171
3591.15233	0.04205
3589.86656	0.04254
3588.58080	0.04299
3587.29503	0.04310
3586.00926	0.04278
3584.72349	0.04233
3583.43772	0.04227
3582.15195	0.04278
3580.86618	0.04349
3579.58041	0.04383
3578.29464	0.04360
3577.00888	0.04308
3575.72311	0.04275
3574.43734	0.04284
3573.15157	0.04326
3571.86580	0.04378
3570.58003	0.04421
3569.29426	0.04445
3568.00849	0.04459
3566.72273	0.04481
3565.43696	0.04529
3564.15119	0.04598
3562.86542	0.04666
3561.57965	0.04704
3560.29388	0.04708
3559.00811	0.04698
3557.72234	0.04698
3556.43657	0.04712
3555.15081	0.04724
3553.86504	0.04717
3552.57927	0.04694
3551.29350	0.04664
3550.00773	0.04639
3548.72196	0.04637
3547.43619	0.04683
3546.15042	0.04782
3544.86466	0.04897
3543.57889	0.04968
3542.29312	0.04964
3541.00735	0.04910
3539.72158	0.04860
3538.43581	0.04853
3537.15004	0.04882
3535.86427	0.04926
3534.57850	0.04970
3533.29274	0.05012
3532.00697	0.05049
3530.72120	0.05072
3529.43543	0.05080
3528.14966	0.05086
3526.86389	0.05108
3525.57812	0.05151
3524.29235	0.05202
3523.00659	0.05239
3521.72082	0.05258
3520.43505	0.05270
3519.14928	0.05292
3517.86351	0.05334
3516.57774	0.05388
3515.29197	0.05438
3514.00620	0.05470
3512.72043	0.05473
3511.43467	0.05446
3510.14890	0.05405
3508.86313	0.05388
3507.57736	0.05422
3506.29159	0.05493
3505.00582	0.05550
3503.72005	0.05552
3502.43428	0.05502
3501.14852	0.05444
3499.86275	0.05423
3498.57698	0.05448
3497.29121	0.05496
3496.00544	0.05537
3494.71967	0.05565
3493.43390	0.05597
3492.14813	0.05643
3490.86236	0.05692
3489.57660	0.05720
3488.29083	0.05716
3487.00506	0.05684
3485.71929	0.05644
3484.43352	0.05616
3483.14775	0.05607
3481.86198	0.05618
3480.57621	0.05651
3479.29045	0.05707
3478.00468	0.05779
3476.71891	0.05844
3475.43314	0.05884
3474.14737	0.05892
3472.86160	0.05874
3471.57583	0.05839
3470.29006	0.05803
3469.00429	0.05785
3467.71853	0.05794
3466.43276	0.05820
3465.14699	0.05847
3463.86122	0.05866
3462.57545	0.05880
3461.28968	0.05895
3460.00391	0.05913
3458.71814	0.05930
3457.43238	0.05941
3456.14661	0.05945
3454.86084	0.05949
3453.57507	0.05962
3452.28930	0.05985
3451.00353	0.06011
3449.71776	0.06033
3448.43199	0.06043
3447.14622	0.06039
3445.86046	0.06025
3444.57469	0.06017
3443.28892	0.06032
3442.00315	0.06073
3440.71738	0.06121
3439.43161	0.06152
3438.14584	0.06166
3436.86007	0.06190
3435.57431	0.06242
3434.28854	0.06302
3433.00277	0.06333
3431.71700	0.06319
3430.43123	0.06273
3429.14546	0.06226
3427.85969	0.06205
3426.57392	0.06221
3425.28815	0.06262
3424.00239	0.06305
3422.71662	0.06332
3421.43085	0.06344
3420.14508	0.06355
3418.85931	0.06372
3417.57354	0.06389
3416.28777	0.06402
3415.00200	0.06409
3413.71624	0.06413
3412.43047	0.06411
3411.14470	0.06409
3409.85893	0.06426
3408.57316	0.06474
3407.28739	0.06538
3406.00162	0.06586
3404.71585	0.06600
3403.43008	0.06594
3402.14432	0.06602
3400.85855	0.06636
3399.57278	0.06674
3398.28701	0.06671
3397.00124	0.06617
3395.71547	0.06552
3394.42970	0.06527
3393.14393	0.06554
3391.85817	0.06605
3390.57240	0.06641
3389.28663	0.06649
3388.00086	0.06640
3386.71509	0.06633
3385.42932	0.06639
3384.14355	0.06651
3382.85778	0.06657
3381.57201	0.06657
3380.28625	0.06661
3379.00048	0.06676
3377.71471	0.06701
3376.42894	0.06728
3375.14317	0.06747
3373.85740	0.06754
3372.57163	0.06755
3371.28586	0.06771
3370.00010	0.06824
3368.71433	0.06905
3367.42856	0.06978
3366.14279	0.06999
3364.85702	0.06953
3363.57125	0.06863
3362.28548	0.06769
3360.99971	0.06700
3359.71394	0.06669
3358.42818	0.06672
3357.14241	0.06704
3355.85664	0.06763
3354.57087	0.06839
3353.28510	0.06911
3351.99933	0.06957
3350.71356	0.06971
3349.42779	0.06962
3348.14202	0.06941
3346.85626	0.06912
3345.57049	0.06884
3344.28472	0.06872
3342.99895	0.06889
3341.71318	0.06927
3340.42741	0.06955
3339.14164	0.06946
3337.85587	0.06900
3336.57011	0.06852
3335.28434	0.06840
3333.99857	0.06869
3332.71280	0.06900
3331.42703	0.06901
3330.14126	0.06882
3328.85549	0.06882
3327.56972	0.06926
3326.28395	0.06988
3324.99819	0.07021
3323.71242	0.06999
3322.42665	0.06945
3321.14088	0.06898
3319.85511	0.06882
3318.56934	0.06897
3317.28357	0.06934
3315.99780	0.06984
3314.71204	0.07043
3313.42627	0.07105
3312.14050	0.07159
3310.85473	0.07198
3309.56896	0.07217
3308.28319	0.07214
3306.99742	0.07193
3305.71165	0.07165
3304.42588	0.07149
3303.14012	0.07165
3301.85435	0.07205
3300.56858	0.07240
3299.28281	0.07233
3297.99704	0.07173
3296.71127	0.07084
3295.42550	0.07011
3294.13973	0.06983
3292.85397	0.06998
3291.56820	0.07031
3290.28243	0.07060
3288.99666	0.07084
3287.71089	0.07109
3286.42512	0.07128
3285.13935	0.07128
3283.85358	0.07102
3282.56781	0.07064
3281.28205	0.07034
3279.99628	0.07029
3278.71051	0.07051
3277.42474	0.07085
3276.13897	0.07101
3274.85320	0.07080
3273.56743	0.07027
3272.28166	0.06972
3270.99590	0.06942
3269.71013	0.06936
3268.42436	0.06936
3267.13859	0.06936
3265.85282	0.06955
3264.56705	0.07010
3263.28128	0.07093
3261.99551	0.07162
3260.70974	0.07169
3259.42398	0.07095
3258.13821	0.06966
3256.85244	0.06840
3255.56667	0.06764
3254.28090	0.06750
3252.99513	0.06779
3251.70936	0.06818
3250.42359	0.06842
3249.13783	0.06838
3247.85206	0.06818
3246.56629	0.06803
3245.28052	0.06810
3243.99475	0.06832
3242.70898	0.06852
3241.42321	0.06862
3240.13744	0.06864
3238.85167	0.06858
3237.56591	0.06848
3236.28014	0.06837
3234.99437	0.06825
3233.70860	0.06809
3232.42283	0.06793
3231.13706	0.06789
3229.85129	0.06801
3228.56552	0.06816
3227.27976	0.06814
3225.99399	0.06785
3224.70822	0.06736
3223.42245	0.06685
3222.13668	0.06641
3220.85091	0.06606
3219.56514	0.06584
3218.27937	0.06584
3216.99360	0.06604
3215.70784	0.06630
3214.42207	0.06644
3213.13630	0.06640
3211.85053	0.06621
3210.56476	0.06594
3209.27899	0.06573
3207.99322	0.06572
3206.70745	0.06589
3205.42169	0.06597
3204.13592	0.06567
3202.85015	0.06497
3201.56438	0.06417
3200.27861	0.06360
3198.99284	0.06346
3197.70707	0.06374
3196.42130	0.06430
3195.13553	0.06490
3193.84977	0.06531
3192.56400	0.06545
3191.27823	0.06540
3189.99246	0.06523
3188.70669	0.06497
3187.42092	0.06475
3186.13515	0.06470
3184.84938	0.06472
3183.56362	0.06454
3182.27785	0.06400
3180.99208	0.06333
3179.70631	0.06291
3178.42054	0.06294
3177.13477	0.06325
3175.84900	0.06349
3174.56323	0.06340
3173.27746	0.06294
3171.99170	0.06233
3170.70593	0.06186
3169.42016	0.06170
3168.13439	0.06176
3166.84862	0.06183
3165.56285	0.06183
3164.27708	0.06187
3162.99131	0.06202
3161.70555	0.06209
3160.41978	0.06192
3159.13401	0.06154
3157.84824	0.06122
3156.56247	0.06112
3155.27670	0.06113
3153.99093	0.06104
3152.70516	0.06066
3151.41939	0.06011
3150.13363	0.05978
3148.84786	0.06002
3147.56209	0.06075
3146.27632	0.06153
3144.99055	0.06193
3143.70478	0.06183
3142.41901	0.06139
3141.13324	0.06079
3139.84748	0.06016
3138.56171	0.05961
3137.27594	0.05923
3135.99017	0.05899
3134.70440	0.05887
3133.41863	0.05883
3132.13286	0.05884
3130.84709	0.05881
3129.56132	0.05865
3128.27556	0.05843
3126.98979	0.05835
3125.70402	0.05853
3124.41825	0.05881
3123.13248	0.05894
3121.84671	0.05874
3120.56094	0.05826
3119.27517	0.05765
3117.98940	0.05709
3116.70364	0.05670
3115.41787	0.05656
3114.13210	0.05667
3112.84633	0.05696
3111.56056	0.05734
3110.27479	0.05765
3108.98902	0.05774
3107.70325	0.05748
3106.41749	0.05694
3105.13172	0.05647
3103.84595	0.05646
3102.56018	0.05695
3101.27441	0.05762
3099.98864	0.05808
3098.70287	0.05821
3097.41710	0.05816
3096.13133	0.05814
3094.84557	0.05817
3093.55980	0.05816
3092.27403	0.05800
3090.98826	0.05764
3089.70249	0.05716
3088.41672	0.05680
3087.13095	0.05678
3085.84518	0.05710
3084.55942	0.05754
3083.27365	0.05786
3081.98788	0.05796
3080.70211	0.05785
3079.41634	0.05757
3078.13057	0.05725
3076.84480	0.05705
3075.55903	0.05710
3074.27326	0.05730
3072.98750	0.05750
3071.70173	0.05760
3070.41596	0.05762
3069.13019	0.05754
3067.84442	0.05732
3066.55865	0.05699
3065.27288	0.05669
3063.98711	0.05651
3062.70135	0.05644
3061.41558	0.05639
3060.12981	0.05627
3058.84404	0.05607
3057.55827	0.05595
3056.27250	0.05608
3054.98673	0.05648
3053.70096	0.05695
3052.41519	0.05714
3051.12943	0.05687
3049.84366	0.05622
3048.55789	0.05548
3047.27212	0.05496
3045.98635	0.05479
3044.70058	0.05489
3043.41481	0.05508
3042.12904	0.05522
3040.84328	0.05523
3039.55751	0.05514
3038.27174	0.05505
3036.98597	0.05506
3035.70020	0.05511
3034.41443	0.05511
3033.12866	0.05501
3031.84289	0.05485
3030.55712	0.05467
3029.27136	0.05447
3027.98559	0.05427
3026.69982	0.05414
3025.41405	0.05410
3024.12828	0.05406
3022.84251	0.05395
3021.55674	0.05378
3020.27097	0.05359
3018.98521	0.05334
3017.69944	0.05294
3016.41367	0.05239
3015.12790	0.05181
3013.84213	0.05139
3012.55636	0.05127
3011.27059	0.05141
3009.98482	0.05160
3008.69905	0.05159
3007.41329	0.05143
3006.12752	0.05140
3004.84175	0.05169
3003.55598	0.05216
3002.27021	0.05247
3000.98444	0.05243
2999.69867	0.05213
2998.41290	0.05179
2997.12714	0.05156
2995.84137	0.05145
2994.55560	0.05140
2993.26983	0.05135
2991.98406	0.05128
2990.69829	0.05118
2989.41252	0.05112
2988.12675	0.05117
2986.84098	0.05133
2985.55522	0.05150
2984.26945	0.05157
2982.98368	0.05154
2981.69791	0.05157
2980.41214	0.05178
2979.12637	0.05214
2977.84060	0.05240
2976.55483	0.05237
2975.26907	0.05218
2973.98330	0.05214
2972.69753	0.05246
2971.41176	0.05305
2970.12599	0.05366
2968.84022	0.05414
2967.55445	0.05445
2966.26868	0.05471
2964.98291	0.05505
2963.69715	0.05548
2962.41138	0.05592
2961.12561	0.05634
2959.83984	0.05679
2958.55407	0.05724
2957.26830	0.05766
2955.98253	0.05806
2954.69676	0.05853
2953.41100	0.05896
2952.12523	0.05920
2950.83946	0.05917
2949.55369	0.05907
2948.26792	0.05908
2946.98215	0.05924
2945.69638	0.05941
2944.41061	0.05948
2943.12484	0.05943
2941.83908	0.05932
2940.55331	0.05921
2939.26754	0.05913
2937.98177	0.05912
2936.69600	0.05914
2935.41023	0.05913
2934.12446	0.05905
2932.83869	0.05891
2931.55293	0.05869
2930.26716	0.05836
2928.98139	0.05793
2927.69562	0.05744
2926.40985	0.05690
2925.12408	0.05632
2923.83831	0.05571
2922.55254	0.05507
2921.26677	0.05430
2919.98101	0.05337
2918.69524	0.05242
2917.40947	0.05171
2916.12370	0.05152
2914.83793	0.05194
2913.55216	0.05288
2912.26639	0.05414
2910.98062	0.05545
2909.69486	0.05650
2908.40909	0.05713
2907.12332	0.05747
2905.83755	0.05771
2904.55178	0.05792
2903.26601	0.05803
2901.98024	0.05804
2900.69447	0.05805
2899.40870	0.05812
2898.12294	0.05821
2896.83717	0.05823
2895.55140	0.05815
2894.26563	0.05797
2892.97986	0.05774
2891.69409	0.05753
2890.40832	0.05739
2889.12255	0.05726
2887.83678	0.05714
2886.55102	0.05699
2885.26525	0.05684
2883.97948	0.05669
2882.69371	0.05657
2881.40794	0.05648
2880.12217	0.05639
2878.83640	0.05628
2877.55063	0.05618
2876.26487	0.05619
2874.97910	0.05639
2873.69333	0.05681
2872.40756	0.05732
2871.12179	0.05771
2869.83602	0.05784
2868.55025	0.05778
2867.26448	0.05764
2865.97871	0.05748
2864.69295	0.05723
2863.40718	0.05680
2862.12141	0.05623
2860.83564	0.05569
2859.54987	0.05524
2858.26410	0.05477
2856.97833	0.05406
2855.69256	0.05303
2854.40680	0.05182
2853.12103	0.05062
2851.83526	0.04962
2850.54949	0.04894
2849.26372	0.04875
2847.97795	0.04919
2846.69218	0.05016
2845.40641	0.05131
2844.12064	0.05227
2842.83488	0.05288
2841.54911	0.05320
2840.26334	0.05328
2838.97757	0.05309
2837.69180	0.05269
2836.40603	0.05223
2835.12026	0.05190
2833.83449	0.05173
2832.54873	0.05161
2831.26296	0.05138
2829.97719	0.05103
2828.69142	0.05071
2827.40565	0.05054
2826.11988	0.05051
2824.83411	0.05046
2823.54834	0.05033
2822.26257	0.05009
2820.97681	0.04977
2819.69104	0.04939
2818.40527	0.04897
2817.11950	0.04858
2815.83373	0.04829
2814.54796	0.04816
2813.26219	0.04822
2811.97642	0.04840
2810.69066	0.04855
2809.40489	0.04854
2808.11912	0.04832
2806.83335	0.04801
2805.54758	0.04777
2804.26181	0.04767
2802.97604	0.04763
2801.69027	0.04758
2800.40450	0.04752
2799.11874	0.04744
2797.83297	0.04730
2796.54720	0.04709
2795.26143	0.04693
2793.97566	0.04696
2792.68989	0.04720
2791.40412	0.04753
2790.11835	0.04775
2788.83259	0.04771
2787.54682	0.04738
2786.26105	0.04686
2784.97528	0.04633
2783.68951	0.04595
2782.40374	0.04581
2781.11797	0.04592
2779.83220	0.04623
2778.54643	0.04661
2777.26067	0.04691
2775.97490	0.04698
2774.68913	0.04676
2773.40336	0.04637
2772.11759	0.04601
2770.83182	0.04580
2769.54605	0.04568
2768.26028	0.04551
2766.97452	0.04527
2765.68875	0.04508
2764.40298	0.04504
2763.11721	0.04510
2761.83144	0.04514
2760.54567	0.04510
2759.25990	0.04500
2757.97413	0.04488
2756.68836	0.04479
2755.40260	0.04476
2754.11683	0.04481
2752.83106	0.04483
2751.54529	0.04469
2750.25952	0.04440
2748.97375	0.04412
2747.68798	0.04403
2746.40221	0.04413
2745.11645	0.04429
2743.83068	0.04440
2742.54491	0.04438
2741.25914	0.04418
2739.97337	0.04385
2738.68760	0.04354
2737.40183	0.04342
2736.11606	0.04351
2734.83029	0.04366
2733.54453	0.04374
2732.25876	0.04372
2730.97299	0.04367
2729.68722	0.04359
2728.40145	0.04345
2727.11568	0.04330
2725.82991	0.04324
2724.54414	0.04329
2723.25838	0.04333
2721.97261	0.04324
2720.68684	0.04305
2719.40107	0.04288
2718.11530	0.04281
2716.82953	0.04281
2715.54376	0.04282
2714.25799	0.04281
2712.97222	0.04280
2711.68646	0.04279
2710.40069	0.04278
2709.11492	0.04273
2707.82915	0.04259
2706.54338	0.04237
2705.25761	0.04216
2703.97184	0.04204
2702.68607	0.04203
2701.40031	0.04205
2700.11454	0.04204
2698.82877	0.04201
2697.54300	0.04195
2696.25723	0.04185
2694.97146	0.04169
2693.68569	0.04153
2692.39992	0.04147
2691.11415	0.04155
2689.82839	0.04168
2688.54262	0.04176
2687.25685	0.04170
2685.97108	0.04148
2684.68531	0.04122
2683.39954	0.04105
2682.11377	0.04101
2680.82800	0.04099
2679.54224	0.04092
2678.25647	0.04084
2676.97070	0.04083
2675.68493	0.04096
2674.39916	0.04117
2673.11339	0.04133
2671.82762	0.04134
2670.54185	0.04121
2669.25608	0.04103
2667.97032	0.04093
2666.68455	0.04092
2665.39878	0.04096
2664.11301	0.04104
2662.82724	0.04112
2661.54147	0.04112
2660.25570	0.04104
2658.96993	0.04089
2657.68417	0.04073
2656.39840	0.04060
2655.11263	0.04053
2653.82686	0.04049
2652.54109	0.04037
2651.25532	0.04006
2649.96955	0.03968
2648.68378	0.03944
2647.39801	0.03941
2646.11225	0.03946
2644.82648	0.03942
2643.54071	0.03923
2642.25494	0.03896
2640.96917	0.03863
2639.68340	0.03826
2638.39763	0.03797
2637.11186	0.03786
2635.82609	0.03793
2634.54033	0.03800
2633.25456	0.03794
2631.96879	0.03776
2630.68302	0.03758
2629.39725	0.03744
2628.11148	0.03726
2626.82571	0.03701
2625.53994	0.03678
2624.25418	0.03668
2622.96841	0.03671
2621.68264	0.03680
2620.39687	0.03686
2619.11110	0.03683
2617.82533	0.03671
2616.53956	0.03648
2615.25379	0.03621
2613.96802	0.03595
2612.68226	0.03574
2611.39649	0.03553
2610.11072	0.03529
2608.82495	0.03510
2607.53918	0.03504
2606.25341	0.03518
2604.96764	0.03548
2603.68187	0.03579
2602.39611	0.03594
2601.11034	0.03582
2599.82457	0.03545
2598.53880	0.03499
2597.25303	0.03465
2595.96726	0.03453
2594.68149	0.03457
2593.39572	0.03465
2592.10995	0.03480
2590.82419	0.03504
2589.53842	0.03524
2588.25265	0.03513
2586.96688	0.03459
2585.68111	0.03396
2584.39534	0.03373
2583.10957	0.03399
2581.82380	0.03433
2580.53804	0.03430
2579.25227	0.03390
2577.96650	0.03348
2576.68073	0.03329
2575.39496	0.03326
2574.10919	0.03313
2572.82342	0.03286
2571.53765	0.03265
2570.25188	0.03269
2568.96612	0.03295
2567.68035	0.03319
2566.39458	0.03316
2565.10881	0.03279
2563.82304	0.03219
2562.53727	0.03170
2561.25150	0.03161
2559.96573	0.03199
2558.67997	0.03256
2557.39420	0.03298
2556.10843	0.03316
2554.82266	0.03320
2553.53689	0.03318
2552.25112	0.03305
2550.96535	0.03282
2549.67958	0.03260
2548.39381	0.03251
2547.10805	0.03250
2545.82228	0.03250
2544.53651	0.03245
2543.25074	0.03233
2541.96497	0.03219
2540.67920	0.03213
2539.39343	0.03221
2538.10766	0.03234
2536.82190	0.03238
2535.53613	0.03233
2534.25036	0.03230
2532.96459	0.03238
2531.67882	0.03250
2530.39305	0.03256
2529.10728	0.03252
2527.82151	0.03242
2526.53574	0.03224
2525.24998	0.03199
2523.96421	0.03169
2522.67844	0.03146
2521.39267	0.03140
2520.10690	0.03152
2518.82113	0.03171
2517.53536	0.03187
2516.24959	0.03195
2514.96383	0.03194
2513.67806	0.03184
2512.39229	0.03162
2511.10652	0.03135
2509.82075	0.03117
2508.53498	0.03120
2507.24921	0.03135
2505.96344	0.03138
2504.67767	0.03118
2503.39191	0.03090
2502.10614	0.03076
2500.82037	0.03083
2499.53460	0.03095
2498.24883	0.03087
2496.96306	0.03054
2495.67729	0.03022
2494.39152	0.03020
2493.10576	0.03054
2491.81999	0.03098
2490.53422	0.03129
2489.24845	0.03141
2487.96268	0.03141
2486.67691	0.03132
2485.39114	0.03105
2484.10537	0.03054
2482.81960	0.02994
2481.53384	0.02953
2480.24807	0.02952
2478.96230	0.02978
2477.67653	0.03000
2476.39076	0.03010
2475.10499	0.03018
2473.81922	0.03033
2472.53345	0.03051
2471.24769	0.03058
2469.96192	0.03050
2468.67615	0.03036
2467.39038	0.03029
2466.10461	0.03033
2464.81884	0.03036
2463.53307	0.03031
2462.24730	0.03029
2460.96153	0.03038
2459.67577	0.03047
2458.39000	0.03044
2457.10423	0.03041
2455.81846	0.03059
2454.53269	0.03093
2453.24692	0.03111
2451.96115	0.03088
2450.67538	0.03040
2449.38962	0.03009
2448.10385	0.03012
2446.81808	0.03026
2445.53231	0.03013
2444.24654	0.02966
2442.96077	0.02917
2441.67500	0.02903
2440.38923	0.02927
2439.10346	0.02957
2437.81770	0.02967
2436.53193	0.02961
2435.24616	0.02957
2433.96039	0.02967
2432.67462	0.02980
2431.38885	0.02984
2430.10308	0.02979
2428.81731	0.02970
2427.53155	0.02959
2426.24578	0.02941
2424.96001	0.02914
2423.67424	0.02885
2422.38847	0.02870
2421.10270	0.02881
2419.81693	0.02915
2418.53116	0.02949
2417.24539	0.02965
2415.95963	0.02960
2414.67386	0.02942
2413.38809	0.02914
2412.10232	0.02884
2410.81655	0.02862
2409.53078	0.02861
2408.24501	0.02884
2406.95924	0.02920
2405.67347	0.02948
2404.38771	0.02953
2403.10194	0.02928
2401.81617	0.02882
2400.53040	0.02845
2399.24463	0.02840
2397.95886	0.02867
2396.67309	0.02900
2395.38732	0.02915
2394.10156	0.02910
2392.81579	0.02902
2391.53002	0.02907
2390.24425	0.02925
2388.95848	0.02942
2387.67271	0.02949
2386.38694	0.02944
2385.10117	0.02935
2383.81540	0.02935
2382.52964	0.02953
2381.24387	0.02993
2379.95810	0.03047
2378.67233	0.03105
2377.38656	0.03161
2376.10079	0.03198
2374.81502	0.03214
2373.52925	0.03232
2372.24349	0.03256
2370.95772	0.03322
2369.67195	0.03384
2368.38618	0.03438
2367.10041	0.03511
2365.81464	0.03596
2364.52887	0.03611
2363.24310	0.03599
2361.95733	0.03617
2360.67157	0.03680
2359.38580	0.03686
2358.10003	0.03663
2356.81426	0.03626
2355.52849	0.03580
2354.24272	0.03537
2352.95695	0.03451
2351.67118	0.03380
2350.38542	0.03387
2349.09965	0.03401
2347.81388	0.03345
2346.52811	0.03314
2345.24234	0.03357
2343.95657	0.03440
2342.67080	0.03462
2341.38503	0.03478
2340.09926	0.03530
2338.81350	0.03561
2337.52773	0.03579
2336.24196	0.03565
2334.95619	0.03531
2333.67042	0.03521
2332.38465	0.03447
2331.09888	0.03436
2329.81311	0.03477
2328.52735	0.03426
2327.24158	0.03477
2325.95581	0.03571
2324.67004	0.03526
2323.38427	0.03481
2322.09850	0.03461
2320.81273	0.03310
2319.52696	0.03234
2318.24119	0.03218
2316.95543	0.03152
2315.66966	0.03143
2314.38389	0.03130
2313.09812	0.03065
2311.81235	0.03022
2310.52658	0.02949
2309.24081	0.02902
2307.95504	0.02907
2306.66928	0.02897
2305.38351	0.02897
2304.09774	0.02879
2302.81197	0.02846
2301.52620	0.02833
2300.24043	0.02822
2298.95466	0.02820
2297.66889	0.02814
2296.38312	0.02807
2295.09736	0.02800
2293.81159	0.02784
2292.52582	0.02765
2291.24005	0.02737
2289.95428	0.02703
2288.66851	0.02658
2287.38274	0.02611
2286.09697	0.02582
2284.81121	0.02586
2283.52544	0.02612
2282.23967	0.02638
2280.95390	0.02645
2279.66813	0.02627
2278.38236	0.02580
2277.09659	0.02507
2275.81082	0.02424
2274.52505	0.02359
2273.23929	0.02328
2271.95352	0.02326
2270.66775	0.02333
2269.38198	0.02328
2268.09621	0.02306
2266.81044	0.02275
2265.52467	0.02254
2264.23890	0.02273
2262.95314	0.02342
2261.66737	0.02434
2260.38160	0.02493
2259.09583	0.02483
2257.81006	0.02415
2256.52429	0.02333
2255.23852	0.02273
2253.95275	0.02250
2252.66698	0.02254
2251.38122	0.02264
2250.09545	0.02258
2248.80968	0.02226
2247.52391	0.02194
2246.23814	0.02145
2244.95237	0.02087
2243.66660	0.02037
2242.38083	0.02008
2241.09507	0.01996
2239.80930	0.01991
2238.52353	0.01993
2237.23776	0.02009
2235.95199	0.02038
2234.66622	0.02071
2233.38045	0.02090
2232.09468	0.02076
2230.80891	0.02015
2229.52315	0.01917
2228.23738	0.01822
2226.95161	0.01765
2225.66584	0.01737
2224.38007	0.01702
2223.09430	0.01646
2221.80853	0.01584
2220.52276	0.01533
2219.23700	0.01496
2217.95123	0.01483
2216.66546	0.01516
2215.37969	0.01596
2214.09392	0.01685
2212.80815	0.01738
2211.52238	0.01751
2210.23661	0.01777
2208.95084	0.01869
2207.66508	0.02018
2206.37931	0.02144
2205.09354	0.02168
2203.80777	0.02088
2202.52200	0.01968
2201.23623	0.01865
2199.95046	0.01789
2198.66469	0.01723
2197.37893	0.01655
2196.09316	0.01581
2194.80739	0.01521
2193.52162	0.01518
2192.23585	0.01596
2190.95008	0.01716
2189.66431	0.01791
2188.37854	0.01774
2187.09277	0.01700
2185.80701	0.01640
2184.52124	0.01611
2183.23547	0.01571
2181.94970	0.01490
2180.66393	0.01395
2179.37816	0.01329
2178.09239	0.01298
2176.80662	0.01288
2175.52085	0.01309
2174.23509	0.01371
2172.94932	0.01450
2171.66355	0.01497
2170.37778	0.01492
2169.09201	0.01438
2167.80624	0.01335
2166.52047	0.01190
2165.23470	0.01068
2163.94894	0.01053
2162.66317	0.01143
2161.37740	0.01221
2160.09163	0.01175
2158.80586	0.01029
2157.52009	0.00911
2156.23432	0.00896
2154.94855	0.00945
2153.66278	0.00992
2152.37702	0.01025
2151.09125	0.01089
2149.80548	0.01225
2148.51971	0.01407
2147.23394	0.01554
2145.94817	0.01609
2144.66240	0.01600
2143.37663	0.01587
2142.09087	0.01584
2140.80510	0.01563
2139.51933	0.01523
2138.23356	0.01499
2136.94779	0.01515
2135.66202	0.01559
2134.37625	0.01599
2133.09048	0.01615
2131.80471	0.01614
2130.51895	0.01613
2129.23318	0.01622
2127.94741	0.01640
2126.66164	0.01650
2125.37587	0.01646
2124.09010	0.01636
2122.80433	0.01639
2121.51856	0.01673
2120.23280	0.01726
2118.94703	0.01769
2117.66126	0.01782
2116.37549	0.01776
2115.08972	0.01776
2113.80395	0.01793
2112.51818	0.01812
2111.23241	0.01813
2109.94664	0.01793
2108.66088	0.01772
2107.37511	0.01766
2106.08934	0.01767
2104.80357	0.01755
2103.51780	0.01724
2102.23203	0.01684
2100.94626	0.01641
2099.66049	0.01662
2098.37473	0.01654
2097.08896	0.01626
2095.80319	0.01606
2094.51742	0.01601
2093.23165	0.01615
2091.94588	0.01645
2090.66011	0.01670
2089.37434	0.01674
2088.08857	0.01670
2086.80281	0.01688
2085.51704	0.01736
2084.23127	0.01779
2082.94550	0.01774
2081.65973	0.01711
2080.37396	0.01626
2079.08819	0.01565
2077.80242	0.01547
2076.51666	0.01559
2075.23089	0.01582
2073.94512	0.01601
2072.65935	0.01608
2071.37358	0.01596
2070.08781	0.01570
2068.80204	0.01540
2067.51627	0.01524
2066.23050	0.01537
2064.94474	0.01574
2063.65897	0.01609
2062.37320	0.01612
2061.08743	0.01572
2059.80166	0.01507
2058.51589	0.01433
2057.23012	0.01355
2055.94435	0.01284
2054.65859	0.01252
2053.37282	0.01282
2052.08705	0.01349
2050.80128	0.01392
2049.51551	0.01358
2048.22974	0.01255
2046.94397	0.01141
2045.65820	0.01071
2044.37243	0.01060
2043.08667	0.01074
2041.80090	0.01066
2040.51513	0.01008
2039.22936	0.00910
2037.94359	0.00809
2036.65782	0.00755
2035.37205	0.00775
2034.08628	0.00853
2032.80052	0.00932
2031.51475	0.00962
2030.22898	0.00947
2028.94321	0.00931
2027.65744	0.00950
2026.37167	0.00992
2025.08590	0.01014
2023.80013	0.00983
2022.51436	0.00909
2021.22860	0.00826
2019.94283	0.00762
2018.65706	0.00717
2017.37129	0.00672
2016.08552	0.00618
2014.79975	0.00578
2013.51398	0.00596
2012.22821	0.00694
2010.94245	0.00833
2009.65668	0.00933
2008.37091	0.00940
2007.08514	0.00879
2005.79937	0.00826
2004.51360	0.00829
2003.22783	0.00883
2001.94206	0.00961
2000.65629	0.01054
1999.37053	0.01163
1998.08476	0.01274
1996.79899	0.01355
1995.51322	0.01392
1994.22745	0.01406
1992.94168	0.01438
1991.65591	0.01489
1990.37014	0.01515
1989.08438	0.01479
1987.79861	0.01388
1986.51284	0.01288
1985.22707	0.01218
1983.94130	0.01197
1982.65553	0.01231
1981.36976	0.01303
1980.08399	0.01372
1978.79822	0.01402
1977.51246	0.01399
1976.22669	0.01403
1974.94092	0.01439
1973.65515	0.01486
1972.36938	0.01504
1971.08361	0.01479
1969.79784	0.01438
1968.51207	0.01407
1967.22631	0.01381
1965.94054	0.01329
1964.65477	0.01235
1963.36900	0.01131
1962.08323	0.01075
1960.79746	0.01088
1959.51169	0.01139
1958.22592	0.01186
1956.94015	0.01223
1955.65439	0.01271
1954.36862	0.01327
1953.08285	0.01362
1951.79708	0.01364
1950.51131	0.01358
1949.22554	0.01376
1947.93977	0.01418
1946.65400	0.01452
1945.36823	0.01458
1944.08247	0.01448
1942.79670	0.01450
1941.51093	0.01480
1940.22516	0.01527
1938.93939	0.01569
1937.65362	0.01598
1936.36785	0.01613
1935.08208	0.01614
1933.79632	0.01603
1932.51055	0.01598
1931.22478	0.01624
1929.93901	0.01682
1928.65324	0.01739
1927.36747	0.01757
1926.08170	0.01723
1924.79593	0.01660
1923.51016	0.01603
1922.22440	0.01571
1920.93863	0.01565
1919.65286	0.01579
1918.36709	0.01610
1917.08132	0.01658
1915.79555	0.01715
1914.50978	0.01765
1913.22401	0.01793
1911.93825	0.01797
1910.65248	0.01791
1909.36671	0.01782
1908.08094	0.01766
1906.79517	0.01741
1905.50940	0.01719
1904.22363	0.01715
1902.93786	0.01723
1901.65209	0.01727
1900.36633	0.01716
1899.08056	0.01694
1897.79479	0.01681
1896.50902	0.01687
1895.22325	0.01712
1893.93748	0.01741
1892.65171	0.01755
1891.36594	0.01749
1890.08018	0.01732
1888.79441	0.01716
1887.50864	0.01700
1886.22287	0.01679
1884.93710	0.01652
1883.65133	0.01632
1882.36556	0.01630
1881.07979	0.01650
1879.79402	0.01683
1878.50826	0.01714
1877.22249	0.01733
1875.93672	0.01738
1874.65095	0.01736
1873.36518	0.01734
1872.07941	0.01739
1870.79364	0.01749
1869.50787	0.01760
1868.22211	0.01763
1866.93634	0.01758
1865.65057	0.01755
1864.36480	0.01761
1863.07903	0.01774
1861.79326	0.01782
1860.50749	0.01779
1859.22172	0.01770
1857.93595	0.01762
1856.65019	0.01756
1855.36442	0.01747
1854.07865	0.01734
1852.79288	0.01723
1851.50711	0.01720
1850.22134	0.01724
1848.93557	0.01731
1847.64980	0.01738
1846.36404	0.01745
1845.07827	0.01753
1843.79250	0.01757
1842.50673	0.01754
1841.22096	0.01743
1839.93519	0.01730
1838.64942	0.01721
1837.36365	0.01720
1836.07788	0.01724
1834.79212	0.01732
1833.50635	0.01742
1832.22058	0.01755
1830.93481	0.01767
1829.64904	0.01773
1828.36327	0.01771
1827.07750	0.01769
1825.79173	0.01773
1824.50597	0.01783
1823.22020	0.01793
1821.93443	0.01797
1820.64866	0.01797
1819.36289	0.01794
1818.07712	0.01790
1816.79135	0.01785
1815.50558	0.01778
1814.21981	0.01769
1812.93405	0.01759
1811.64828	0.01747
1810.36251	0.01735
1809.07674	0.01724
1807.79097	0.01716
1806.50520	0.01715
1805.21943	0.01720
1803.93366	0.01730
1802.64790	0.01741
1801.36213	0.01749
1800.07636	0.01747
1798.79059	0.01737
1797.50482	0.01724
1796.21905	0.01717
1794.93328	0.01723
1793.64751	0.01736
1792.36174	0.01748
1791.07598	0.01752
1789.79021	0.01751
1788.50444	0.01750
1787.21867	0.01756
1785.93290	0.01764
1784.64713	0.01768
1783.36136	0.01765
1782.07559	0.01758
1780.78983	0.01749
1779.50406	0.01741
1778.21829	0.01738
1776.93252	0.01742
1775.64675	0.01755
1774.36098	0.01771
1773.07521	0.01779
1771.78944	0.01774
1770.50367	0.01761
1769.21791	0.01747
1767.93214	0.01733
1766.64637	0.01719
1765.36060	0.01705
1764.07483	0.01700
1762.78906	0.01704
1761.50329	0.01709
1760.21752	0.01706
1758.93176	0.01693
1757.64599	0.01676
1756.36022	0.01661
1755.07445	0.01648
1753.78868	0.01636
1752.50291	0.01621
1751.21714	0.01603
1749.93137	0.01580
1748.64560	0.01551
1747.35984	0.01517
1746.07407	0.01481
1744.78830	0.01449
1743.50253	0.01427
1742.21676	0.01413
1740.93099	0.01404
1739.64522	0.01401
1738.35945	0.01410
1737.07369	0.01436
1735.78792	0.01473
1734.50215	0.01510
1733.21638	0.01535
1731.93061	0.01547
1730.64484	0.01549
1729.35907	0.01548
1728.07330	0.01550
1726.78753	0.01562
1725.50177	0.01586
1724.21600	0.01621
1722.93023	0.01659
1721.64446	0.01698
1720.35869	0.01736
1719.07292	0.01775
1717.78715	0.01809
1716.50138	0.01835
1715.21561	0.01857
1713.92985	0.01881
1712.64408	0.01913
1711.35831	0.01951
1710.07254	0.01994
1708.78677	0.02041
1707.50100	0.02095
1706.21523	0.02154
1704.92946	0.02219
1703.64370	0.02290
1702.35793	0.02370
1701.07216	0.02457
1699.78639	0.02545
1698.50062	0.02631
1697.21485	0.02714
1695.92908	0.02792
1694.64331	0.02862
1693.35754	0.02928
1692.07178	0.02998
1690.78601	0.03078
1689.50024	0.03171
1688.21447	0.03273
1686.92870	0.03382
1685.64293	0.03490
1684.35716	0.03587
1683.07139	0.03667
1681.78563	0.03737
1680.49986	0.03810
1679.21409	0.03894
1677.92832	0.03988
1676.64255	0.04078
1675.35678	0.04157
1674.07101	0.04226
1672.78524	0.04298
1671.49947	0.04382
1670.21371	0.04477
1668.92794	0.04570
1667.64217	0.04655
1666.35640	0.04734
1665.07063	0.04811
1663.78486	0.04889
1662.49909	0.04965
1661.21332	0.05036
1659.92756	0.05107
1658.64179	0.05181
1657.35602	0.05264
1656.07025	0.05357
1654.78448	0.05450
1653.49871	0.05524
1652.21294	0.05568
1650.92717	0.05590
1649.64140	0.05607
1648.35564	0.05631
1647.06987	0.05658
1645.78410	0.05676
1644.49833	0.05682
1643.21256	0.05681
1641.92679	0.05681
1640.64102	0.05681
1639.35525	0.05680
1638.06949	0.05673
1636.78372	0.05654
1635.49795	0.05620
1634.21218	0.05572
1632.92641	0.05517
1631.64064	0.05465
1630.35487	0.05417
1629.06910	0.05364
1627.78333	0.05298
1626.49757	0.05220
1625.21180	0.05136
1623.92603	0.05053
1622.64026	0.04973
1621.35449	0.04895
1620.06872	0.04816
1618.78295	0.04739
1617.49718	0.04662
1616.21142	0.04585
1614.92565	0.04508
1613.63988	0.04432
1612.35411	0.04361
1611.06834	0.04296
1609.78257	0.04235
1608.49680	0.04179
1607.21103	0.04129
1605.92526	0.04084
1604.63950	0.04044
1603.35373	0.04008
1602.06796	0.03977
1600.78219	0.03949
1599.49642	0.03926
1598.21065	0.03909
1596.92488	0.03899
1595.63911	0.03898
1594.35335	0.03905
1593.06758	0.03916
1591.78181	0.03928
1590.49604	0.03937
1589.21027	0.03946
1587.92450	0.03956
1586.63873	0.03971
1585.35296	0.03992
1584.06719	0.04018
1582.78143	0.04048
1581.49566	0.04083
1580.20989	0.04125
1578.92412	0.04173
1577.63835	0.04223
1576.35258	0.04269
1575.06681	0.04308
1573.78104	0.04344
1572.49528	0.04383
1571.20951	0.04427
1569.92374	0.04470
1568.63797	0.04509
1567.35220	0.04542
1566.06643	0.04575
1564.78066	0.04613
1563.49489	0.04662
1562.20912	0.04724
1560.92336	0.04796
1559.63759	0.04863
1558.35182	0.04910
1557.06605	0.04934
1555.78028	0.04946
1554.49451	0.04957
1553.20874	0.04971
1551.92297	0.04987
1550.63721	0.04999
1549.35144	0.05009
1548.06567	0.05019
1546.77990	0.05030
1545.49413	0.05041
1544.20836	0.05049
1542.92259	0.05054
1541.63682	0.05055
1540.35105	0.05049
1539.06529	0.05034
1537.77952	0.05014
1536.49375	0.04997
1535.20798	0.04989
1533.92221	0.04985
1532.63644	0.04978
1531.35067	0.04968
1530.06490	0.04964
1528.77914	0.04972
1527.49337	0.04990
1526.20760	0.05012
1524.92183	0.05037
1523.63606	0.05065
1522.35029	0.05095
1521.06452	0.05121
1519.77875	0.05139
1518.49298	0.05153
1517.20722	0.05168
1515.92145	0.05190
1514.63568	0.05218
1513.34991	0.05255
1512.06414	0.05299
1510.77837	0.05353
1509.49260	0.05417
1508.20683	0.05484
1506.92107	0.05548
1505.63530	0.05596
1504.34953	0.05627
1503.06376	0.05649
1501.77799	0.05671
1500.49222	0.05701
1499.20645	0.05736
1497.92068	0.05769
1496.63491	0.05793
1495.34915	0.05808
1494.06338	0.05822
1492.77761	0.05841
1491.49184	0.05871
1490.20607	0.05910
1488.92030	0.05953
1487.63453	0.05998
1486.34876	0.06047
1485.06299	0.06103
1483.77723	0.06168
1482.49146	0.06239
1481.20569	0.06314
1479.91992	0.06392
1478.63415	0.06471
1477.34838	0.06549
1476.06261	0.06623
1474.77684	0.06691
1473.49108	0.06753
1472.20531	0.06808
1470.91954	0.06860
1469.63377	0.06911
1468.34800	0.06961
1467.06223	0.07009
1465.77646	0.07054
1464.49069	0.07094
1463.20492	0.07133
1461.91916	0.07179
1460.63339	0.07239
1459.34762	0.07312
1458.06185	0.07390
1456.77608	0.07458
1455.49031	0.07509
1454.20454	0.07549
1452.91877	0.07589
1451.63301	0.07632
1450.34724	0.07676
1449.06147	0.07710
1447.77570	0.07729
1446.48993	0.07732
1445.20416	0.07724
1443.91839	0.07707
1442.63262	0.07686
1441.34685	0.07665
1440.06109	0.07650
1438.77532	0.07638
1437.48955	0.07624
1436.20378	0.07604
1434.91801	0.07584
1433.63224	0.07573
1432.34647	0.07578
1431.06070	0.07602
1429.77494	0.07644
1428.48917	0.07698
1427.20340	0.07763
1425.91763	0.07839
1424.63186	0.07927
1423.34609	0.08026
1422.06032	0.08132
1420.77455	0.08237
1419.48878	0.08331
1418.20302	0.08410
1416.91725	0.08472
1415.63148	0.08524
1414.34571	0.08570
1413.05994	0.08612
1411.77417	0.08649
1410.48840	0.08678
1409.20263	0.08694
1407.91687	0.08696
1406.63110	0.08682
1405.34533	0.08651
1404.05956	0.08603
1402.77379	0.08541
1401.48802	0.08471
1400.20225	0.08392
1398.91648	0.08304
1397.63071	0.08205
1396.34495	0.08097
1395.05918	0.07982
1393.77341	0.07860
1392.48764	0.07731
1391.20187	0.07602
1389.91610	0.07477
1388.63033	0.07359
1387.34456	0.07244
1386.05880	0.07131
1384.77303	0.07016
1383.48726	0.06900
1382.20149	0.06781
1380.91572	0.06660
1379.62995	0.06539
1378.34418	0.06418
1377.05841	0.06296
1375.77264	0.06169
1374.48688	0.06037
1373.20111	0.05899
1371.91534	0.05758
1370.62957	0.05619
1369.34380	0.05483
1368.05803	0.05352
1366.77226	0.05225
1365.48649	0.05105
1364.20073	0.04990
1362.91496	0.04881
1361.62919	0.04776
1360.34342	0.04675
1359.05765	0.04580
1357.77188	0.04495
1356.48611	0.04420
1355.20034	0.04353
1353.91457	0.04290
1352.62881	0.04230
1351.34304	0.04172
1350.05727	0.04119
1348.77150	0.04071
1347.48573	0.04026
1346.19996	0.03985
1344.91419	0.03950
1343.62842	0.03920
1342.34266	0.03894
1341.05689	0.03868
1339.77112	0.03839
1338.48535	0.03808
1337.19958	0.03776
1335.91381	0.03746
1334.62804	0.03716
1333.34227	0.03687
1332.05650	0.03659
1330.77074	0.03630
1329.48497	0.03600
1328.19920	0.03567
1326.91343	0.03535
1325.62766	0.03503
1324.34189	0.03474
1323.05612	0.03447
1321.77035	0.03422
1320.48459	0.03399
1319.19882	0.03377
1317.91305	0.03354
1316.62728	0.03332
1315.34151	0.03310
1314.05574	0.03289
1312.76997	0.03265
1311.48420	0.03238
1310.19843	0.03210
1308.91267	0.03185
1307.62690	0.03165
1306.34113	0.03150
1305.05536	0.03132
1303.76959	0.03106
1302.48382	0.03074
1301.19805	0.03044
1299.91228	0.03019
1298.62652	0.03001
1297.34075	0.02984
1296.05498	0.02965
1294.76921	0.02945
1293.48344	0.02926
1292.19767	0.02908
1290.91190	0.02894
1289.62613	0.02882
1288.34036	0.02872
1287.05460	0.02864
1285.76883	0.02859
1284.48306	0.02855
1283.19729	0.02852
1281.91152	0.02845
1280.62575	0.02829
1279.33998	0.02807
1278.05421	0.02785
1276.76845	0.02769
1275.48268	0.02759
1274.19691	0.02753
1272.91114	0.02746
1271.62537	0.02736
1270.33960	0.02722
1269.05383	0.02705
1267.76806	0.02687
1266.48229	0.02671
1265.19653	0.02661
1263.91076	0.02656
1262.62499	0.02652
1261.33922	0.02650
1260.05345	0.02649
1258.76768	0.02651
1257.48191	0.02655
1256.19614	0.02659
1254.91037	0.02658
1253.62461	0.02652
1252.33884	0.02644
1251.05307	0.02638
1249.76730	0.02636
1248.48153	0.02637
1247.19576	0.02640
1245.90999	0.02642
1244.62422	0.02643
1243.33846	0.02641
1242.05269	0.02635
1240.76692	0.02624
1239.48115	0.02609
1238.19538	0.02594
1236.90961	0.02579
1235.62384	0.02564
1234.33807	0.02547
1233.05230	0.02529
1231.76654	0.02512
1230.48077	0.02491
1229.19500	0.02466
1227.90923	0.02437
1226.62346	0.02408
1225.33769	0.02381
1224.05192	0.02358
1222.76615	0.02337
1221.48039	0.02318
1220.19462	0.02299
1218.90885	0.02279
1217.62308	0.02258
1216.33731	0.02231
1215.05154	0.02202
1213.76577	0.02175
1212.48000	0.02156
1211.19423	0.02146
1209.90847	0.02140
1208.62270	0.02135
1207.33693	0.02128
1206.05116	0.02120
1204.76539	0.02112
1203.47962	0.02106
1202.19385	0.02098
1200.90808	0.02082
1199.62232	0.02057
1198.33655	0.02040
1197.05078	0.02026
1195.76501	0.02013
1194.47924	0.02000
1193.19347	0.01987
1191.90770	0.01972
1190.62193	0.01952
1189.33616	0.01927
1188.05040	0.01899
1186.76463	0.01874
1185.47886	0.01853
1184.19309	0.01837
1182.90732	0.01822
1181.62155	0.01804
1180.33578	0.01782
1179.05001	0.01762
1177.76425	0.01748
1176.47848	0.01743
1175.19271	0.01743
1173.90694	0.01740
1172.62117	0.01735
1171.33540	0.01730
1170.04963	0.01727
1168.76386	0.01727
1167.47809	0.01732
1166.19233	0.01740
1164.90656	0.01746
1163.62079	0.01747
1162.33502	0.01741
1161.04925	0.01731
1159.76348	0.01722
1158.47771	0.01715
1157.19194	0.01711
1155.90618	0.01709
1154.62041	0.01713
1153.33464	0.01720
1152.04887	0.01723
1150.76310	0.01720
1149.47733	0.01713
1148.19156	0.01713
1146.90579	0.01723
1145.62002	0.01745
1144.33426	0.01776
1143.04849	0.01815
1141.76272	0.01856
1140.47695	0.01897
1139.19118	0.01938
1137.90541	0.01986
1136.61964	0.02046
1135.33387	0.02118
1134.04811	0.02203
1132.76234	0.02303
1131.47657	0.02416
1130.19080	0.02540
1128.90503	0.02673
1127.61926	0.02818
1126.33349	0.02980
1125.04772	0.03163
1123.76195	0.03365
1122.47619	0.03577
1121.19042	0.03794
1119.90465	0.04016
1118.61888	0.04249
1117.33311	0.04492
1116.04734	0.04740
1114.76157	0.04980
1113.47580	0.05213
1112.19004	0.05444
1110.90427	0.05674
1109.61850	0.05901
1108.33273	0.06116
1107.04696	0.06316
1105.76119	0.06505
1104.47542	0.06687
1103.18965	0.06865
1101.90388	0.07040
1100.61812	0.07213
1099.33235	0.07384
1098.04658	0.07549
1096.76081	0.07701
1095.47504	0.07841
1094.18927	0.07971
1092.90350	0.08098
1091.61773	0.08219
1090.33197	0.08327
1089.04620	0.08421
1087.76043	0.08508
1086.47466	0.08600
1085.18889	0.08701
1083.90312	0.08809
1082.61735	0.08921
1081.33158	0.09039
1080.04581	0.09164
1078.76005	0.09298
1077.47428	0.09439
1076.18851	0.09592
1074.90274	0.09757
1073.61697	0.09934
1072.33120	0.10118
1071.04543	0.10308
1069.75966	0.10506
1068.47390	0.10713
1067.18813	0.10925
1065.90236	0.11140
1064.61659	0.11357
1063.33082	0.11573
1062.04505	0.11783
1060.75928	0.11987
1059.47351	0.12187
1058.18774	0.12385
1056.90198	0.12581
1055.61621	0.12772
1054.33044	0.12962
1053.04467	0.13156
1051.75890	0.13355
1050.47313	0.13561
1049.18736	0.13772
1047.90159	0.13987
1046.61583	0.14206
1045.33006	0.14425
1044.04429	0.14643
1042.75852	0.14860
1041.47275	0.15078
1040.18698	0.15295
1038.90121	0.15507
1037.61544	0.15716
1036.32967	0.15925
1035.04391	0.16135
1033.75814	0.16340
1032.47237	0.16532
1031.18660	0.16711
1029.90083	0.16877
1028.61506	0.17031
1027.32929	0.17175
1026.04352	0.17308
1024.75775	0.17422
1023.47199	0.17511
1022.18622	0.17569
1020.90045	0.17598
1019.61468	0.17597
1018.32891	0.17570
1017.04314	0.17523
1015.75737	0.17462
1014.47160	0.17385
1013.18584	0.17284
1011.90007	0.17158
1010.61430	0.17007
1009.32853	0.16829
1008.04276	0.16620
1006.75699	0.16377
1005.47122	0.16104
1004.18545	0.15809
1002.89968	0.15496
1001.61392	0.15170
1000.32815	0.14832
999.04238	0.14484
997.75661	0.14123
996.47084	0.13749
995.18507	0.13370
993.89930	0.12994
992.61353	0.12621
991.32777	0.12251
990.04200	0.11888
988.75623	0.11542
987.47046	0.11216
986.18469	0.10903
984.89892	0.10592
983.61315	0.10281
982.32738	0.09977
981.04161	0.09691
979.75585	0.09432
978.47008	0.09200
977.18431	0.08984
975.89854	0.08774
974.61277	0.08571
973.32700	0.08387
972.04123	0.08238
970.75546	0.08130
969.46970	0.08060
968.18393	0.08026
966.89816	0.08024
965.61239	0.08052
964.32662	0.08104
963.04085	0.08167
961.75508	0.08221
960.46931	0.08247
959.18354	0.08233
957.89778	0.08177
956.61201	0.08086
955.32624	0.07967
954.04047	0.07830
952.75470	0.07680
951.46893	0.07523
950.18316	0.07365
948.89739	0.07214
947.61163	0.07070
946.32586	0.06931
945.04009	0.06794
943.75432	0.06661
942.46855	0.06533
941.18278	0.06412
939.89701	0.06295
938.61124	0.06182
937.32547	0.06073
936.03971	0.05966
934.75394	0.05860
933.46817	0.05756
932.18240	0.05659
930.89663	0.05570
929.61086	0.05485
928.32509	0.05401
927.03932	0.05319
925.75356	0.05247
924.46779	0.05184
923.18202	0.05126
921.89625	0.05066
920.61048	0.05005
919.32471	0.04949
918.03894	0.04904
916.75317	0.04869
915.46740	0.04834
914.18164	0.04790
912.89587	0.04735
911.61010	0.04678
910.32433	0.04629
909.03856	0.04585
907.75279	0.04538
906.46702	0.04482
905.18125	0.04426
903.89549	0.04374
902.60972	0.04329
901.32395	0.04293
900.03818	0.04263
898.75241	0.04235
897.46664	0.04202
896.18087	0.04164
894.89510	0.04123
893.60933	0.04088
892.32357	0.04062
891.03780	0.04045
889.75203	0.04031
888.46626	0.04020
887.18049	0.04024
885.89472	0.04063
884.60895	0.04156
883.32318	0.04304
882.03742	0.04489
880.75165	0.04677
879.46588	0.04835
878.18011	0.04954
876.89434	0.05055
875.60857	0.05171
874.32280	0.05314
873.03703	0.05462
871.75126	0.05577
870.46550	0.05630
869.17973	0.05606
867.89396	0.05508
866.60819	0.05356
865.32242	0.05178
864.03665	0.04999
862.75088	0.04833
861.46511	0.04683
860.17935	0.04550
858.89358	0.04433
857.60781	0.04334
856.32204	0.04251
855.03627	0.04184
853.75050	0.04127
852.46473	0.04078
851.17896	0.04035
849.89319	0.03999
848.60743	0.03965
847.32166	0.03930
846.03589	0.03896
844.75012	0.03863
843.46435	0.03832
842.17858	0.03799
840.89281	0.03763
839.60704	0.03727
838.32128	0.03696
837.03551	0.03672
835.74974	0.03652
834.46397	0.03634
833.17820	0.03616
831.89243	0.03599
830.60666	0.03583
829.32089	0.03568
828.03512	0.03553
826.74936	0.03533
825.46359	0.03511
824.17782	0.03493
822.89205	0.03481
821.60628	0.03471
820.32051	0.03460
819.03474	0.03450
817.74897	0.03443
816.46321	0.03443
815.17744	0.03448
813.89167	0.03454
812.60590	0.03455
811.32013	0.03446
810.03436	0.03431
808.74859	0.03415
807.46282	0.03404
806.17705	0.03394
804.89129	0.03382
803.60552	0.03368
802.31975	0.03358
801.03398	0.03354
799.74821	0.03350
798.46244	0.03338
797.17667	0.03319
795.89090	0.03302
794.60513	0.03292
793.31937	0.03286
792.03360	0.03281
790.74783	0.03276
789.46206	0.03277
788.17629	0.03279
786.89052	0.03279
785.60475	0.03274
784.31898	0.03264
783.03322	0.03255
781.74745	0.03253
780.46168	0.03257
779.17591	0.03262
777.89014	0.03263
776.60437	0.03258
775.31860	0.03245
774.03283	0.03229
772.74706	0.03218
771.46130	0.03217
770.17553	0.03226
768.88976	0.03239
767.60399	0.03247
766.31822	0.03246
765.03245	0.03237
763.74668	0.03227
762.46091	0.03224
761.17515	0.03235
759.88938	0.03255
758.60361	0.03273
757.31784	0.03276
756.03207	0.03268
754.74630	0.03260
753.46053	0.03261
752.17476	0.03269
750.88899	0.03276
749.60323	0.03276
748.31746	0.03267
747.03169	0.03250
745.74592	0.03229
744.46015	0.03210
743.17438	0.03196
741.88861	0.03189
740.60284	0.03187
739.31708	0.03184
738.03131	0.03175
736.74554	0.03164
735.45977	0.03159
734.17400	0.03165
732.88823	0.03175
731.60246	0.03179
730.31669	0.03172
729.03092	0.03160
727.74516	0.03152
726.45939	0.03152
725.17362	0.03159
723.88785	0.03171
722.60208	0.03169
721.31631	0.03152
720.03054	0.03133
718.74477	0.03119
717.45901	0.03107
716.17324	0.03101
714.88747	0.03102
713.60170	0.03110
712.31593	0.03119
711.03016	0.03123
709.74439	0.03122
708.45862	0.03116
707.17285	0.03109
705.88709	0.03105
704.60132	0.03104
703.31555	0.03106
702.02978	0.03111
700.74401	0.03115
699.45824	0.03116
698.17247	0.03113
696.88670	0.03110
695.60094	0.03109
694.31517	0.03108
693.02940	0.03108
691.74363	0.03107
690.45786	0.03109
689.17209	0.03114
687.88632	0.03120
686.60055	0.03120
685.31478	0.03114
684.02902	0.03101
682.74325	0.03087
681.45748	0.03078
680.17171	0.03074
678.88594	0.03070
677.60017	0.03061
676.31440	0.03048
675.02863	0.03036
673.74287	0.03030
672.45710	0.03049
671.17133	0.03114
669.88556	0.03174
668.59979	0.03097
667.31402	0.03089
666.02825	0.03190
664.74248	0.03121
663.45671	0.03040
662.17095	0.03007
660.88518	0.02991
659.59941	0.02977
658.31364	0.02962
657.02787	0.02950
655.74210	0.02942
654.45633	0.02939
653.17056	0.02938
651.88480	0.02937
650.59903	0.02936
649.31326	0.02929
648.02749	0.02918
646.74172	0.02899
645.45595	0.02879
644.17018	0.02867
642.88441	0.02864
641.59864	0.02867
640.31288	0.02870
639.02711	0.02869
637.74134	0.02865
636.45557	0.02861
635.16980	0.02856
633.88403	0.02851
632.59826	0.02844
631.31249	0.02845
630.02673	0.02894
628.74096	0.02967
627.45519	0.02911
626.16942	0.03003
624.88365	0.03209
623.59788	0.03444
622.31211	0.03687
621.02634	0.03917
619.74057	0.04106
618.45481	0.04258
617.16904	0.04409
615.88327	0.04590
614.59750	0.04793
613.31173	0.04992
612.02596	0.05196
610.74019	0.05476
609.45442	0.05892
608.16866	0.06410
606.88289	0.06926
605.59712	0.07359
604.31135	0.07677
603.02558	0.07862
601.73981	0.07898
600.45404	0.07795
599.16827	0.07594
597.88250	0.07342
596.59674	0.07080
595.31097	0.06833
594.02520	0.06619
592.73943	0.06447
591.45366	0.06318
590.16789	0.06231
588.88212	0.06188
587.59635	0.06189
586.31059	0.06233
585.02482	0.06313
583.73905	0.06424
582.45328	0.06559
581.16751	0.06711
579.88174	0.06872
578.59597	0.07037
577.31020	0.07204
576.02443	0.07369
574.73867	0.07530
573.45290	0.07685
572.16713	0.07845
570.88136	0.08025
569.59559	0.08233
568.30982	0.08474
567.02405	0.08741
565.73828	0.09024
564.45251	0.09295
563.16675	0.09516
561.88098	0.09647
560.59521	0.09665
559.30944	0.09573
558.02367	0.09383
556.73790	0.09109
555.45213	0.08765
554.16636	0.08374
552.88060	0.07971
551.59483	0.07589
550.30906	0.07244
549.02329	0.06931
547.73752	0.06641
546.45175	0.06378
545.16598	0.06153
543.88021	0.05963
542.59444	0.05796
541.30868	0.05639
540.02291	0.05494
538.73714	0.05363
537.45137	0.05244
536.16560	0.05129
534.87983	0.05017
533.59406	0.04914
532.30829	0.04821
531.02253	0.04738
529.73676	0.04660
528.45099	0.04584
527.16522	0.04506
525.87945	0.04426
524.59368	0.04348
523.30791	0.04277
522.02214	0.04208
520.73637	0.04136
519.45061	0.04057
518.16484	0.03978
516.87907	0.03905
515.59330	0.03842
514.30753	0.03786
513.02176	0.03737
511.73599	0.03695
510.45022	0.03653
509.16446	0.03607
507.87869	0.03559
506.59292	0.03514
505.30715	0.03473
504.02138	0.03437
502.73561	0.03403
501.44984	0.03372
500.16407	0.03345
498.87830	0.03318
497.59254	0.03287
496.30677	0.03253
495.02100	0.03217
493.73523	0.03181
492.44946	0.03144
491.16369	0.03111
489.87792	0.03084
488.59215	0.03065
487.30639	0.03049
486.02062	0.03030
484.73485	0.03009
483.44908	0.02991
482.16331	0.02982
480.87754	0.02985
479.59177	0.02993
478.30600	0.03002
477.02023	0.03009
475.73447	0.03017
474.44870	0.03027
473.16293	0.03041
471.87716	0.03052
470.59139	0.03050
469.30562	0.03029
468.01985	0.02995
466.73408	0.02958
465.44832	0.02927
464.16255	0.02903
462.87678	0.02880
461.59101	0.02853
460.30524	0.02821
459.01947	0.02786
457.73370	0.02753
456.44793	0.02726
455.16216	0.02702
453.87640	0.02674
452.59063	0.02640
451.30486	0.02599
450.01909	0.02559
448.73332	0.02525
447.44755	0.02498
446.16178	0.02478
444.87601	0.02465
443.59025	0.02455
442.30448	0.02445
441.01871	0.02429
439.73294	0.02407
438.44717	0.02378
437.16140	0.02346
435.87563	0.02318
434.58986	0.02300
433.30409	0.02290
432.01833	0.02284
430.73256	0.02271
429.44679	0.02250
428.16102	0.02222
426.87525	0.02193
425.58948	0.02165
424.30371	0.02140
423.01794	0.02121
421.73218	0.02106
420.44641	0.02091
419.16064	0.02074
417.87487	0.02053
416.58910	0.02030
415.30333	0.02010
414.01756	0.01993
412.73179	0.01980
411.44602	0.01963
410.16026	0.01941
408.87449	0.01919
407.58872	0.01905
406.30295	0.01901
405.01718	0.01904
403.73141	0.01905
402.44564	0.01903
401.15987	0.01899
399.87411	0.01898
