3997.45528 0.03537
3996.16951 0.03608
3994.88374 0.03685
3993.59798 0.03681
3992.31221 0.03565
3991.02644 0.03406
3989.74067 0.03322
3988.45490 0.03385
3987.16913 0.03551
3985.88336 0.03698
3984.59759 0.03733
3983.31183 0.03670
3982.02606 0.03590
3980.74029 0.03548
3979.45452 0.03534
3978.16875 0.03513
3976.88298 0.03479
3975.59721 0.03449
3974.31144 0.03432
3973.02567 0.03432
3971.73991 0.03458
3970.45414 0.03501
3969.16837 0.03523
3967.88260 0.03482
3966.59683 0.03390
3965.31106 0.03309
3964.02529 0.03288
3962.73952 0.03321
3961.45376 0.03369
3960.16799 0.03412
3958.88222 0.03459
3957.59645 0.03504
3956.31068 0.03506
3955.02491 0.03429
3953.73914 0.03293
3952.45337 0.03174
3951.16760 0.03137
3949.88184 0.03193
3948.59607 0.03311
3947.31030 0.03455
3946.02453 0.03593
3944.73876 0.03698
3943.45299 0.03743
3942.16722 0.03715
3940.88145 0.03626
3939.59569 0.03514
3938.30992 0.03427
3937.02415 0.03393
3935.73838 0.03404
3934.45261 0.03428
3933.16684 0.03448
3931.88107 0.03464
3930.59530 0.03478
3929.30953 0.03485
3928.02377 0.03475
3926.73800 0.03442
3925.45223 0.03402
3924.16646 0.03380
3922.88069 0.03388
3921.59492 0.03430
3920.30915 0.03507
3919.02338 0.03611
3917.73762 0.03699
3916.45185 0.03725
3915.16608 0.03684
3913.88031 0.03631
3912.59454 0.03627
3911.30877 0.03691
3910.02300 0.03801
3908.73723 0.03915
3907.45146 0.03993
3906.16570 0.04009
3904.87993 0.03965
3903.59416 0.03880
3902.30839 0.03769
3901.02262 0.03643
3899.73685 0.03524
3898.45108 0.03434
3897.16531 0.03379
3895.87955 0.03353
3894.59378 0.03366
3893.30801 0.03427
3892.02224 0.03514
3890.73647 0.03566
3889.45070 0.03528
3888.16493 0.03404
3886.87916 0.03258
3885.59339 0.03161
3884.30763 0.03136
3883.02186 0.03158
3881.73609 0.03201
3880.45032 0.03260
3879.16455 0.03333
3877.87878 0.03397
3876.59301 0.03427
3875.30724 0.03430
3874.02148 0.03440
3872.73571 0.03464
3871.44994 0.03480
3870.16417 0.03480
3868.87840 0.03481
3867.59263 0.03488
3866.30686 0.03476
3865.02109 0.03432
3863.73532 0.03382
3862.44956 0.03357
3861.16379 0.03353
3859.87802 0.03340
3858.59225 0.03312
3857.30648 0.03290
3856.02071 0.03283
3854.73494 0.03280
3853.44917 0.03287
3852.16341 0.03326
3850.87764 0.03391
3849.59187 0.03448
3848.30610 0.03464
3847.02033 0.03441
3845.73456 0.03400
3844.44879 0.03364
3843.16302 0.03350
3841.87725 0.03360
3840.59149 0.03382
3839.30572 0.03389
3838.01995 0.03364
3836.73418 0.03304
3835.44841 0.03228
3834.16264 0.03166
3832.87687 0.03149
3831.59110 0.03177
3830.30534 0.03216
3829.01957 0.03226
3827.73380 0.03210
3826.44803 0.03207
3825.16226 0.03250
3823.87649 0.03320
3822.59072 0.03378
3821.30495 0.03409
3820.01918 0.03430
3818.73342 0.03449
3817.44765 0.03455
3816.16188 0.03446
3814.87611 0.03431
3813.59034 0.03412
3812.30457 0.03385
3811.01880 0.03359
3809.73303 0.03341
3808.44726 0.03323
3807.16150 0.03284
3805.87573 0.03215
3804.58996 0.03139
3803.30419 0.03097
3802.01842 0.03116
3800.73265 0.03182
3799.44688 0.03245
3798.16111 0.03263
3796.87535 0.03233
3795.58958 0.03186
3794.30381 0.03148
3793.01804 0.03126
3791.73227 0.03111
3790.44650 0.03099
3789.16073 0.03112
3787.87496 0.03180
3786.58919 0.03290
3785.30343 0.03379
3784.01766 0.03385
3782.73189 0.03308
3781.44612 0.03221
3780.16035 0.03200
3778.87458 0.03251
3777.58881 0.03324
3776.30304 0.03374
3775.01728 0.03399
3773.73151 0.03425
3772.44574 0.03457
3771.15997 0.03478
3769.87420 0.03463
3768.58843 0.03404
3767.30266 0.03326
3766.01689 0.03271
3764.73112 0.03262
3763.44536 0.03276
3762.15959 0.03266
3760.87382 0.03209
3759.58805 0.03126
3758.30228 0.03056
3757.01651 0.03028
3755.73074 0.03054
3754.44497 0.03134
3753.15921 0.03254
3751.87344 0.03368
3750.58767 0.03420
3749.30190 0.03400
3748.01613 0.03351
3746.73036 0.03304
3745.44459 0.03258
3744.15882 0.03220
3742.87305 0.03216
3741.58729 0.03257
3740.30152 0.03320
3739.01575 0.03359
3737.72998 0.03339
3736.44421 0.03263
3735.15844 0.03158
3733.87267 0.03055
3732.58690 0.02987
3731.30114 0.02978
3730.01537 0.03008
3728.72960 0.03033
3727.44383 0.03042
3726.15806 0.03068
3724.87229 0.03115
3723.58652 0.03133
3722.30075 0.03076
3721.01498 0.02962
3719.72922 0.02865
3718.44345 0.02842
3717.15768 0.02886
3715.87191 0.02936
3714.58614 0.02937
3713.30037 0.02898
3712.01460 0.02868
3710.72883 0.02878
3709.44307 0.02914
3708.15730 0.02952
3706.87153 0.02997
3705.58576 0.03068
3704.29999 0.03154
3703.01422 0.03233
3701.72845 0.03282
3700.44268 0.03285
3699.15691 0.03218
3697.87115 0.03100
3696.58538 0.02992
3695.29961 0.02934
3694.01384 0.02910
3692.72807 0.02881
3691.44230 0.02835
3690.15653 0.02785
3688.87076 0.02753
3687.58500 0.02746
3686.29923 0.02755
3685.01346 0.02775
3683.72769 0.02797
3682.44192 0.02796
3681.15615 0.02772
3679.87038 0.02774
3678.58461 0.02848
3677.29884 0.02972
3676.01308 0.03081
3674.72731 0.03137
3673.44154 0.03157
3672.15577 0.03167
3670.87000 0.03171
3669.58423 0.03153
3668.29846 0.03102
3667.01269 0.03040
3665.72693 0.03011
3664.44116 0.03043
3663.15539 0.03120
3661.86962 0.03199
3660.58385 0.03244
3659.29808 0.03255
3658.01231 0.03257
3656.72654 0.03273
3655.44077 0.03301
3654.15501 0.03327
3652.86924 0.03339
3651.58347 0.03338
3650.29770 0.03325
3649.01193 0.03301
3647.72616 0.03270
3646.44039 0.03237
3645.15462 0.03201
3643.86886 0.03156
3642.58309 0.03107
3641.29732 0.03067
3640.01155 0.03063
3638.72578 0.03110
3637.44001 0.03192
3636.15424 0.03255
3634.86847 0.03256
3633.58270 0.03224
3632.29694 0.03224
3631.01117 0.03278
3629.72540 0.03338
3628.43963 0.03351
3627.15386 0.03318
3625.86809 0.03286
3624.58232 0.03288
3623.29655 0.03307
3622.01079 0.03306
3620.72502 0.03285
3619.43925 0.03283
3618.15348 0.03327
3616.86771 0.03393
3615.58194 0.03423
3614.29617 0.03386
3613.01040 0.03316
3611.72463 0.03266
3610.43887 0.03262
3609.15310 0.03287
3607.86733 0.03313
3606.58156 0.03340
3605.29579 0.03387
3604.01002 0.03460
3602.72425 0.03556
3601.43848 0.03665
3600.15272 0.03774
3598.86695 0.03846
3597.58118 0.03853
3596.29541 0.03797
3595.00964 0.03709
3593.72387 0.03616
3592.43810 0.03548
3591.15233 0.03541
3589.86656 0.03601
3588.58080 0.03693
3587.29503 0.03746
3586.00926 0.03719
3584.72349 0.03631
3583.43772 0.03546
3582.15195 0.03517
3580.86618 0.03549
3579.58041 0.03604
3578.29464 0.03650
3577.00888 0.03691
3575.72311 0.03749
3574.43734 0.03827
3573.15157 0.03896
3571.86580 0.03924
3570.58003 0.03905
3569.29426 0.03865
3568.00849 0.03838
3566.72273 0.03850
3565.43696 0.03891
3564.15119 0.03918
3562.86542 0.03886
3561.57965 0.03799
3560.29388 0.03706
3559.00811 0.03663
3557.72234 0.03690
3556.43657 0.03766
3555.15081 0.03847
3553.86504 0.03899
3552.57927 0.03913
3551.29350 0.03911
3550.00773 0.03926
3548.72196 0.03976
3547.43619 0.04044
3546.15042 0.04098
3544.86466 0.04131
3543.57889 0.04163
3542.29312 0.04213
3541.00735 0.04265
3539.72158 0.04285
3538.43581 0.04253
3537.15004 0.04182
3535.86427 0.04091
3534.57850 0.04003
3533.29274 0.03946
3532.00697 0.03953
3530.72120 0.04032
3529.43543 0.04154
3528.14966 0.04269
3526.86389 0.04342
3525.57812 0.04374
3524.29235 0.04390
3523.00659 0.04412
3521.72082 0.04430
3520.43505 0.04420
3519.14928 0.04375
3517.86351 0.04322
3516.57774 0.04296
3515.29197 0.04318
3514.00620 0.04385
3512.72043 0.04477
3511.43467 0.04564
3510.14890 0.04622
3508.86313 0.04646
3507.57736 0.04648
3506.29159 0.04641
3505.00582 0.04631
3503.72005 0.04615
3502.43428 0.04593
3501.14852 0.04566
3499.86275 0.04535
3498.57698 0.04507
3497.29121 0.04494
3496.00544 0.04501
3494.71967 0.04525
3493.43390 0.04557
3492.14813 0.04593
3490.86236 0.04623
3489.57660 0.04631
3488.29083 0.04613
3487.00506 0.04595
3485.71929 0.04614
3484.43352 0.04678
3483.14775 0.04761
3481.86198 0.04827
3480.57621 0.04864
3479.29045 0.04883
3478.00468 0.04900
3476.71891 0.04918
3475.43314 0.04934
3474.14737 0.04944
3472.86160 0.04954
3471.57583 0.04964
3470.29006 0.04960
3469.00429 0.04926
3467.71853 0.04858
3466.43276 0.04781
3465.14699 0.04733
3463.86122 0.04741
3462.57545 0.04805
3461.28968 0.04892
3460.00391 0.04960
3458.71814 0.04990
3457.43238 0.04992
3456.14661 0.04978
3454.86084 0.04940
3453.57507 0.04872
3452.28930 0.04791
3451.00353 0.04738
3449.71776 0.04745
3448.43199 0.04807
3447.14622 0.04886
3445.86046 0.04943
3444.57469 0.04966
3443.28892 0.04981
3442.00315 0.05020
3440.71738 0.05077
3439.43161 0.05113
3438.14584 0.05102
3436.86007 0.05059
3435.57431 0.05013
3434.28854 0.04974
3433.00277 0.04947
3431.71700 0.04963
3430.43123 0.05052
3429.14546 0.05201
3427.85969 0.05348
3426.57392 0.05433
3425.28815 0.05432
3424.00239 0.05366
3422.71662 0.05279
3421.43085 0.05214
3420.14508 0.05194
3418.85931 0.05207
3417.57354 0.05235
3416.28777 0.05274
3415.00200 0.05331
3413.71624 0.05401
3412.43047 0.05456
3411.14470 0.05468
3409.85893 0.05437
3408.57316 0.05393
3407.28739 0.05368
3406.00162 0.05373
3404.71585 0.05398
3403.43008 0.05435
3402.14432 0.05491
3400.85855 0.05565
3399.57278 0.05591
3398.28701 0.05558
3397.00124 0.05533
3395.71547 0.05519
3394.42970 0.05505
3393.14393 0.05495
3391.85817 0.05504
3390.57240 0.05541
3389.28663 0.05584
3388.00086 0.05599
3386.71509 0.05587
3385.42932 0.05587
3384.14355 0.05628
3382.85778 0.05693
3381.57201 0.05738
3380.28625 0.05739
3379.00048 0.05710
3377.71471 0.05681
3376.42894 0.05680
3375.14317 0.05706
3373.85740 0.05732
3372.57163 0.05732
3371.28586 0.05704
3370.00010 0.05668
3368.71433 0.05638
3367.42856 0.05620
3366.14279 0.05609
3364.85702 0.05598
3363.57125 0.05584
3362.28548 0.05585
3360.99971 0.05619
3359.71394 0.05683
3358.42818 0.05755
3357.14241 0.05815
3355.85664 0.05852
3354.57087 0.05871
3353.28510 0.05876
3351.99933 0.05873
3350.71356 0.05867
3349.42779 0.05859
3348.14202 0.05847
3346.85626 0.05831
3345.57049 0.05819
3344.28472 0.05825
3342.99895 0.05851
3341.71318 0.05875
3340.42741 0.05875
3339.14164 0.05850
3337.85587 0.05824
3336.57011 0.05817
3335.28434 0.05838
3333.99857 0.05883
3332.71280 0.05943
3331.42703 0.05999
3330.14126 0.06026
3328.85549 0.06007
3327.56972 0.05960
3326.28395 0.05924
3324.99819 0.05926
3323.71242 0.05956
3322.42665 0.05981
3321.14088 0.05982
3319.85511 0.05972
3318.56934 0.05972
3317.28357 0.05992
3315.99780 0.06026
3314.71204 0.06071
3313.42627 0.06125
3312.14050 0.06177
3310.85473 0.06210
3309.56896 0.06221
3308.28319 0.06229
3306.99742 0.06232
3305.71165 0.06210
3304.42588 0.06151
3303.14012 0.06091
3301.85435 0.06082
3300.56858 0.06131
3299.28281 0.06199
3297.99704 0.06232
3296.71127 0.06214
3295.42550 0.06169
3294.13973 0.06138
3292.85397 0.06145
3291.56820 0.06179
3290.28243 0.06217
3288.99666 0.06247
3287.71089 0.06268
3286.42512 0.06272
3285.13935 0.06247
3283.85358 0.06203
3282.56781 0.06171
3281.28205 0.06172
3279.99628 0.06184
3278.71051 0.06174
3277.42474 0.06134
3276.13897 0.06083
3274.85320 0.06045
3273.56743 0.06029
3272.28166 0.06031
3270.99590 0.06045
3269.71013 0.06069
3268.42436 0.06110
3267.13859 0.06170
3265.85282 0.06234
3264.56705 0.06276
3263.28128 0.06282
3261.99551 0.06267
3260.70974 0.06256
3259.42398 0.06254
3258.13821 0.06247
3256.85244 0.06224
3255.56667 0.06195
3254.28090 0.06179
3252.99513 0.06178
3251.70936 0.06178
3250.42359 0.06169
3249.13783 0.06160
3247.85206 0.06162
3246.56629 0.06170
3245.28052 0.06160
3243.99475 0.06113
3242.70898 0.06038
3241.42321 0.05975
3240.13744 0.05957
3238.85167 0.05981
3237.56591 0.06014
3236.28014 0.06029
3234.99437 0.06024
3233.70860 0.06002
3232.42283 0.05966
3231.13706 0.05922
3229.85129 0.05892
3228.56552 0.05888
3227.27976 0.05895
3225.99399 0.05887
3224.70822 0.05858
3223.42245 0.05825
3222.13668 0.05813
3220.85091 0.05826
3219.56514 0.05851
3218.27937 0.05872
3216.99360 0.05885
3215.70784 0.05896
3214.42207 0.05908
3213.13630 0.05918
3211.85053 0.05921
3210.56476 0.05916
3209.27899 0.05904
3207.99322 0.05886
3206.70745 0.05861
3205.42169 0.05828
3204.13592 0.05807
3202.85015 0.05822
3201.56438 0.05875
3200.27861 0.05929
3198.99284 0.05944
3197.70707 0.05915
3196.42130 0.05868
3195.13553 0.05825
3193.84977 0.05791
3192.56400 0.05768
3191.27823 0.05763
3189.99246 0.05772
3188.70669 0.05768
3187.42092 0.05730
3186.13515 0.05668
3184.84938 0.05619
3183.56362 0.05609
3182.27785 0.05642
3180.99208 0.05694
3179.70631 0.05730
3178.42054 0.05723
3177.13477 0.05671
3175.84900 0.05599
3174.56323 0.05533
3173.27746 0.05481
3171.99170 0.05429
3170.70593 0.05371
3169.42016 0.05320
3168.13439 0.05303
3166.84862 0.05326
3165.56285 0.05373
3164.27708 0.05426
3162.99131 0.05476
3161.70555 0.05512
3160.41978 0.05516
3159.13401 0.05475
3157.84824 0.05400
3156.56247 0.05319
3155.27670 0.05255
3153.99093 0.05220
3152.70516 0.05208
3151.41939 0.05211
3150.13363 0.05217
3148.84786 0.05221
3147.56209 0.05227
3146.27632 0.05244
3144.99055 0.05273
3143.70478 0.05309
3142.41901 0.05342
3141.13324 0.05362
3139.84748 0.05365
3138.56171 0.05359
3137.27594 0.05355
3135.99017 0.05354
3134.70440 0.05345
3133.41863 0.05317
3132.13286 0.05279
3130.84709 0.05248
3129.56132 0.05232
3128.27556 0.05224
3126.98979 0.05216
3125.70402 0.05199
3124.41825 0.05173
3123.13248 0.05144
3121.84671 0.05126
3120.56094 0.05130
3119.27517 0.05157
3117.98940 0.05194
3116.70364 0.05222
3115.41787 0.05225
3114.13210 0.05201
3112.84633 0.05169
3111.56056 0.05150
3110.27479 0.05141
3108.98902 0.05121
3107.70325 0.05076
3106.41749 0.05021
3105.13172 0.04985
3103.84595 0.04984
3102.56018 0.05011
3101.27441 0.05053
3099.98864 0.05095
3098.70287 0.05122
3097.41710 0.05128
3096.13133 0.05122
3094.84557 0.05130
3093.55980 0.05158
3092.27403 0.05188
3090.98826 0.05199
3089.70249 0.05187
3088.41672 0.05168
3087.13095 0.05152
3085.84518 0.05135
3084.55942 0.05120
3083.27365 0.05122
3081.98788 0.05151
3080.70211 0.05195
3079.41634 0.05232
3078.13057 0.05255
3076.84480 0.05267
3075.55903 0.05271
3074.27326 0.05260
3072.98750 0.05230
3071.70173 0.05194
3070.41596 0.05172
3069.13019 0.05170
3067.84442 0.05173
3066.55865 0.05168
3065.27288 0.05161
3063.98711 0.05163
3062.70135 0.05169
3061.41558 0.05156
3060.12981 0.05110
3058.84404 0.05044
3057.55827 0.04986
3056.27250 0.04953
3054.98673 0.04948
3053.70096 0.04961
3052.41519 0.04983
3051.12943 0.05003
3049.84366 0.05012
3048.55789 0.05001
3047.27212 0.04972
3045.98635 0.04934
3044.70058 0.04897
3043.41481 0.04874
3042.12904 0.04873
3040.84328 0.04891
3039.55751 0.04907
3038.27174 0.04903
3036.98597 0.04882
3035.70020 0.04862
3034.41443 0.04855
3033.12866 0.04858
3031.84289 0.04862
3030.55712 0.04865
3029.27136 0.04871
3027.98559 0.04875
3026.69982 0.04865
3025.41405 0.04834
3024.12828 0.04794
3022.84251 0.04760
3021.55674 0.04743
3020.27097 0.04742
3018.98521 0.04753
3017.69944 0.04768
3016.41367 0.04776
3015.12790 0.04762
3013.84213 0.04724
3012.55636 0.04668
3011.27059 0.04610
3009.98482 0.04566
3008.69905 0.04545
3007.41329 0.04547
3006.12752 0.04566
3004.84175 0.04593
3003.55598 0.04622
3002.27021 0.04659
3000.98444 0.04691
2999.69867 0.04663
2998.41290 0.04669
2997.12714 0.04678
2995.84137 0.04681
2994.55560 0.04672
2993.26983 0.04652
2991.98406 0.04632
2990.69829 0.04630
2989.41252 0.04652
2988.12675 0.04685
2986.84098 0.04707
2985.55522 0.04708
2984.26945 0.04704
2982.98368 0.04710
2981.69791 0.04724
2980.41214 0.04734
2979.12637 0.04730
2977.84060 0.04716
2976.55483 0.04695
2975.26907 0.04673
2973.98330 0.04666
2972.69753 0.04691
2971.41176 0.04753
2970.12599 0.04832
2968.84022 0.04892
2967.55445 0.04919
2966.26868 0.04929
2964.98291 0.04949
2963.69715 0.04988
2962.41138 0.05031
2961.12561 0.05064
2959.83984 0.05087
2958.55407 0.05106
2957.26830 0.05126
2955.98253 0.05151
2954.69676 0.05181
2953.41100 0.05211
2952.12523 0.05232
2950.83946 0.05243
2949.55369 0.05242
2948.26792 0.05228
2946.98215 0.05199
2945.69638 0.05163
2944.41061 0.05135
2943.12484 0.05131
2941.83908 0.05157
2940.55331 0.05201
2939.26754 0.05244
2937.98177 0.05263
2936.69600 0.05256
2935.41023 0.05238
2934.12446 0.05232
2932.83869 0.05250
2931.55293 0.05278
2930.26716 0.05299
2928.98139 0.05315
2927.69562 0.05343
2926.40985 0.05381
2925.12408 0.05400
2923.83831 0.05377
2922.55254 0.05329
2921.26677 0.05294
2919.98101 0.05289
2918.69524 0.05297
2917.40947 0.05296
2916.12370 0.05273
2914.83793 0.05227
2913.55216 0.05165
2912.26639 0.05112
2910.98062 0.05097
2909.69486 0.05124
2908.40909 0.05158
2907.12332 0.05154
2905.83755 0.05103
2904.55178 0.05034
2903.26601 0.04976
2901.98024 0.04939
2900.69447 0.04919
2899.40870 0.04910
2898.12294 0.04904
2896.83717 0.04886
2895.55140 0.04849
2894.26563 0.04801
2892.97986 0.04757
2891.69409 0.04722
2890.40832 0.04691
2889.12255 0.04662
2887.83678 0.04637
2886.55102 0.04621
2885.26525 0.04618
2883.97948 0.04629
2882.69371 0.04648
2881.40794 0.04665
2880.12217 0.04667
2878.83640 0.04653
2877.55063 0.04639
2876.26487 0.04648
2874.97910 0.04684
2873.69333 0.04724
2872.40756 0.04748
2871.12179 0.04759
2869.83602 0.04767
2868.55025 0.04774
2867.26448 0.04764
2865.97871 0.04726
2864.69295 0.04669
2863.40718 0.04617
2862.12141 0.04588
2860.83564 0.04580
2859.54987 0.04574
2858.26410 0.04557
2856.97833 0.04527
2855.69256 0.04496
2854.40680 0.04477
2853.12103 0.04473
2851.83526 0.04476
2850.54949 0.04472
2849.26372 0.04455
2847.97795 0.04434
2846.69218 0.04423
2845.40641 0.04426
2844.12064 0.04429
2842.83488 0.04411
2841.54911 0.04363
2840.26334 0.04293
2838.97757 0.04223
2837.69180 0.04170
2836.40603 0.04131
2835.12026 0.04101
2833.83449 0.04075
2832.54873 0.04056
2831.26296 0.04045
2829.97719 0.04030
2828.69142 0.04004
2827.40565 0.03972
2826.11988 0.03950
2824.83411 0.03946
2823.54834 0.03954
2822.26257 0.03961
2820.97681 0.03962
2819.69104 0.03961
2818.40527 0.03964
2817.11950 0.03972
2815.83373 0.03979
2814.54796 0.03970
2813.26219 0.03939
2811.97642 0.03897
2810.69066 0.03861
2809.40489 0.03844
2808.11912 0.03845
2806.83335 0.03847
2805.54758 0.03836
2804.26181 0.03808
2802.97604 0.03777
2801.69027 0.03761
2800.40450 0.03775
2799.11874 0.03809
2797.83297 0.03839
2796.54720 0.03848
2795.26143 0.03836
2793.97566 0.03817
2792.68989 0.03802
2791.40412 0.03793
2790.11835 0.03786
2788.83259 0.03773
2787.54682 0.03752
2786.26105 0.03723
2784.97528 0.03695
2783.68951 0.03676
2782.40374 0.03670
2781.11797 0.03674
2779.83220 0.03683
2778.54643 0.03695
2777.26067 0.03711
2775.97490 0.03733
2774.68913 0.03755
2773.40336 0.03766
2772.11759 0.03757
2770.83182 0.03733
2769.54605 0.03709
2768.26028 0.03693
2766.97452 0.03678
2765.68875 0.03657
2764.40298 0.03635
2763.11721 0.03623
2761.83144 0.03619
2760.54567 0.03612
2759.25990 0.03592
2757.97413 0.03560
2756.68836 0.03532
2755.40260 0.03520
2754.11683 0.03526
2752.83106 0.03541
2751.54529 0.03550
2750.25952 0.03552
2748.97375 0.03555
2747.68798 0.03563
2746.40221 0.03571
2745.11645 0.03567
2743.83068 0.03551
2742.54491 0.03537
2741.25914 0.03539
2739.97337 0.03557
2738.68760 0.03575
2737.40183 0.03581
2736.11606 0.03575
2734.83029 0.03564
2733.54453 0.03551
2732.25876 0.03533
2730.97299 0.03510
2729.68722 0.03487
2728.40145 0.03472
2727.11568 0.03465
2725.82991 0.03457
2724.54414 0.03440
2723.25838 0.03415
2721.97261 0.03392
2720.68684 0.03385
2719.40107 0.03397
2718.11530 0.03418
2716.82953 0.03434
2715.54376 0.03432
2714.25799 0.03414
2712.97222 0.03390
2711.68646 0.03373
2710.40069 0.03360
2709.11492 0.03341
2707.82915 0.03316
2706.54338 0.03293
2705.25761 0.03283
2703.97184 0.03289
2702.68607 0.03301
2701.40031 0.03305
2700.11454 0.03295
2698.82877 0.03274
2697.54300 0.03251
2696.25723 0.03237
2694.97146 0.03235
2693.68569 0.03241
2692.39992 0.03243
2691.11415 0.03237
2689.82839 0.03232
2688.54262 0.03244
2687.25685 0.03265
2685.97108 0.03273
2684.68531 0.03255
2683.39954 0.03224
2682.11377 0.03206
2680.82800 0.03214
2679.54224 0.03238
2678.25647 0.03258
2676.97070 0.03256
2675.68493 0.03231
2674.39916 0.03199
2673.11339 0.03179
2671.82762 0.03179
2670.54185 0.03194
2669.25608 0.03216
2667.97032 0.03229
2666.68455 0.03218
2665.39878 0.03187
2664.11301 0.03161
2662.82724 0.03164
2661.54147 0.03196
2660.25570 0.03235
2658.96993 0.03260
2657.68417 0.03269
2656.39840 0.03272
2655.11263 0.03281
2653.82686 0.03298
2652.54109 0.03313
2651.25532 0.03303
2649.96955 0.03253
2648.68378 0.03178
2647.39801 0.03114
2646.11225 0.03088
2644.82648 0.03102
2643.54071 0.03135
2642.25494 0.03168
2640.96917 0.03185
2639.68340 0.03179
2638.39763 0.03151
2637.11186 0.03114
2635.82609 0.03082
2634.54033 0.03063
2633.25456 0.03056
2631.96879 0.03057
2630.68302 0.03066
2629.39725 0.03085
2628.11148 0.03108
2626.82571 0.03123
2625.53994 0.03119
2624.25418 0.03094
2622.96841 0.03053
2621.68264 0.03007
2620.39687 0.02974
2619.11110 0.02963
2617.82533 0.02964
2616.53956 0.02964
2615.25379 0.02966
2613.96802 0.02984
2612.68226 0.03006
2611.39649 0.03003
2610.11072 0.02967
2608.82495 0.02919
2607.53918 0.02886
2606.25341 0.02866
2604.96764 0.02852
2603.68187 0.02844
2602.39611 0.02855
2601.11034 0.02873
2599.82457 0.02872
2598.53880 0.02833
2597.25303 0.02766
2595.96726 0.02703
2594.68149 0.02666
2593.39572 0.02658
2592.10995 0.02667
2590.82419 0.02678
2589.53842 0.02680
2588.25265 0.02671
2586.96688 0.02660
2585.68111 0.02655
2584.39534 0.02657
2583.10957 0.02666
2581.82380 0.02682
2580.53804 0.02703
2579.25227 0.02722
2577.96650 0.02732
2576.68073 0.02733
2575.39496 0.02732
2574.10919 0.02731
2572.82342 0.02726
2571.53765 0.02716
2570.25188 0.02703
2568.96612 0.02697
2567.68035 0.02702
2566.39458 0.02713
2565.10881 0.02707
2563.82304 0.02667
2562.53727 0.02594
2561.25150 0.02520
2559.96573 0.02481
2558.67997 0.02486
2557.39420 0.02508
2556.10843 0.02520
2554.82266 0.02521
2553.53689 0.02527
2552.25112 0.02542
2550.96535 0.02555
2549.67958 0.02555
2548.39381 0.02540
2547.10805 0.02523
2545.82228 0.02510
2544.53651 0.02502
2543.25074 0.02495
2541.96497 0.02493
2540.67920 0.02497
2539.39343 0.02502
2538.10766 0.02503
2536.82190 0.02507
2535.53613 0.02523
2534.25036 0.02550
2532.96459 0.02582
2531.67882 0.02605
2530.39305 0.02603
2529.10728 0.02563
2527.82151 0.02495
2526.53574 0.02431
2525.24998 0.02401
2523.96421 0.02415
2522.67844 0.02457
2521.39267 0.02492
2520.10690 0.02497
2518.82113 0.02471
2517.53536 0.02444
2516.24959 0.02443
2514.96383 0.02473
2513.67806 0.02513
2512.39229 0.02545
2511.10652 0.02560
2509.82075 0.02556
2508.53498 0.02521
2507.24921 0.02453
2505.96344 0.02379
2504.67767 0.02339
2503.39191 0.02344
2502.10614 0.02368
2500.82037 0.02382
2499.53460 0.02387
2498.24883 0.02408
2496.96306 0.02449
2495.67729 0.02484
2494.39152 0.02484
2493.10576 0.02454
2491.81999 0.02421
2490.53422 0.02403
2489.24845 0.02397
2487.96268 0.02390
2486.67691 0.02375
2485.39114 0.02349
2484.10537 0.02324
2482.81960 0.02322
2481.53384 0.02344
2480.24807 0.02363
2478.96230 0.02350
2477.67653 0.02313
2476.39076 0.02283
2475.10499 0.02279
2473.81922 0.02290
2472.53345 0.02304
2471.24769 0.02312
2469.96192 0.02315
2468.67615 0.02315
2467.39038 0.02318
2466.10461 0.02329
2464.81884 0.02349
2463.53307 0.02366
2462.24730 0.02372
2460.96153 0.02369
2459.67577 0.02358
2458.39000 0.02337
2457.10423 0.02312
2455.81846 0.02299
2454.53269 0.02315
2453.24692 0.02360
2451.96115 0.02417
2450.67538 0.02470
2449.38962 0.02506
2448.10385 0.02520
2446.81808 0.02505
2445.53231 0.02461
2444.24654 0.02398
2442.96077 0.02332
2441.67500 0.02285
2440.38923 0.02267
2439.10346 0.02275
2437.81770 0.02291
2436.53193 0.02292
2435.24616 0.02270
2433.96039 0.02244
2432.67462 0.02246
2431.38885 0.02286
2430.10308 0.02337
2428.81731 0.02364
2427.53155 0.02350
2426.24578 0.02307
2424.96001 0.02259
2423.67424 0.02229
2422.38847 0.02214
2421.10270 0.02196
2419.81693 0.02167
2418.53116 0.02140
2417.24539 0.02129
2415.95963 0.02140
2414.67386 0.02170
2413.38809 0.02209
2412.10232 0.02247
2410.81655 0.02276
2409.53078 0.02290
2408.24501 0.02279
2406.95924 0.02238
2405.67347 0.02181
2404.38771 0.02138
2403.10194 0.02127
2401.81617 0.02138
2400.53040 0.02151
2399.24463 0.02244
2397.95886 0.02185
2396.67309 0.02154
2395.38732 0.02185
2394.10156 0.02231
2392.81579 0.02261
2391.53002 0.02260
2390.24425 0.02230
2388.95848 0.02186
2387.67271 0.02151
2386.38694 0.02138
2385.10117 0.02147
2383.81540 0.02173
2382.52964 0.02199
2381.24387 0.02219
2379.95810 0.02216
2378.67233 0.02206
2377.38656 0.02178
2376.10079 0.02117
2374.81502 0.02055
2373.52925 0.02077
2372.24349 0.02161
2370.95772 0.02239
2369.67195 0.02308
2368.38618 0.02352
2367.10041 0.02364
2365.81464 0.02348
2364.52887 0.02329
2363.24310 0.02325
2361.95733 0.02334
2360.67157 0.02336
2359.38580 0.02324
2358.10003 0.02320
2356.81426 0.02329
2355.52849 0.02325
2354.24272 0.02282
2352.95695 0.02223
2351.67118 0.02235
2350.38542 0.02275
2349.09965 0.02289
2347.81388 0.02302
2346.52811 0.02326
2345.24234 0.02323
2343.95657 0.02285
2342.67080 0.02201
2341.38503 0.02234
2340.09926 0.02324
2338.81350 0.02342
2337.52773 0.02313
2336.24196 0.02342
2334.95619 0.02343
2333.67042 0.02302
2332.38465 0.02240
2331.09888 0.02321
2329.81311 0.02334
2328.52735 0.02342
2327.24158 0.02436
2325.95581 0.02524
2324.67004 0.02601
2323.38427 0.02599
2322.09850 0.02605
2320.81273 0.02605
2319.52696 0.02582
2318.24119 0.02539
2316.95543 0.02497
2315.66966 0.02442
2314.38389 0.02372
2313.09812 0.02334
2311.81235 0.02325
2310.52658 0.02317
2309.24081 0.02299
2307.95504 0.02280
2306.66928 0.02256
2305.38351 0.02230
2304.09774 0.02203
2302.81197 0.02188
2301.52620 0.02192
2300.24043 0.02206
2298.95466 0.02216
2297.66889 0.02219
2296.38312 0.02227
2295.09736 0.02243
2293.81159 0.02260
2292.52582 0.02265
2291.24005 0.02255
2289.95428 0.02245
2288.66851 0.02250
2287.38274 0.02263
2286.09697 0.02263
2284.81121 0.02232
2283.52544 0.02183
2282.23967 0.02138
2280.95390 0.02109
2279.66813 0.02084
2278.38236 0.02045
2277.09659 0.02001
2275.81082 0.01990
2274.52505 0.02035
2273.23929 0.02109
2271.95352 0.02143
2270.66775 0.02088
2269.38198 0.01957
2268.09621 0.01822
2266.81044 0.01755
2265.52467 0.01784
2264.23890 0.01877
2262.95314 0.01974
2261.66737 0.02018
2260.38160 0.01980
2259.09583 0.01874
2257.81006 0.01741
2256.52429 0.01623
2255.23852 0.01557
2253.95275 0.01563
2252.66698 0.01626
2251.38122 0.01679
2250.09545 0.01706
2248.80968 0.01824
2247.52391 0.01791
2246.23814 0.01740
2244.95237 0.01701
2243.66660 0.01683
2242.38083 0.01682
2241.09507 0.01693
2239.80930 0.01705
2238.52353 0.01712
2237.23776 0.01718
2235.95199 0.01733
2234.66622 0.01752
2233.38045 0.01768
2232.09468 0.01778
2230.80891 0.01775
2229.52315 0.01735
2228.23738 0.01641
2226.95161 0.01517
2225.66584 0.01416
2224.38007 0.01365
2223.09430 0.01358
2221.80853 0.01376
2220.52276 0.01420
2219.23700 0.01498
2217.95123 0.01603
2216.66546 0.01695
2215.37969 0.01726
2214.09392 0.01680
2212.80815 0.01595
2211.52238 0.01537
2210.23661 0.01541
2208.95084 0.01584
2207.66508 0.01608
2206.37931 0.01575
2205.09354 0.01505
2203.80777 0.01449
2202.52200 0.01419
2201.23623 0.01375
2199.95046 0.01291
2198.66469 0.01203
2197.37893 0.01170
2196.09316 0.01207
2194.80739 0.01281
2193.52162 0.01353
2192.23585 0.01402
2190.95008 0.01420
2189.66431 0.01421
2188.37854 0.01422
2187.09277 0.01420
2185.80701 0.01396
2184.52124 0.01345
2183.23547 0.01287
2181.94970 0.01244
2180.66393 0.01221
2179.37816 0.01193
2178.09239 0.01126
2176.80662 0.01026
2175.52085 0.00947
2174.23509 0.00941
2172.94932 0.00995
2171.66355 0.01076
2170.37778 0.01191
2169.09201 0.01360
2167.80624 0.01526
2166.52047 0.01572
2165.23470 0.01447
2163.94894 0.01233
2162.66317 0.01050
2161.37740 0.00938
2160.09163 0.00846
2158.80586 0.00725
2157.52009 0.00600
2156.23432 0.00526
2154.94855 0.00505
2153.66278 0.00485
2152.37702 0.00431
2151.09125 0.00387
2149.80548 0.00430
2148.51971 0.00575
2147.23394 0.00736
2145.94817 0.00811
2144.66240 0.00777
2143.37663 0.00711
2142.09087 0.00695
2140.80510 0.00748
2139.51933 0.00822
2138.23356 0.00869
2136.94779 0.00886
2135.66202 0.00905
2134.37625 0.00940
2133.09048 0.00963
2131.80471 0.00947
2130.51895 0.00905
2129.23318 0.00872
2127.94741 0.00866
2126.66164 0.00884
2125.37587 0.00936
2124.09010 0.01035
2122.80433 0.01149
2121.51856 0.01219
2120.23280 0.01221
2118.94703 0.01206
2117.66126 0.01239
2116.37549 0.01321
2115.08972 0.01394
2113.80395 0.01412
2112.51818 0.01393
2111.23241 0.01381
2109.94664 0.01397
2108.66088 0.01422
2107.37511 0.01427
2106.08934 0.01400
2104.80357 0.01355
2103.51780 0.01310
2102.23203 0.01268
2100.94626 0.01228
2099.66049 0.01273
2098.37473 0.01334
2097.08896 0.01343
2095.80319 0.01298
2094.51742 0.01215
2093.23165 0.01141
2091.94588 0.01130
2090.66011 0.01188
2089.37434 0.01264
2088.08857 0.01305
2086.80281 0.01301
2085.51704 0.01272
2084.23127 0.01240
2082.94550 0.01212
2081.65973 0.01191
2080.37396 0.01185
2079.08819 0.01197
2077.80242 0.01218
2076.51666 0.01229
2075.23089 0.01217
2073.94512 0.01191
2072.65935 0.01173
2071.37358 0.01179
2070.08781 0.01195
2068.80204 0.01201
2067.51627 0.01183
2066.23050 0.01146
2064.94474 0.01096
2063.65897 0.01040
2062.37320 0.00988
2061.08743 0.00956
2059.80166 0.00960
2058.51589 0.01001
2057.23012 0.01054
2055.94435 0.01079
2054.65859 0.01069
2053.37282 0.01066
2052.08705 0.01116
2050.80128 0.01214
2049.51551 0.01302
2048.22974 0.01325
2046.94397 0.01261
2045.65820 0.01124
2044.37243 0.00956
2043.08667 0.00824
2041.80090 0.00790
2040.51513 0.00877
2039.22936 0.01042
2037.94359 0.01201
2036.65782 0.01285
2035.37205 0.01275
2034.08628 0.01202
2032.80052 0.01096
2031.51475 0.00975
2030.22898 0.00856
2028.94321 0.00765
2027.65744 0.00722
2026.37167 0.00722
2025.08590 0.00739
2023.80013 0.00750
2022.51436 0.00742
2021.22860 0.00728
2019.94283 0.00740
2018.65706 0.00801
2017.37129 0.00900
2016.08552 0.01003
2014.79975 0.01080
2013.51398 0.01126
2012.22821 0.01144
2010.94245 0.01129
2009.65668 0.01074
2008.37091 0.00989
2007.08514 0.00900
2005.79937 0.00830
2004.51360 0.00779
2003.22783 0.00733
2001.94206 0.00689
2000.65629 0.00669
1999.37053 0.00693
1998.08476 0.00740
1996.79899 0.00762
1995.51322 0.00738
1994.22745 0.00701
1992.94168 0.00700
1991.65591 0.00743
1990.37014 0.00797
1989.08438 0.00830
1987.79861 0.00840
1986.51284 0.00838
1985.22707 0.00838
1983.94130 0.00857
1982.65553 0.00908
1981.36976 0.00981
1980.08399 0.01038
1978.79822 0.01048
1977.51246 0.01018
1976.22669 0.00989
1974.94092 0.00996
1973.65515 0.01041
1972.36938 0.01097
1971.08361 0.01135
1969.79784 0.01145
1968.51207 0.01133
1967.22631 0.01113
1965.94054 0.01103
1964.65477 0.01106
1963.36900 0.01100
1962.08323 0.01050
1960.79746 0.00957
1959.51169 0.00865
1958.22592 0.00815
1956.94015 0.00803
1955.65439 0.00800
1954.36862 0.00798
1953.08285 0.00814
1951.79708 0.00864
1950.51131 0.00944
1949.22554 0.01025
1947.93977 0.01076
1946.65400 0.01088
1945.36823 0.01084
1944.08247 0.01096
1942.79670 0.01133
1941.51093 0.01177
1940.22516 0.01201
1938.93939 0.01192
1937.65362 0.01158
1936.36785 0.01125
1935.08208 0.01118
1933.79632 0.01146
1932.51055 0.01191
1931.22478 0.01225
1929.93901 0.01242
1928.65324 0.01253
1927.36747 0.01264
1926.08170 0.01265
1924.79593 0.01249
1923.51016 0.01232
1922.22440 0.01238
1920.93863 0.01265
1919.65286 0.01280
1918.36709 0.01254
1917.08132 0.01195
1915.79555 0.01138
1914.50978 0.01109
1913.22401 0.01115
1911.93825 0.01139
1910.65248 0.01160
1909.36671 0.01170
1908.08094 0.01172
1906.79517 0.01173
1905.50940 0.01177
1904.22363 0.01183
1902.93786 0.01187
1901.65209 0.01188
1900.36633 0.01189
1899.08056 0.01194
1897.79479 0.01214
1896.50902 0.01245
1895.22325 0.01274
1893.93748 0.01287
1892.65171 0.01282
1891.36594 0.01266
1890.08018 0.01251
1888.79441 0.01245
1887.50864 0.01247
1886.22287 0.01250
1884.93710 0.01248
1883.65133 0.01237
1882.36556 0.01221
1881.07979 0.01204
1879.79402 0.01196
1878.50826 0.01202
1877.22249 0.01219
1875.93672 0.01237
1874.65095 0.01252
1873.36518 0.01265
1872.07941 0.01277
1870.79364 0.01278
1869.50787 0.01261
1868.22211 0.01231
1866.93634 0.01199
1865.65057 0.01176
1864.36480 0.01164
1863.07903 0.01161
1861.79326 0.01165
1860.50749 0.01172
1859.22172 0.01177
1857.93595 0.01174
1856.65019 0.01170
1855.36442 0.01176
1854.07865 0.01196
1852.79288 0.01222
1851.50711 0.01243
1850.22134 0.01254
1848.93557 0.01257
1847.64980 0.01258
1846.36404 0.01258
1845.07827 0.01252
1843.79250 0.01242
1842.50673 0.01232
1841.22096 0.01222
1839.93519 0.01209
1838.64942 0.01194
1837.36365 0.01181
1836.07788 0.01180
1834.79212 0.01192
1833.50635 0.01211
1832.22058 0.01226
1830.93481 0.01235
1829.64904 0.01244
1828.36327 0.01260
1827.07750 0.01281
1825.79173 0.01303
1824.50597 0.01323
1823.22020 0.01337
1821.93443 0.01339
1820.64866 0.01323
1819.36289 0.01289
1818.07712 0.01246
1816.79135 0.01205
1815.50558 0.01176
1814.21981 0.01161
1812.93405 0.01158
1811.64828 0.01161
1810.36251 0.01170
1809.07674 0.01183
1807.79097 0.01199
1806.50520 0.01217
1805.21943 0.01238
1803.93366 0.01259
1802.64790 0.01271
1801.36213 0.01268
1800.07636 0.01254
1798.79059 0.01240
1797.50482 0.01233
1796.21905 0.01237
1794.93328 0.01248
1793.64751 0.01263
1792.36174 0.01279
1791.07598 0.01295
1789.79021 0.01307
1788.50444 0.01310
1787.21867 0.01302
1785.93290 0.01291
1784.64713 0.01283
1783.36136 0.01281
1782.07559 0.01284
1780.78983 0.01285
1779.50406 0.01282
1778.21829 0.01274
1776.93252 0.01267
1775.64675 0.01264
1774.36098 0.01261
1773.07521 0.01257
1771.78944 0.01253
1770.50367 0.01253
1769.21791 0.01258
1767.93214 0.01267
1766.64637 0.01279
1765.36060 0.01293
1764.07483 0.01310
1762.78906 0.01329
1761.50329 0.01344
1760.21752 0.01349
1758.93176 0.01343
1757.64599 0.01328
1756.36022 0.01316
1755.07445 0.01310
1753.78868 0.01306
1752.50291 0.01300
1751.21714 0.01294
1749.93137 0.01293
1748.64560 0.01297
1747.35984 0.01303
1746.07407 0.01307
1744.78830 0.01312
1743.50253 0.01318
1742.21676 0.01323
1740.93099 0.01326
1739.64522 0.01329
1738.35945 0.01336
1737.07369 0.01349
1735.78792 0.01362
1734.50215 0.01372
1733.21638 0.01380
1731.93061 0.01383
1730.64484 0.01377
1729.35907 0.01367
1728.07330 0.01361
1726.78753 0.01361
1725.50177 0.01367
1724.21600 0.01380
1722.93023 0.01408
1721.64446 0.01451
1720.35869 0.01498
1719.07292 0.01534
1717.78715 0.01551
1716.50138 0.01556
1715.21561 0.01562
1713.92985 0.01580
1712.64408 0.01618
1711.35831 0.01675
1710.07254 0.01742
1708.78677 0.01812
1707.50100 0.01880
1706.21523 0.01947
1704.92946 0.02020
1703.64370 0.02102
1702.35793 0.02189
1701.07216 0.02276
1699.78639 0.02365
1698.50062 0.02455
1697.21485 0.02541
1695.92908 0.02624
1694.64331 0.02711
1693.35754 0.02802
1692.07178 0.02895
1690.78601 0.02994
1689.50024 0.03103
1688.21447 0.03218
1686.92870 0.03330
1685.64293 0.03433
1684.35716 0.03530
1683.07139 0.03624
1681.78563 0.03718
1680.49986 0.03812
1679.21409 0.03908
1677.92832 0.04003
1676.64255 0.04093
1675.35678 0.04182
1674.07101 0.04276
1672.78524 0.04379
1671.49947 0.04486
1670.21371 0.04591
1668.92794 0.04690
1667.64217 0.04781
1666.35640 0.04868
1665.07063 0.04957
1663.78486 0.05050
1662.49909 0.05142
1661.21332 0.05231
1659.92756 0.05318
1658.64179 0.05412
1657.35602 0.05518
1656.07025 0.05630
1654.78448 0.05727
1653.49871 0.05801
1652.21294 0.05855
1650.92717 0.05896
1649.64140 0.05929
1648.35564 0.05958
1647.06987 0.05988
1645.78410 0.06016
1644.49833 0.06036
1643.21256 0.06046
1641.92679 0.06048
1640.64102 0.06046
1639.35525 0.06044
1638.06949 0.06037
1636.78372 0.06021
1635.49795 0.05991
1634.21218 0.05948
1632.92641 0.05894
1631.64064 0.05835
1630.35487 0.05780
1629.06910 0.05726
1627.78333 0.05667
1626.49757 0.05599
1625.21180 0.05522
1623.92603 0.05440
1622.64026 0.05362
1621.35449 0.05289
1620.06872 0.05222
1618.78295 0.05157
1617.49718 0.05091
1616.21142 0.05027
1614.92565 0.04965
1613.63988 0.04907
1612.35411 0.04851
1611.06834 0.04800
1609.78257 0.04756
1608.49680 0.04720
1607.21103 0.04693
1605.92526 0.04673
1604.63950 0.04659
1603.35373 0.04645
1602.06796 0.04630
1600.78219 0.04616
1599.49642 0.04605
1598.21065 0.04599
1596.92488 0.04599
1595.63911 0.04605
1594.35335 0.04618
1593.06758 0.04635
1591.78181 0.04654
1590.49604 0.04670
1589.21027 0.04686
1587.92450 0.04703
1586.63873 0.04722
1585.35296 0.04740
1584.06719 0.04759
1582.78143 0.04781
1581.49566 0.04812
1580.20989 0.04857
1578.92412 0.04913
1577.63835 0.04969
1576.35258 0.05018
1575.06681 0.05058
1573.78104 0.05093
1572.49528 0.05130
1571.20951 0.05172
1569.92374 0.05220
1568.63797 0.05269
1567.35220 0.05311
1566.06643 0.05348
1564.78066 0.05388
1563.49489 0.05438
1562.20912 0.05492
1560.92336 0.05539
1559.63759 0.05572
1558.35182 0.05596
1557.06605 0.05616
1555.78028 0.05630
1554.49451 0.05641
1553.20874 0.05651
1551.92297 0.05657
1550.63721 0.05657
1549.35144 0.05652
1548.06567 0.05647
1546.77990 0.05644
1545.49413 0.05645
1544.20836 0.05649
1542.92259 0.05650
1541.63682 0.05640
1540.35105 0.05614
1539.06529 0.05576
1537.77952 0.05533
1536.49375 0.05491
1535.20798 0.05454
1533.92221 0.05424
1532.63644 0.05401
1531.35067 0.05383
1530.06490 0.05368
1528.77914 0.05355
1527.49337 0.05342
1526.20760 0.05332
1524.92183 0.05327
1523.63606 0.05326
1522.35029 0.05329
1521.06452 0.05335
1519.77875 0.05341
1518.49298 0.05346
1517.20722 0.05352
1515.92145 0.05363
1514.63568 0.05383
1513.34991 0.05409
1512.06414 0.05445
1510.77837 0.05489
1509.49260 0.05536
1508.20683 0.05574
1506.92107 0.05598
1505.63530 0.05612
1504.34953 0.05623
1503.06376 0.05634
1501.77799 0.05647
1500.49222 0.05664
1499.20645 0.05680
1497.92068 0.05691
1496.63491 0.05697
1495.34915 0.05703
1494.06338 0.05714
1492.77761 0.05730
1491.49184 0.05750
1490.20607 0.05773
1488.92030 0.05802
1487.63453 0.05836
1486.34876 0.05877
1485.06299 0.05922
1483.77723 0.05973
1482.49146 0.06028
1481.20569 0.06085
1479.91992 0.06145
1478.63415 0.06207
1477.34838 0.06275
1476.06261 0.06352
1474.77684 0.06430
1473.49108 0.06503
1472.20531 0.06566
1470.91954 0.06621
1469.63377 0.06668
1468.34800 0.06710
1467.06223 0.06748
1465.77646 0.06785
1464.49069 0.06822
1463.20492 0.06865
1461.91916 0.06916
1460.63339 0.06976
1459.34762 0.07042
1458.06185 0.07108
1456.77608 0.07170
1455.49031 0.07224
1454.20454 0.07270
1452.91877 0.07310
1451.63301 0.07347
1450.34724 0.07384
1449.06147 0.07416
1447.77570 0.07436
1446.48993 0.07446
1445.20416 0.07445
1443.91839 0.07440
1442.63262 0.07435
1441.34685 0.07432
1440.06109 0.07430
1438.77532 0.07420
1437.48955 0.07403
1436.20378 0.07387
1434.91801 0.07382
1433.63224 0.07391
1432.34647 0.07414
1431.06070 0.07446
1429.77494 0.07488
1428.48917 0.07539
1427.20340 0.07602
1425.91763 0.07680
1424.63186 0.07771
1423.34609 0.07867
1422.06032 0.07960
1420.77455 0.08039
1419.48878 0.08106
1418.20302 0.08164
1416.91725 0.08214
1415.63148 0.08260
1414.34571 0.08302
1413.05994 0.08341
1411.77417 0.08372
1410.48840 0.08389
1409.20263 0.08389
1407.91687 0.08374
1406.63110 0.08344
1405.34533 0.08304
1404.05956 0.08253
1402.77379 0.08192
1401.48802 0.08117
1400.20225 0.08028
1398.91648 0.07928
1397.63071 0.07823
1396.34495 0.07715
1395.05918 0.07604
1393.77341 0.07491
1392.48764 0.07375
1391.20187 0.07258
1389.91610 0.07139
1388.63033 0.07020
1387.34456 0.06901
1386.05880 0.06783
1384.77303 0.06663
1383.48726 0.06539
1382.20149 0.06410
1380.91572 0.06277
1379.62995 0.06148
1378.34418 0.06024
1377.05841 0.05903
1375.77264 0.05775
1374.48688 0.05639
1373.20111 0.05496
1371.91534 0.05354
1370.62957 0.05219
1369.34380 0.05090
1368.05803 0.04968
1366.77226 0.04853
1365.48649 0.04747
1364.20073 0.04649
1362.91496 0.04557
1361.62919 0.04468
1360.34342 0.04384
1359.05765 0.04310
1357.77188 0.04246
1356.48611 0.04190
1355.20034 0.04135
1353.91457 0.04081
1352.62881 0.04029
1351.34304 0.03985
1350.05727 0.03948
1348.77150 0.03915
1347.48573 0.03880
1346.19996 0.03842
1344.91419 0.03807
1343.62842 0.03778
1342.34266 0.03755
1341.05689 0.03734
1339.77112 0.03710
1338.48535 0.03681
1337.19958 0.03645
1335.91381 0.03606
1334.62804 0.03566
1333.34227 0.03530
1332.05650 0.03502
1330.77074 0.03476
1329.48497 0.03448
1328.19920 0.03412
1326.91343 0.03371
1325.62766 0.03331
1324.34189 0.03296
1323.05612 0.03268
1321.77035 0.03245
1320.48459 0.03224
1319.19882 0.03199
1317.91305 0.03169
1316.62728 0.03133
1315.34151 0.03098
1314.05574 0.03066
1312.76997 0.03040
1311.48420 0.03017
1310.19843 0.02996
1308.91267 0.02973
1307.62690 0.02948
1306.34113 0.02921
1305.05536 0.02894
1303.76959 0.02865
1302.48382 0.02833
1301.19805 0.02800
1299.91228 0.02769
1298.62652 0.02743
1297.34075 0.02719
1296.05498 0.02697
1294.76921 0.02677
1293.48344 0.02662
1292.19767 0.02653
1290.91190 0.02649
1289.62613 0.02647
1288.34036 0.02641
1287.05460 0.02632
1285.76883 0.02620
1284.48306 0.02608
1283.19729 0.02597
1281.91152 0.02586
1280.62575 0.02575
1279.33998 0.02565
1278.05421 0.02558
1276.76845 0.02552
1275.48268 0.02549
1274.19691 0.02545
1272.91114 0.02540
1271.62537 0.02532
1270.33960 0.02522
1269.05383 0.02513
1267.76806 0.02509
1266.48229 0.02512
1265.19653 0.02519
1263.91076 0.02523
1262.62499 0.02523
1261.33922 0.02519
1260.05345 0.02513
1258.76768 0.02508
1257.48191 0.02505
1256.19614 0.02505
1254.91037 0.02508
1253.62461 0.02512
1252.33884 0.02516
1251.05307 0.02520
1249.76730 0.02524
1248.48153 0.02529
1247.19576 0.02533
1245.90999 0.02535
1244.62422 0.02534
1243.33846 0.02532
1242.05269 0.02530
1240.76692 0.02527
1239.48115 0.02521
1238.19538 0.02510
1236.90961 0.02496
1235.62384 0.02482
1234.33807 0.02467
1233.05230 0.02452
1231.76654 0.02438
1230.48077 0.02422
1229.19500 0.02403
1227.90923 0.02378
1226.62346 0.02351
1225.33769 0.02325
1224.05192 0.02303
1222.76615 0.02278
1221.48039 0.02243
1220.19462 0.02199
1218.90885 0.02156
1217.62308 0.02121
1216.33731 0.02098
1215.05154 0.02082
1213.76577 0.02070
1212.48000 0.02061
1211.19423 0.02053
1209.90847 0.02047
1208.62270 0.02041
1207.33693 0.02036
1206.05116 0.02032
1204.76539 0.02031
1203.47962 0.02026
1202.19385 0.02011
1200.90808 0.01984
1199.62232 0.01975
1198.33655 0.01963
1197.05078 0.01948
1195.76501 0.01931
1194.47924 0.01914
1193.19347 0.01895
1191.90770 0.01874
1190.62193 0.01854
1189.33616 0.01835
1188.05040 0.01821
1186.76463 0.01807
1185.47886 0.01790
1184.19309 0.01768
1182.90732 0.01748
1181.62155 0.01735
1180.33578 0.01729
1179.05001 0.01724
1177.76425 0.01719
1176.47848 0.01718
1175.19271 0.01722
1173.90694 0.01730
1172.62117 0.01738
1171.33540 0.01743
1170.04963 0.01744
1168.76386 0.01741
1167.47809 0.01740
1166.19233 0.01742
1164.90656 0.01745
1163.62079 0.01745
1162.33502 0.01742
1161.04925 0.01737
1159.76348 0.01730
1158.47771 0.01727
1157.19194 0.01732
1155.90618 0.01747
1154.62041 0.01767
1153.33464 0.01784
1152.04887 0.01793
1150.76310 0.01793
1149.47733 0.01793
1148.19156 0.01800
1146.90579 0.01819
1145.62002 0.01845
1144.33426 0.01874
1143.04849 0.01905
1141.76272 0.01944
1140.47695 0.01994
1139.19118 0.02052
1137.90541 0.02117
1136.61964 0.02193
1135.33387 0.02280
1134.04811 0.02376
1132.76234 0.02476
1131.47657 0.02579
1130.19080 0.02692
1128.90503 0.02820
1127.61926 0.02967
1126.33349 0.03134
1125.04772 0.03318
1123.76195 0.03513
1122.47619 0.03717
1121.19042 0.03927
1119.90465 0.04143
1118.61888 0.04362
1117.33311 0.04582
1116.04734 0.04798
1114.76157 0.05013
1113.47580 0.05225
1112.19004 0.05432
1110.90427 0.05630
1109.61850 0.05821
1108.33273 0.06006
1107.04696 0.06190
1105.76119 0.06373
1104.47542 0.06557
1103.18965 0.06739
1101.90388 0.06912
1100.61812 0.07067
1099.33235 0.07207
1098.04658 0.07342
1096.76081 0.07476
1095.47504 0.07608
1094.18927 0.07731
1092.90350 0.07842
1091.61773 0.07945
1090.33197 0.08042
1089.04620 0.08135
1087.76043 0.08228
1086.47466 0.08322
1085.18889 0.08418
1083.90312 0.08518
1082.61735 0.08622
1081.33158 0.08730
1080.04581 0.08839
1078.76005 0.08955
1077.47428 0.09087
1076.18851 0.09238
1074.90274 0.09399
1073.61697 0.09563
1072.33120 0.09727
1071.04543 0.09890
1069.75966 0.10052
1068.47390 0.10216
1067.18813 0.10384
1065.90236 0.10560
1064.61659 0.10743
1063.33082 0.10931
1062.04505 0.11122
1060.75928 0.11312
1059.47351 0.11494
1058.18774 0.11666
1056.90198 0.11827
1055.61621 0.11983
1054.33044 0.12142
1053.04467 0.12309
1051.75890 0.12482
1050.47313 0.12658
1049.18736 0.12833
1047.90159 0.13006
1046.61583 0.13180
1045.33006 0.13360
1044.04429 0.13546
1042.75852 0.13735
1041.47275 0.13927
1040.18698 0.14126
1038.90121 0.14330
1037.61544 0.14531
1036.32967 0.14724
1035.04391 0.14911
1033.75814 0.15100
1032.47237 0.15288
1031.18660 0.15463
1029.90083 0.15618
1028.61506 0.15755
1027.32929 0.15882
1026.04352 0.16001
1024.75775 0.16110
1023.47199 0.16207
1022.18622 0.16287
1020.90045 0.16347
1019.61468 0.16386
1018.32891 0.16403
1017.04314 0.16399
1015.75737 0.16380
1014.47160 0.16347
1013.18584 0.16297
1011.90007 0.16220
1010.61430 0.16108
1009.32853 0.15965
1008.04276 0.15802
1006.75699 0.15624
1005.47122 0.15427
1004.18545 0.15206
1002.89968 0.14961
1001.61392 0.14691
1000.32815 0.14402
999.04238 0.14099
997.75661 0.13787
996.47084 0.13470
995.18507 0.13147
993.89930 0.12810
992.61353 0.12457
991.32777 0.12093
990.04200 0.11727
988.75623 0.11374
987.47046 0.11036
986.18469 0.10712
984.89892 0.10395
983.61315 0.10084
982.32738 0.09780
981.04161 0.09488
979.75585 0.09209
978.47008 0.08946
977.18431 0.08702
975.89854 0.08480
974.61277 0.08280
973.32700 0.08104
972.04123 0.07957
970.75546 0.07842
969.46970 0.07764
968.18393 0.07725
966.89816 0.07722
965.61239 0.07746
964.32662 0.07783
963.04085 0.07818
961.75508 0.07839
960.46931 0.07835
959.18354 0.07798
957.89778 0.07721
956.61201 0.07606
955.32624 0.07471
954.04047 0.07330
952.75470 0.07191
951.46893 0.07048
950.18316 0.06897
948.89739 0.06742
947.61163 0.06592
946.32586 0.06453
945.04009 0.06323
943.75432 0.06197
942.46855 0.06068
941.18278 0.05937
939.89701 0.05804
938.61124 0.05674
937.32547 0.05550
936.03971 0.05434
934.75394 0.05331
933.46817 0.05244
932.18240 0.05169
930.89663 0.05098
929.61086 0.05026
928.32509 0.04951
927.03932 0.04878
925.75356 0.04804
924.46779 0.04730
923.18202 0.04661
921.89625 0.04601
920.61048 0.04544
919.32471 0.04485
918.03894 0.04421
916.75317 0.04357
915.46740 0.04304
914.18164 0.04262
912.89587 0.04230
911.61010 0.04199
910.32433 0.04163
909.03856 0.04116
907.75279 0.04060
906.46702 0.04002
905.18125 0.03952
903.89549 0.03913
902.60972 0.03883
901.32395 0.03856
900.03818 0.03826
898.75241 0.03789
897.46664 0.03742
896.18087 0.03695
894.89510 0.03653
893.60933 0.03620
892.32357 0.03593
891.03780 0.03569
889.75203 0.03552
888.46626 0.03551
887.18049 0.03575
885.89472 0.03638
884.60895 0.03750
883.32318 0.03915
882.03742 0.04115
880.75165 0.04314
879.46588 0.04475
878.18011 0.04592
876.89434 0.04686
875.60857 0.04784
874.32280 0.04891
873.03703 0.04989
871.75126 0.05055
870.46550 0.05078
869.17973 0.05053
867.89396 0.04978
866.60819 0.04857
865.32242 0.04703
864.03665 0.04537
862.75088 0.04373
861.46511 0.04218
860.17935 0.04072
858.89358 0.03943
857.60781 0.03837
856.32204 0.03758
855.03627 0.03699
853.75050 0.03648
852.46473 0.03601
851.17896 0.03556
849.89319 0.03516
848.60743 0.03483
847.32166 0.03456
846.03589 0.03426
844.75012 0.03391
843.46435 0.03354
842.17858 0.03323
840.89281 0.03302
839.60704 0.03288
838.32128 0.03278
837.03551 0.03263
835.74974 0.03238
834.46397 0.03201
833.17820 0.03159
831.89243 0.03123
830.60666 0.03101
829.32089 0.03101
828.03512 0.03116
826.74936 0.03132
825.46359 0.03137
824.17782 0.03128
822.89205 0.03114
821.60628 0.03104
820.32051 0.03102
819.03474 0.03101
817.74897 0.03096
816.46321 0.03084
815.17744 0.03070
813.89167 0.03059
812.60590 0.03052
811.32013 0.03045
810.03436 0.03034
808.74859 0.03020
807.46282 0.03006
806.17705 0.02996
804.89129 0.02991
803.60552 0.02996
802.31975 0.03014
801.03398 0.03042
799.74821 0.03065
798.46244 0.03072
797.17667 0.03062
795.89090 0.03043
794.60513 0.03027
793.31937 0.03021
792.03360 0.03025
790.74783 0.03034
789.46206 0.03042
788.17629 0.03045
786.89052 0.03044
785.60475 0.03045
784.31898 0.03047
783.03322 0.03042
781.74745 0.03029
780.46168 0.03015
779.17591 0.03011
777.89014 0.03016
776.60437 0.03023
775.31860 0.03025
774.03283 0.03027
772.74706 0.03036
771.46130 0.03052
770.17553 0.03067
768.88976 0.03070
767.60399 0.03060
766.31822 0.03047
765.03245 0.03042
763.74668 0.03046
762.46091 0.03056
761.17515 0.03061
759.88938 0.03060
758.60361 0.03058
757.31784 0.03063
756.03207 0.03075
754.74630 0.03091
753.46053 0.03109
752.17476 0.03121
750.88899 0.03119
749.60323 0.03098
748.31746 0.03066
747.03169 0.03037
745.74592 0.03020
744.46015 0.03015
743.17438 0.03019
741.88861 0.03027
740.60284 0.03033
739.31708 0.03036
738.03131 0.03035
736.74554 0.03031
735.45977 0.03025
734.17400 0.03019
732.88823 0.03018
731.60246 0.03017
730.31669 0.03014
729.03092 0.03008
727.74516 0.03004
726.45939 0.03006
725.17362 0.03012
723.88785 0.03042
722.60208 0.03038
721.31631 0.03044
720.03054 0.03064
718.74477 0.03084
717.45901 0.03097
716.17324 0.03099
714.88747 0.03089
713.60170 0.03076
712.31593 0.03065
711.03016 0.03063
709.74439 0.03067
708.45862 0.03073
707.17285 0.03080
705.88709 0.03087
704.60132 0.03094
703.31555 0.03102
702.02978 0.03110
700.74401 0.03114
699.45824 0.03113
698.17247 0.03109
696.88670 0.03102
695.60094 0.03097
694.31517 0.03095
693.02940 0.03095
691.74363 0.03096
690.45786 0.03096
689.17209 0.03098
687.88632 0.03101
686.60055 0.03105
685.31478 0.03103
684.02902 0.03091
682.74325 0.03071
681.45748 0.03047
680.17171 0.03029
678.88594 0.03024
677.60017 0.03029
676.31440 0.03042
675.02863 0.03057
673.74287 0.03072
672.45710 0.03086
671.17133 0.03097
669.88556 0.03109
668.59979 0.03120
667.31402 0.03125
666.02825 0.03125
664.74248 0.03120
663.45671 0.03112
662.17095 0.03103
660.88518 0.03094
659.59941 0.03084
658.31364 0.03072
657.02787 0.03053
655.74210 0.03028
654.45633 0.03001
653.17056 0.02977
651.88480 0.02957
650.59903 0.02944
649.31326 0.02937
648.02749 0.02934
646.74172 0.02931
645.45595 0.02927
644.17018 0.02920
642.88441 0.02909
641.59864 0.02895
640.31288 0.02877
639.02711 0.02859
637.74134 0.02847
636.45557 0.02848
635.16980 0.02863
633.88403 0.02890
632.59826 0.02916
631.31249 0.02881
630.02673 0.02800
628.74096 0.02932
627.45519 0.03112
626.16942 0.03380
624.88365 0.03684
623.59788 0.03928
622.31211 0.04079
621.02634 0.04178
619.74057 0.04270
618.45481 0.04333
617.16904 0.04324
615.88327 0.04281
614.59750 0.04347
613.31173 0.04666
612.02596 0.05243
610.74019 0.05908
609.45442 0.06443
608.16866 0.06773
606.88289 0.06999
605.59712 0.07236
604.31135 0.07485
603.02558 0.07659
601.73981 0.07691
600.45404 0.07586
599.16827 0.07405
597.88250 0.07202
596.59674 0.07002
595.31097 0.06814
594.02520 0.06642
592.73943 0.06492
591.45366 0.06367
590.16789 0.06269
588.88212 0.06199
587.59635 0.06162
586.31059 0.06169
585.02482 0.06227
583.73905 0.06338
582.45328 0.06492
581.16751 0.06671
579.88174 0.06857
578.59597 0.07035
577.31020 0.07200
576.02443 0.07354
574.73867 0.07505
573.45290 0.07658
572.16713 0.07820
570.88136 0.07995
569.59559 0.08189
568.30982 0.08400
567.02405 0.08616
565.73828 0.08819
564.45251 0.08996
563.16675 0.09135
561.88098 0.09227
560.59521 0.09254
559.30944 0.09199
558.02367 0.09057
556.73790 0.08837
555.45213 0.08557
554.16636 0.08240
552.88060 0.07907
551.59483 0.07577
550.30906 0.07264
549.02329 0.06976
547.73752 0.06715
546.45175 0.06482
545.16598 0.06274
543.88021 0.06091
542.59444 0.05930
541.30868 0.05790
540.02291 0.05662
538.73714 0.05535
537.45137 0.05402
536.16560 0.05265
534.87983 0.05133
533.59406 0.05019
532.30829 0.04923
531.02253 0.04838
529.73676 0.04752
528.45099 0.04655
527.16522 0.04552
525.87945 0.04451
524.59368 0.04368
523.30791 0.04309
522.02214 0.04269
520.73637 0.04229
519.45061 0.04171
518.16484 0.04093
516.87907 0.04009
515.59330 0.03934
514.30753 0.03873
513.02176 0.03820
511.73599 0.03770
510.45022 0.03720
509.16446 0.03676
507.87869 0.03641
506.59292 0.03610
505.30715 0.03578
504.02138 0.03539
502.73561 0.03490
501.44984 0.03434
500.16407 0.03377
498.87830 0.03328
497.59254 0.03289
496.30677 0.03256
495.02100 0.03223
493.73523 0.03190
492.44946 0.03160
491.16369 0.03135
489.87792 0.03111
488.59215 0.03083
487.30639 0.03052
486.02062 0.03025
484.73485 0.03007
483.44908 0.02994
482.16331 0.02982
480.87754 0.02968
479.59177 0.02957
478.30600 0.02953
477.02023 0.02956
475.73447 0.02964
474.44870 0.02975
473.16293 0.02990
471.87716 0.03008
470.59139 0.03021
469.30562 0.03026
468.01985 0.03021
466.73408 0.03006
465.44832 0.02975
464.16255 0.02929
462.87678 0.02871
461.59101 0.02813
460.30524 0.02765
459.01947 0.02729
457.73370 0.02701
456.44793 0.02673
455.16216 0.02638
453.87640 0.02601
452.59063 0.02572
451.30486 0.02553
450.01909 0.02539
448.73332 0.02519
447.44755 0.02492
446.16178 0.02463
444.87601 0.02439
443.59025 0.02420
442.30448 0.02400
441.01871 0.02376
439.73294 0.02349
438.44717 0.02326
437.16140 0.02310
435.87563 0.02301
434.58986 0.02296
433.30409 0.02291
432.01833 0.02284
430.73256 0.02271
429.44679 0.02252
428.16102 0.02230
426.87525 0.02209
425.58948 0.02192
424.30371 0.02178
423.01794 0.02165
421.73218 0.02153
420.44641 0.02142
419.16064 0.02132
417.87487 0.02120
416.58910 0.02102
415.30333 0.02077
414.01756 0.02052
412.73179 0.02032
411.44602 0.02022
410.16026 0.02016
408.87449 0.02012
407.58872 0.02008
406.30295 0.02006
405.01718 0.02006
403.73141 0.02007
402.44564 0.02006
401.15987 0.02000
399.87411 0.01990
