3997.45528 0.04714
3996.16951 0.04807
3994.88374 0.04851
3993.59798 0.04847
3992.31221 0.04820
3991.02644 0.04789
3989.74067 0.04771
3988.45490 0.04788
3987.16913 0.04847
3985.88336 0.04928
3984.59759 0.05001
3983.31183 0.05050
3982.02606 0.05072
3980.74029 0.05068
3979.45452 0.05043
3978.16875 0.05002
3976.88298 0.04944
3975.59721 0.04868
3974.31144 0.04795
3973.02567 0.04769
3971.73991 0.04822
3970.45414 0.04937
3969.16837 0.05048
3967.88260 0.05089
3966.59683 0.05041
3965.31106 0.04939
3964.02529 0.04835
3962.73952 0.04762
3961.45376 0.04724
3960.16799 0.04726
3958.88222 0.04771
3957.59645 0.04847
3956.31068 0.04927
3955.02491 0.04980
3953.73914 0.05000
3952.45337 0.04998
3951.16760 0.05002
3949.88184 0.05026
3948.59607 0.05058
3947.31030 0.05063
3946.02453 0.05011
3944.73876 0.04910
3943.45299 0.04806
3942.16722 0.04746
3940.88145 0.04748
3939.59569 0.04793
3938.30992 0.04853
3937.02415 0.04892
3935.73838 0.04886
3934.45261 0.04855
3933.16684 0.04847
3931.88107 0.04881
3930.59530 0.04910
3929.30953 0.04873
3928.02377 0.04764
3926.73800 0.04631
3925.45223 0.04534
3924.16646 0.04509
3922.88069 0.04547
3921.59492 0.04606
3920.30915 0.04643
3919.02338 0.04663
3917.73762 0.04698
3916.45185 0.04760
3915.16608 0.04804
3913.88031 0.04786
3912.59454 0.04724
3911.30877 0.04677
3910.02300 0.04683
3908.73723 0.04747
3907.45146 0.04854
3906.16570 0.04976
3904.87993 0.05065
3903.59416 0.05072
3902.30839 0.04991
3901.02262 0.04886
3899.73685 0.04853
3898.45108 0.04940
3897.16531 0.05110
3895.87955 0.05277
3894.59378 0.05370
3893.30801 0.05352
3892.02224 0.05251
3890.73647 0.05146
3889.45070 0.05096
3888.16493 0.05075
3886.87916 0.05037
3885.59339 0.04983
3884.30763 0.04932
3883.02186 0.04880
3881.73609 0.04825
3880.45032 0.04790
3879.16455 0.04794
3877.87878 0.04828
3876.59301 0.04865
3875.30724 0.04899
3874.02148 0.04930
3872.73571 0.04938
3871.44994 0.04904
3870.16417 0.04848
3868.87840 0.04811
3867.59263 0.04793
3866.30686 0.04782
3865.02109 0.04775
3863.73532 0.04762
3862.44956 0.04723
3861.16379 0.04686
3859.87802 0.04698
3858.59225 0.04768
3857.30648 0.04841
3856.02071 0.04858
3854.73494 0.04819
3853.44917 0.04779
3852.16341 0.04772
3850.87764 0.04784
3849.59187 0.04795
3848.30610 0.04779
3847.02033 0.04702
3845.73456 0.04575
3844.44879 0.04481
3843.16302 0.04493
3841.87725 0.04589
3840.59149 0.04663
3839.30572 0.04648
3838.01995 0.04577
3836.73418 0.04527
3835.44841 0.04526
3834.16264 0.04548
3832.87687 0.04571
3831.59110 0.04586
3830.30534 0.04592
3829.01957 0.04604
3827.73380 0.04634
3826.44803 0.04672
3825.16226 0.04677
3823.87649 0.04617
3822.59072 0.04530
3821.30495 0.04499
3820.01918 0.04549
3818.73342 0.04622
3817.44765 0.04663
3816.16188 0.04675
3814.87611 0.04644
3813.59034 0.04531
3812.30457 0.04387
3811.01880 0.04333
3809.73303 0.04380
3808.44726 0.04414
3807.16150 0.04358
3805.87573 0.04262
3804.58996 0.04206
3803.30419 0.04221
3802.01842 0.04313
3800.73265 0.04460
3799.44688 0.04586
3798.16111 0.04605
3796.87535 0.04515
3795.58958 0.04380
3794.30381 0.04259
3793.01804 0.04189
3791.73227 0.04187
3790.44650 0.04242
3789.16073 0.04324
3787.87496 0.04399
3786.58919 0.04444
3785.30343 0.04456
3784.01766 0.04437
3782.73189 0.04387
3781.44612 0.04307
3780.16035 0.04217
3778.87458 0.04156
3777.58881 0.04145
3776.30304 0.04177
3775.01728 0.04236
3773.73151 0.04296
3772.44574 0.04339
3771.15997 0.04380
3769.87420 0.04454
3768.58843 0.04556
3767.30266 0.04610
3766.01689 0.04559
3764.73112 0.04436
3763.44536 0.04332
3762.15959 0.04322
3760.87382 0.04415
3759.58805 0.04543
3758.30228 0.04610
3757.01651 0.04578
3755.73074 0.04487
3754.44497 0.04404
3753.15921 0.04373
3751.87344 0.04399
3750.58767 0.04456
3749.30190 0.04521
3748.01613 0.04570
3746.73036 0.04556
3745.44459 0.04484
3744.15882 0.04448
3742.87305 0.04485
3741.58729 0.04528
3740.30152 0.04530
3739.01575 0.04494
3737.72998 0.04424
3736.44421 0.04340
3735.15844 0.04283
3733.87267 0.04272
3732.58690 0.04285
3731.30114 0.04279
3730.01537 0.04211
3728.72960 0.04083
3727.44383 0.03950
3726.15806 0.03864
3724.87229 0.03831
3723.58652 0.03839
3722.30075 0.03895
3721.01498 0.03995
3719.72922 0.04105
3718.44345 0.04186
3717.15768 0.04226
3715.87191 0.04246
3714.58614 0.04274
3713.30037 0.04319
3712.01460 0.04355
3710.72883 0.04355
3709.44307 0.04323
3708.15730 0.04301
3706.87153 0.04309
3705.58576 0.04317
3704.29999 0.04286
3703.01422 0.04225
3701.72845 0.04169
3700.44268 0.04142
3699.15691 0.04136
3697.87115 0.04142
3696.58538 0.04167
3695.29961 0.04212
3694.01384 0.04260
3692.72807 0.04298
3691.44230 0.04325
3690.15653 0.04338
3688.87076 0.04348
3687.58500 0.04365
3686.29923 0.04366
3685.01346 0.04313
3683.72769 0.04217
3682.44192 0.04140
3681.15615 0.04134
3679.87038 0.04205
3678.58461 0.04299
3677.29884 0.04354
3676.01308 0.04377
3674.72731 0.04402
3673.44154 0.04420
3672.15577 0.04407
3670.87000 0.04401
3669.58423 0.04440
3668.29846 0.04483
3667.01269 0.04467
3665.72693 0.04397
3664.44116 0.04317
3663.15539 0.04255
3661.86962 0.04225
3660.58385 0.04227
3659.29808 0.04245
3658.01231 0.04256
3656.72654 0.04261
3655.44077 0.04278
3654.15501 0.04302
3652.86924 0.04307
3651.58347 0.04297
3650.29770 0.04307
3649.01193 0.04360
3647.72616 0.04441
3646.44039 0.04509
3645.15462 0.04518
3643.86886 0.04445
3642.58309 0.04319
3641.29732 0.04211
3640.01155 0.04184
3638.72578 0.04241
3637.44001 0.04332
3636.15424 0.04413
3634.86847 0.04476
3633.58270 0.04541
3632.29694 0.04613
3631.01117 0.04678
3629.72540 0.04745
3628.43963 0.04835
3627.15386 0.04926
3625.86809 0.04969
3624.58232 0.04956
3623.29655 0.04924
3622.01079 0.04904
3620.72502 0.04902
3619.43925 0.04905
3618.15348 0.04886
3616.86771 0.04827
3615.58194 0.04744
3614.29617 0.04683
3613.01040 0.04677
3611.72463 0.04720
3610.43887 0.04789
3609.15310 0.04878
3607.86733 0.04986
3606.58156 0.05072
3605.29579 0.05088
3604.01002 0.05029
3602.72425 0.04949
3601.43848 0.04917
3600.15272 0.04952
3598.86695 0.05018
3597.58118 0.05065
3596.29541 0.05070
3595.00964 0.05048
3593.72387 0.05029
3592.43810 0.05041
3591.15233 0.05100
3589.86656 0.05202
3588.58080 0.05322
3587.29503 0.05415
3586.00926 0.05440
3584.72349 0.05396
3583.43772 0.05326
3582.15195 0.05286
3580.86618 0.05290
3579.58041 0.05303
3578.29464 0.05297
3577.00888 0.05294
3575.72311 0.05343
3574.43734 0.05452
3573.15157 0.05574
3571.86580 0.05661
3570.58003 0.05708
3569.29426 0.05738
3568.00849 0.05762
3566.72273 0.05761
3565.43696 0.05717
3564.15119 0.05641
3562.86542 0.05568
3561.57965 0.05528
3560.29388 0.05527
3559.00811 0.05560
3557.72234 0.05621
3556.43657 0.05707
3555.15081 0.05815
3553.86504 0.05920
3552.57927 0.05984
3551.29350 0.05976
3550.00773 0.05919
3548.72196 0.05879
3547.43619 0.05914
3546.15042 0.06022
3544.86466 0.06152
3543.57889 0.06245
3542.29312 0.06275
3541.00735 0.06245
3539.72158 0.06184
3538.43581 0.06138
3537.15004 0.06146
3535.86427 0.06210
3534.57850 0.06299
3533.29274 0.06385
3532.00697 0.06459
3530.72120 0.06515
3529.43543 0.06536
3528.14966 0.06508
3526.86389 0.06448
3525.57812 0.06394
3524.29235 0.06378
3523.00659 0.06399
3521.72082 0.06431
3520.43505 0.06442
3519.14928 0.06431
3517.86351 0.06428
3516.57774 0.06468
3515.29197 0.06538
3514.00620 0.06586
3512.72043 0.06585
3511.43467 0.06568
3510.14890 0.06588
3508.86313 0.06645
3507.57736 0.06683
3506.29159 0.06657
3505.00582 0.06593
3503.72005 0.06559
3502.43428 0.06588
3501.14852 0.06649
3499.86275 0.06698
3498.57698 0.06742
3497.29121 0.06828
3496.00544 0.06982
3494.71967 0.07169
3493.43390 0.07318
3492.14813 0.07371
3490.86236 0.07313
3489.57660 0.07175
3488.29083 0.07030
3487.00506 0.06949
3485.71929 0.06954
3484.43352 0.07006
3483.14775 0.07042
3481.86198 0.07037
3480.57621 0.07012
3479.29045 0.07011
3478.00468 0.07060
3476.71891 0.07154
3475.43314 0.07251
3474.14737 0.07304
3472.86160 0.07289
3471.57583 0.07221
3470.29006 0.07131
3469.00429 0.07045
3467.71853 0.06986
3466.43276 0.06984
3465.14699 0.07042
3463.86122 0.07134
3462.57545 0.07214
3461.28968 0.07261
3460.00391 0.07278
3458.71814 0.07289
3457.43238 0.07318
3456.14661 0.07370
3454.86084 0.07427
3453.57507 0.07463
3452.28930 0.07466
3451.00353 0.07448
3449.71776 0.07434
3448.43199 0.07440
3447.14622 0.07471
3445.86046 0.07522
3444.57469 0.07583
3443.28892 0.07634
3442.00315 0.07660
3440.71738 0.07659
3439.43161 0.07650
3438.14584 0.07662
3436.86007 0.07706
3435.57431 0.07771
3434.28854 0.07831
3433.00277 0.07861
3431.71700 0.07846
3430.43123 0.07786
3429.14546 0.07699
3427.85969 0.07622
3426.57392 0.07594
3425.28815 0.07629
3424.00239 0.07707
3422.71662 0.07785
3421.43085 0.07820
3420.14508 0.07796
3418.85931 0.07732
3417.57354 0.07668
3416.28777 0.07639
3415.00200 0.07653
3413.71624 0.07692
3412.43047 0.07740
3411.14470 0.07803
3409.85893 0.07890
3408.57316 0.07994
3407.28739 0.08090
3406.00162 0.08149
3404.71585 0.08163
3403.43008 0.08141
3402.14432 0.08101
3400.85855 0.08059
3399.57278 0.08028
3398.28701 0.08037
3397.00124 0.08083
3395.71547 0.08131
3394.42970 0.08157
3393.14393 0.08171
3391.85817 0.08200
3390.57240 0.08252
3389.28663 0.08299
3388.00086 0.08307
3386.71509 0.08269
3385.42932 0.08213
3384.14355 0.08178
3382.85778 0.08184
3381.57201 0.08226
3380.28625 0.08281
3379.00048 0.08333
3377.71471 0.08376
3376.42894 0.08412
3375.14317 0.08446
3373.85740 0.08480
3372.57163 0.08511
3371.28586 0.08526
3370.00010 0.08520
3368.71433 0.08503
3367.42856 0.08487
3366.14279 0.08470
3364.85702 0.08447
3363.57125 0.08426
3362.28548 0.08426
3360.99971 0.08448
3359.71394 0.08468
3358.42818 0.08463
3357.14241 0.08434
3355.85664 0.08400
3354.57087 0.08376
3353.28510 0.08363
3351.99933 0.08353
3350.71356 0.08340
3349.42779 0.08326
3348.14202 0.08317
3346.85626 0.08320
3345.57049 0.08345
3344.28472 0.08404
3342.99895 0.08482
3341.71318 0.08540
3340.42741 0.08535
3339.14164 0.08475
3337.85587 0.08417
3336.57011 0.08412
3335.28434 0.08465
3333.99857 0.08536
3332.71280 0.08590
3331.42703 0.08617
3330.14126 0.08624
3328.85549 0.08629
3327.56972 0.08644
3326.28395 0.08670
3324.99819 0.08690
3323.71242 0.08692
3322.42665 0.08697
3321.14088 0.08730
3319.85511 0.08785
3318.56934 0.08813
3317.28357 0.08778
3315.99780 0.08701
3314.71204 0.08645
3313.42627 0.08649
3312.14050 0.08694
3310.85473 0.08724
3309.56896 0.08709
3308.28319 0.08670
3306.99742 0.08655
3305.71165 0.08689
3304.42588 0.08747
3303.14012 0.08775
3301.85435 0.08743
3300.56858 0.08671
3299.28281 0.08611
3297.99704 0.08602
3296.71127 0.08634
3295.42550 0.08664
3294.13973 0.08659
3292.85397 0.08631
3291.56820 0.08628
3290.28243 0.08677
3288.99666 0.08748
3287.71089 0.08784
3286.42512 0.08759
3285.13935 0.08698
3283.85358 0.08638
3282.56781 0.08597
3281.28205 0.08578
3279.99628 0.08576
3278.71051 0.08577
3277.42474 0.08570
3276.13897 0.08557
3274.85320 0.08554
3273.56743 0.08579
3272.28166 0.08635
3270.99590 0.08699
3269.71013 0.08729
3268.42436 0.08694
3267.13859 0.08612
3265.85282 0.08540
3264.56705 0.08536
3263.28128 0.08606
3261.99551 0.08692
3260.70974 0.08720
3259.42398 0.08663
3258.13821 0.08572
3256.85244 0.08519
3255.56667 0.08525
3254.28090 0.08555
3252.99513 0.08555
3251.70936 0.08504
3250.42359 0.08419
3249.13783 0.08343
3247.85206 0.08327
3246.56629 0.08390
3245.28052 0.08499
3243.99475 0.08586
3242.70898 0.08607
3241.42321 0.08576
3240.13744 0.08540
3238.85167 0.08524
3237.56591 0.08512
3236.28014 0.08476
3234.99437 0.08415
3233.70860 0.08355
3232.42283 0.08316
3231.13706 0.08303
3229.85129 0.08302
3228.56552 0.08302
3227.27976 0.08294
3225.99399 0.08273
3224.70822 0.08240
3223.42245 0.08203
3222.13668 0.08182
3220.85091 0.08194
3219.56514 0.08236
3218.27937 0.08284
3216.99360 0.08314
3215.70784 0.08323
3214.42207 0.08319
3213.13630 0.08308
3211.85053 0.08299
3210.56476 0.08303
3209.27899 0.08323
3207.99322 0.08338
3206.70745 0.08328
3205.42169 0.08293
3204.13592 0.08246
3202.85015 0.08191
3201.56438 0.08126
3200.27861 0.08062
3198.99284 0.08023
3197.70707 0.08019
3196.42130 0.08035
3195.13553 0.08049
3193.84977 0.08055
3192.56400 0.08063
3191.27823 0.08069
3189.99246 0.08058
3188.70669 0.08025
3187.42092 0.07993
3186.13515 0.07986
3184.84938 0.07998
3183.56362 0.07998
3182.27785 0.07970
3180.99208 0.07931
3179.70631 0.07913
3178.42054 0.07926
3177.13477 0.07956
3175.84900 0.07974
3174.56323 0.07957
3173.27746 0.07903
3171.99170 0.07843
3170.70593 0.07818
3169.42016 0.07843
3168.13439 0.07886
3166.84862 0.07901
3165.56285 0.07874
3164.27708 0.07828
3162.99131 0.07791
3161.70555 0.07770
3160.41978 0.07751
3159.13401 0.07730
3157.84824 0.07711
3156.56247 0.07696
3155.27670 0.07677
3153.99093 0.07646
3152.70516 0.07606
3151.41939 0.07566
3150.13363 0.07536
3148.84786 0.07513
3147.56209 0.07492
3146.27632 0.07468
3144.99055 0.07438
3143.70478 0.07404
3142.41901 0.07380
3141.13324 0.07383
3139.84748 0.07415
3138.56171 0.07457
3137.27594 0.07474
3135.99017 0.07448
3134.70440 0.07394
3133.41863 0.07337
3132.13286 0.07295
3130.84709 0.07266
3129.56132 0.07247
3128.27556 0.07246
3126.98979 0.07277
3125.70402 0.07339
3124.41825 0.07401
3123.13248 0.07422
3121.84671 0.07388
3120.56094 0.07323
3119.27517 0.07267
3117.98940 0.07244
3116.70364 0.07253
3115.41787 0.07278
3114.13210 0.07300
3112.84633 0.07309
3111.56056 0.07304
3110.27479 0.07287
3108.98902 0.07263
3107.70325 0.07238
3106.41749 0.07220
3105.13172 0.07209
3103.84595 0.07202
3102.56018 0.07194
3101.27441 0.07184
3099.98864 0.07174
3098.70287 0.07162
3097.41710 0.07153
3096.13133 0.07148
3094.84557 0.07142
3093.55980 0.07127
3092.27403 0.07102
3090.98826 0.07082
3089.70249 0.07074
3088.41672 0.07072
3087.13095 0.07059
3085.84518 0.07035
3084.55942 0.07013
3083.27365 0.07005
3081.98788 0.07008
3080.70211 0.07015
3079.41634 0.07022
3078.13057 0.07023
3076.84480 0.07012
3075.55903 0.06987
3074.27326 0.06967
3072.98750 0.06972
3071.70173 0.07005
3070.41596 0.07045
3069.13019 0.07080
3067.84442 0.07112
3066.55865 0.07140
3065.27288 0.07145
3063.98711 0.07108
3062.70135 0.07033
3061.41558 0.06956
3060.12981 0.06906
3058.84404 0.06891
3057.55827 0.06897
3056.27250 0.06900
3054.98673 0.06887
3053.70096 0.06864
3052.41519 0.06844
3051.12943 0.06836
3049.84366 0.06842
3048.55789 0.06857
3047.27212 0.06875
3045.98635 0.06889
3044.70058 0.06894
3043.41481 0.06887
3042.12904 0.06861
3040.84328 0.06814
3039.55751 0.06762
3038.27174 0.06732
3036.98597 0.06733
3035.70020 0.06747
3034.41443 0.06743
3033.12866 0.06709
3031.84289 0.06651
3030.55712 0.06590
3029.27136 0.06549
3027.98559 0.06538
3026.69982 0.06551
3025.41405 0.06568
3024.12828 0.06579
3022.84251 0.06583
3021.55674 0.06585
3020.27097 0.06582
3018.98521 0.06574
3017.69944 0.06562
3016.41367 0.06553
3015.12790 0.06548
3013.84213 0.06536
3012.55636 0.06514
3011.27059 0.06486
3009.98482 0.06463
3008.69905 0.06450
3007.41329 0.06443
3006.12752 0.06434
3004.84175 0.06416
3003.55598 0.06384
3002.27021 0.06345
3000.98444 0.06311
2999.69867 0.06291
2998.41290 0.06310
2997.12714 0.06343
2995.84137 0.06358
2994.55560 0.06336
2993.26983 0.06290
2991.98406 0.06255
2990.69829 0.06253
2989.41252 0.06280
2988.12675 0.06325
2986.84098 0.06382
2985.55522 0.06436
2984.26945 0.06472
2982.98368 0.06482
2981.69791 0.06469
2980.41214 0.06444
2979.12637 0.06423
2977.84060 0.06425
2976.55483 0.06465
2975.26907 0.06530
2973.98330 0.06592
2972.69753 0.06631
2971.41176 0.06648
2970.12599 0.06658
2968.84022 0.06682
2967.55445 0.06731
2966.26868 0.06789
2964.98291 0.06834
2963.69715 0.06860
2962.41138 0.06882
2961.12561 0.06913
2959.83984 0.06945
2958.55407 0.06965
2957.26830 0.06977
2955.98253 0.06996
2954.69676 0.07032
2953.41100 0.07092
2952.12523 0.07168
2950.83946 0.07240
2949.55369 0.07285
2948.26792 0.07292
2946.98215 0.07274
2945.69638 0.07252
2944.41061 0.07240
2943.12484 0.07242
2941.83908 0.07252
2940.55331 0.07250
2939.26754 0.07222
2937.98177 0.07168
2936.69600 0.07101
2935.41023 0.07039
2934.12446 0.06992
2932.83869 0.06965
2931.55293 0.06950
2930.26716 0.06926
2928.98139 0.06868
2927.69562 0.06765
2926.40985 0.06612
2925.12408 0.06394
2923.83831 0.06092
2922.55254 0.05706
2921.26677 0.05264
2919.98101 0.04817
2918.69524 0.04431
2917.40947 0.04182
2916.12370 0.04142
2914.83793 0.04333
2913.55216 0.04703
2912.26639 0.05146
2910.98062 0.05559
2909.69486 0.05884
2908.40909 0.06117
2907.12332 0.06280
2905.83755 0.06401
2904.55178 0.06495
2903.26601 0.06550
2901.98024 0.06550
2900.69447 0.06508
2899.40870 0.06464
2898.12294 0.06452
2896.83717 0.06472
2895.55140 0.06506
2894.26563 0.06537
2892.97986 0.06555
2891.69409 0.06557
2890.40832 0.06542
2889.12255 0.06513
2887.83678 0.06474
2886.55102 0.06433
2885.26525 0.06403
2883.97948 0.06392
2882.69371 0.06401
2881.40794 0.06427
2880.12217 0.06461
2878.83640 0.06491
2877.55063 0.06502
2876.26487 0.06492
2874.97910 0.06475
2873.69333 0.06474
2872.40756 0.06504
2871.12179 0.06560
2869.83602 0.06614
2868.55025 0.06634
2867.26448 0.06607
2865.97871 0.06553
2864.69295 0.06497
2863.40718 0.06443
2862.12141 0.06376
2860.83564 0.06290
2859.54987 0.06192
2858.26410 0.06084
2856.97833 0.05951
2855.69256 0.05761
2854.40680 0.05484
2853.12103 0.05114
2851.83526 0.04697
2850.54949 0.04342
2849.26372 0.04189
2847.97795 0.04306
2846.69218 0.04631
2845.40641 0.05014
2844.12064 0.05331
2842.83488 0.05543
2841.54911 0.05675
2840.26334 0.05756
2838.97757 0.05803
2837.69180 0.05828
2836.40603 0.05840
2835.12026 0.05846
2833.83449 0.05845
2832.54873 0.05838
2831.26296 0.05830
2829.97719 0.05828
2828.69142 0.05833
2827.40565 0.05833
2826.11988 0.05813
2824.83411 0.05765
2823.54834 0.05694
2822.26257 0.05615
2820.97681 0.05547
2819.69104 0.05509
2818.40527 0.05506
2817.11950 0.05522
2815.83373 0.05532
2814.54796 0.05522
2813.26219 0.05498
2811.97642 0.05471
2810.69066 0.05449
2809.40489 0.05429
2808.11912 0.05414
2806.83335 0.05407
2805.54758 0.05408
2804.26181 0.05409
2802.97604 0.05403
2801.69027 0.05391
2800.40450 0.05378
2799.11874 0.05370
2797.83297 0.05360
2796.54720 0.05344
2795.26143 0.05321
2793.97566 0.05293
2792.68989 0.05264
2791.40412 0.05238
2790.11835 0.05227
2788.83259 0.05231
2787.54682 0.05241
2786.26105 0.05250
2784.97528 0.05267
2783.68951 0.05292
2782.40374 0.05310
2781.11797 0.05302
2779.83220 0.05268
2778.54643 0.05230
2777.26067 0.05205
2775.97490 0.05195
2774.68913 0.05184
2773.40336 0.05159
2772.11759 0.05120
2770.83182 0.05079
2769.54605 0.05049
2768.26028 0.05035
2766.97452 0.05035
2765.68875 0.05045
2764.40298 0.05061
2763.11721 0.05075
2761.83144 0.05075
2760.54567 0.05057
2759.25990 0.05037
2757.97413 0.05031
2756.68836 0.05040
2755.40260 0.05050
2754.11683 0.05050
2752.83106 0.05040
2751.54529 0.05027
2750.25952 0.05013
2748.97375 0.04991
2747.68798 0.04958
2746.40221 0.04915
2745.11645 0.04873
2743.83068 0.04851
2742.54491 0.04866
2741.25914 0.04909
2739.97337 0.04952
2738.68760 0.04964
2737.40183 0.04940
2736.11606 0.04902
2734.83029 0.04878
2733.54453 0.04878
2732.25876 0.04885
2730.97299 0.04876
2729.68722 0.04853
2728.40145 0.04836
2727.11568 0.04837
2725.82991 0.04849
2724.54414 0.04854
2723.25838 0.04848
2721.97261 0.04836
2720.68684 0.04826
2719.40107 0.04821
2718.11530 0.04824
2716.82953 0.04834
2715.54376 0.04840
2714.25799 0.04829
2712.97222 0.04802
2711.68646 0.04770
2710.40069 0.04746
2709.11492 0.04732
2707.82915 0.04723
2706.54338 0.04717
2705.25761 0.04715
2703.97184 0.04710
2702.68607 0.04689
2701.40031 0.04651
2700.11454 0.04613
2698.82877 0.04598
2697.54300 0.04617
2696.25723 0.04661
2694.97146 0.04708
2693.68569 0.04739
2692.39992 0.04746
2691.11415 0.04731
2689.82839 0.04707
2688.54262 0.04688
2687.25685 0.04680
2685.97108 0.04676
2684.68531 0.04659
2683.39954 0.04624
2682.11377 0.04587
2680.82800 0.04564
2679.54224 0.04551
2678.25647 0.04536
2676.97070 0.04519
2675.68493 0.04509
2674.39916 0.04512
2673.11339 0.04518
2671.82762 0.04520
2670.54185 0.04515
2669.25608 0.04504
2667.97032 0.04495
2666.68455 0.04496
2665.39878 0.04505
2664.11301 0.04512
2662.82724 0.04507
2661.54147 0.04495
2660.25570 0.04483
2658.96993 0.04474
2657.68417 0.04467
2656.39840 0.04458
2655.11263 0.04448
2653.82686 0.04438
2652.54109 0.04425
2651.25532 0.04406
2649.96955 0.04380
2648.68378 0.04354
2647.39801 0.04330
2646.11225 0.04311
2644.82648 0.04298
2643.54071 0.04289
2642.25494 0.04279
2640.96917 0.04263
2639.68340 0.04238
2638.39763 0.04206
2637.11186 0.04171
2635.82609 0.04139
2634.54033 0.04111
2633.25456 0.04083
2631.96879 0.04049
2630.68302 0.04018
2629.39725 0.04004
2628.11148 0.04013
2626.82571 0.04035
2625.53994 0.04059
2624.25418 0.04076
2622.96841 0.04070
2621.68264 0.04032
2620.39687 0.03980
2619.11110 0.03947
2617.82533 0.03942
2616.53956 0.03952
2615.25379 0.03960
2613.96802 0.03961
2612.68226 0.03951
2611.39649 0.03924
2610.11072 0.03888
2608.82495 0.03865
2607.53918 0.03873
2606.25341 0.03901
2604.96764 0.03920
2603.68187 0.03905
2602.39611 0.03859
2601.11034 0.03804
2599.82457 0.03767
2598.53880 0.03751
2597.25303 0.03745
2595.96726 0.03731
2594.68149 0.03710
2593.39572 0.03700
2592.10995 0.03724
2590.82419 0.03779
2589.53842 0.03829
2588.25265 0.03828
2586.96688 0.03773
2585.68111 0.03714
2584.39534 0.03701
2583.10957 0.03726
2581.82380 0.03738
2580.53804 0.03704
2579.25227 0.03649
2577.96650 0.03619
2576.68073 0.03633
2575.39496 0.03667
2574.10919 0.03684
2572.82342 0.03667
2571.53765 0.03630
2570.25188 0.03601
2568.96612 0.03609
2567.68035 0.03658
2566.39458 0.03725
2565.10881 0.03766
2563.82304 0.03751
2562.53727 0.03685
2561.25150 0.03601
2559.96573 0.03535
2558.67997 0.03499
2557.39420 0.03484
2556.10843 0.03480
2554.82266 0.03484
2553.53689 0.03497
2552.25112 0.03510
2550.96535 0.03509
2549.67958 0.03491
2548.39381 0.03462
2547.10805 0.03434
2545.82228 0.03413
2544.53651 0.03401
2543.25074 0.03407
2541.96497 0.03435
2540.67920 0.03476
2539.39343 0.03501
2538.10766 0.03487
2536.82190 0.03441
2535.53613 0.03393
2534.25036 0.03371
2532.96459 0.03389
2531.67882 0.03442
2530.39305 0.03512
2529.10728 0.03571
2527.82151 0.03594
2526.53574 0.03573
2525.24998 0.03515
2523.96421 0.03441
2522.67844 0.03382
2521.39267 0.03358
2520.10690 0.03360
2518.82113 0.03365
2517.53536 0.03363
2516.24959 0.03363
2514.96383 0.03363
2513.67806 0.03345
2512.39229 0.03305
2511.10652 0.03272
2509.82075 0.03283
2508.53498 0.03339
2507.24921 0.03404
2505.96344 0.03435
2504.67767 0.03417
2503.39191 0.03370
2502.10614 0.03333
2500.82037 0.03329
2499.53460 0.03347
2498.24883 0.03364
2496.96306 0.03362
2495.67729 0.03342
2494.39152 0.03317
2493.10576 0.03309
2491.81999 0.03327
2490.53422 0.03356
2489.24845 0.03368
2487.96268 0.03351
2486.67691 0.03321
2485.39114 0.03296
2484.10537 0.03282
2482.81960 0.03280
2481.53384 0.03292
2480.24807 0.03314
2478.96230 0.03330
2477.67653 0.03321
2476.39076 0.03288
2475.10499 0.03251
2473.81922 0.03233
2472.53345 0.03247
2471.24769 0.03287
2469.96192 0.03329
2468.67615 0.03347
2467.39038 0.03340
2466.10461 0.03320
2464.81884 0.03307
2463.53307 0.03310
2462.24730 0.03315
2460.96153 0.03303
2459.67577 0.03269
2458.39000 0.03230
2457.10423 0.03200
2455.81846 0.03175
2454.53269 0.03147
2453.24692 0.03129
2451.96115 0.03144
2450.67538 0.03193
2449.38962 0.03246
2448.10385 0.03274
2446.81808 0.03263
2445.53231 0.03215
2444.24654 0.03151
2442.96077 0.03095
2441.67500 0.03060
2440.38923 0.03036
2439.10346 0.03011
2437.81770 0.02991
2436.53193 0.02997
2435.24616 0.03038
2433.96039 0.03098
2432.67462 0.03147
2431.38885 0.03163
2430.10308 0.03146
2428.81731 0.03115
2427.53155 0.03093
2426.24578 0.03089
2424.96001 0.03098
2423.67424 0.03112
2422.38847 0.03129
2421.10270 0.03149
2419.81693 0.03171
2418.53116 0.03188
2417.24539 0.03196
2415.95963 0.03197
2414.67386 0.03193
2413.38809 0.03192
2412.10232 0.03194
2410.81655 0.03196
2409.53078 0.03195
2408.24501 0.03192
2406.95924 0.03188
2405.67347 0.03182
2404.38771 0.03174
2403.10194 0.03166
2401.81617 0.03151
2400.53040 0.03122
2399.24463 0.03068
2397.95886 0.03018
2396.67309 0.02994
2395.38732 0.03000
2394.10156 0.03038
2392.81579 0.03099
2391.53002 0.03163
2390.24425 0.03207
2388.95848 0.03220
2387.67271 0.03209
2386.38694 0.03188
2385.10117 0.03170
2383.81540 0.03160
2382.52964 0.03149
2381.24387 0.03126
2379.95810 0.03089
2378.67233 0.03059
2377.38656 0.03055
2376.10079 0.03080
2374.81502 0.03118
2373.52925 0.03153
2372.24349 0.03179
2370.95772 0.03194
2369.67195 0.03193
2368.38618 0.03177
2367.10041 0.03156
2365.81464 0.03145
2364.52887 0.03151
2363.24310 0.03173
2361.95733 0.03204
2360.67157 0.03234
2359.38580 0.03257
2358.10003 0.03275
2356.81426 0.03293
2355.52849 0.03305
2354.24272 0.03297
2352.95695 0.03268
2351.67118 0.03231
2350.38542 0.03202
2349.09965 0.03193
2347.81388 0.03201
2346.52811 0.03216
2345.24234 0.03219
2343.95657 0.03206
2342.67080 0.03189
2341.38503 0.03194
2340.09926 0.03217
2338.81350 0.03227
2337.52773 0.03212
2336.24196 0.03191
2334.95619 0.03163
2333.67042 0.03110
2332.38465 0.03047
2331.09888 0.03006
2329.81311 0.02981
2328.52735 0.02961
2327.24158 0.02977
2325.95581 0.03026
2324.67004 0.03076
2323.38427 0.03128
2322.09850 0.03174
2320.81273 0.03195
2319.52696 0.03196
2318.24119 0.03175
2316.95543 0.03130
2315.66966 0.03091
2314.38389 0.03077
2313.09812 0.03086
2311.81235 0.03109
2310.52658 0.03124
2309.24081 0.03118
2307.95504 0.03095
2306.66928 0.03055
2305.38351 0.03004
2304.09774 0.02938
2302.81197 0.02863
2301.52620 0.02794
2300.24043 0.02753
2298.95466 0.02747
2297.66889 0.02762
2296.38312 0.02770
2295.09736 0.02756
2293.81159 0.02730
2292.52582 0.02715
2291.24005 0.02720
2289.95428 0.02731
2288.66851 0.02724
2287.38274 0.02679
2286.09697 0.02600
2284.81121 0.02515
2283.52544 0.02466
2282.23967 0.02470
2280.95390 0.02517
2279.66813 0.02583
2278.38236 0.02647
2277.09659 0.02683
2275.81082 0.02670
2274.52505 0.02615
2273.23929 0.02551
2271.95352 0.02515
2270.66775 0.02524
2269.38198 0.02571
2268.09621 0.02629
2266.81044 0.02659
2265.52467 0.02641
2264.23890 0.02594
2262.95314 0.02543
2261.66737 0.02488
2260.38160 0.02406
2259.09583 0.02288
2257.81006 0.02164
2256.52429 0.02086
2255.23852 0.02083
2253.95275 0.02124
2252.66698 0.02135
2251.38122 0.02069
2250.09545 0.01983
2248.80968 0.01984
2247.52391 0.02019
2246.23814 0.02141
2244.95237 0.02270
2243.66660 0.02316
2242.38083 0.02246
2241.09507 0.02107
2239.80930 0.01981
2238.52353 0.01935
2237.23776 0.01992
2235.95199 0.02125
2234.66622 0.02275
2233.38045 0.02367
2232.09468 0.02349
2230.80891 0.02227
2229.52315 0.02081
2228.23738 0.02009
2226.95161 0.02052
2225.66584 0.02158
2224.38007 0.02229
2223.09430 0.02202
2221.80853 0.02099
2220.52276 0.01997
2219.23700 0.01961
2217.95123 0.01995
2216.66546 0.02053
2215.37969 0.02092
2214.09392 0.02090
2212.80815 0.02034
2211.52238 0.01922
2210.23661 0.01791
2208.95084 0.01719
2207.66508 0.01759
2206.37931 0.01873
2205.09354 0.01952
2203.80777 0.01909
2202.52200 0.01761
2201.23623 0.01615
2199.95046 0.01570
2198.66469 0.01636
2197.37893 0.01750
2196.09316 0.01832
2194.80739 0.01825
2193.52162 0.01719
2192.23585 0.01559
2190.95008 0.01428
2189.66431 0.01382
2188.37854 0.01408
2187.09277 0.01458
2185.80701 0.01509
2184.52124 0.01580
2183.23547 0.01671
2181.94970 0.01733
2180.66393 0.01712
2179.37816 0.01617
2178.09239 0.01503
2176.80662 0.01406
2175.52085 0.01328
2174.23509 0.01261
2172.94932 0.01209
2171.66355 0.01174
2170.37778 0.01162
2169.09201 0.01189
2167.80624 0.01247
2166.52047 0.01281
2165.23470 0.01234
2163.94894 0.01140
2162.66317 0.01100
2161.37740 0.01157
2160.09163 0.01236
2158.80586 0.01247
2157.52009 0.01199
2156.23432 0.01171
2154.94855 0.01195
2153.66278 0.01241
2152.37702 0.01289
2151.09125 0.01355
2149.80548 0.01447
2148.51971 0.01539
2147.23394 0.01593
2145.94817 0.01610
2144.66240 0.01621
2143.37663 0.01649
2142.09087 0.01686
2140.80510 0.01719
2139.51933 0.01748
2138.23356 0.01765
2136.94779 0.01748
2135.66202 0.01689
2134.37625 0.01620
2133.09048 0.01586
2131.80471 0.01590
2130.51895 0.01600
2129.23318 0.01603
2127.94741 0.01628
2126.66164 0.01697
2125.37587 0.01785
2124.09010 0.01843
2122.80433 0.01852
2121.51856 0.01834
2120.23280 0.01822
2118.94703 0.01830
2117.66126 0.01851
2116.37549 0.01865
2115.08972 0.01858
2113.80395 0.01836
2112.51818 0.01827
2111.23241 0.01842
2109.94664 0.01866
2108.66088 0.01870
2107.37511 0.01844
2106.08934 0.01796
2104.80357 0.01732
2103.51780 0.01665
2102.23203 0.01611
2100.94626 0.01591
2099.66049 0.01713
2098.37473 0.01786
2097.08896 0.01799
2095.80319 0.01799
2094.51742 0.01790
2093.23165 0.01768
2091.94588 0.01737
2090.66011 0.01708
2089.37434 0.01688
2088.08857 0.01673
2086.80281 0.01662
2085.51704 0.01650
2084.23127 0.01635
2082.94550 0.01612
2081.65973 0.01586
2080.37396 0.01571
2079.08819 0.01571
2077.80242 0.01580
2076.51666 0.01590
2075.23089 0.01609
2073.94512 0.01648
2072.65935 0.01697
2071.37358 0.01724
2070.08781 0.01709
2068.80204 0.01667
2067.51627 0.01634
2066.23050 0.01627
2064.94474 0.01633
2063.65897 0.01621
2062.37320 0.01574
2061.08743 0.01498
2059.80166 0.01416
2058.51589 0.01346
2057.23012 0.01290
2055.94435 0.01235
2054.65859 0.01176
2053.37282 0.01127
2052.08705 0.01118
2050.80128 0.01163
2049.51551 0.01242
2048.22974 0.01301
2046.94397 0.01292
2045.65820 0.01205
2044.37243 0.01078
2043.08667 0.00970
2041.80090 0.00921
2040.51513 0.00926
2039.22936 0.00953
2037.94359 0.00959
2036.65782 0.00926
2035.37205 0.00878
2034.08628 0.00866
2032.80052 0.00936
2031.51475 0.01074
2030.22898 0.01207
2028.94321 0.01261
2027.65744 0.01232
2026.37167 0.01186
2025.08590 0.01177
2023.80013 0.01183
2022.51436 0.01143
2021.22860 0.01043
2019.94283 0.00938
2018.65706 0.00899
2017.37129 0.00952
2016.08552 0.01056
2014.79975 0.01140
2013.51398 0.01158
2012.22821 0.01130
2010.94245 0.01124
2009.65668 0.01189
2008.37091 0.01306
2007.08514 0.01408
2005.79937 0.01438
2004.51360 0.01383
2003.22783 0.01277
2001.94206 0.01181
2000.65629 0.01151
1999.37053 0.01197
1998.08476 0.01277
1996.79899 0.01325
1995.51322 0.01306
1994.22745 0.01237
1992.94168 0.01175
1991.65591 0.01170
1990.37014 0.01223
1989.08438 0.01286
1987.79861 0.01311
1986.51284 0.01298
1985.22707 0.01282
1983.94130 0.01297
1982.65553 0.01348
1981.36976 0.01429
1980.08399 0.01531
1978.79822 0.01642
1977.51246 0.01732
1976.22669 0.01782
1974.94092 0.01797
1973.65515 0.01801
1972.36938 0.01808
1971.08361 0.01814
1969.79784 0.01817
1968.51207 0.01816
1967.22631 0.01803
1965.94054 0.01755
1964.65477 0.01661
1963.36900 0.01545
1962.08323 0.01448
1960.79746 0.01389
1959.51169 0.01360
1958.22592 0.01349
1956.94015 0.01356
1955.65439 0.01387
1954.36862 0.01439
1953.08285 0.01503
1951.79708 0.01564
1950.51131 0.01602
1949.22554 0.01595
1947.93977 0.01557
1946.65400 0.01535
1945.36823 0.01570
1944.08247 0.01657
1942.79670 0.01744
1941.51093 0.01782
1940.22516 0.01759
1938.93939 0.01700
1937.65362 0.01649
1936.36785 0.01634
1935.08208 0.01658
1933.79632 0.01696
1932.51055 0.01716
1931.22478 0.01703
1929.93901 0.01674
1928.65324 0.01660
1927.36747 0.01676
1926.08170 0.01703
1924.79593 0.01708
1923.51016 0.01680
1922.22440 0.01638
1920.93863 0.01615
1919.65286 0.01623
1918.36709 0.01649
1917.08132 0.01674
1915.79555 0.01694
1914.50978 0.01716
1913.22401 0.01742
1911.93825 0.01758
1910.65248 0.01754
1909.36671 0.01742
1908.08094 0.01748
1906.79517 0.01785
1905.50940 0.01831
1904.22363 0.01853
1902.93786 0.01838
1901.65209 0.01808
1900.36633 0.01795
1899.08056 0.01808
1897.79479 0.01829
1896.50902 0.01835
1895.22325 0.01828
1893.93748 0.01823
1892.65171 0.01829
1891.36594 0.01832
1890.08018 0.01820
1888.79441 0.01796
1887.50864 0.01772
1886.22287 0.01758
1884.93710 0.01757
1883.65133 0.01770
1882.36556 0.01789
1881.07979 0.01798
1879.79402 0.01785
1878.50826 0.01760
1877.22249 0.01748
1875.93672 0.01765
1874.65095 0.01804
1873.36518 0.01834
1872.07941 0.01833
1870.79364 0.01804
1869.50787 0.01775
1868.22211 0.01765
1866.93634 0.01773
1865.65057 0.01788
1864.36480 0.01809
1863.07903 0.01841
1861.79326 0.01879
1860.50749 0.01909
1859.22172 0.01919
1857.93595 0.01914
1856.65019 0.01903
1855.36442 0.01893
1854.07865 0.01889
1852.79288 0.01891
1851.50711 0.01897
1850.22134 0.01899
1848.93557 0.01891
1847.64980 0.01875
1846.36404 0.01852
1845.07827 0.01826
1843.79250 0.01807
1842.50673 0.01796
1841.22096 0.01784
1839.93519 0.01771
1838.64942 0.01760
1837.36365 0.01755
1836.07788 0.01753
1834.79212 0.01757
1833.50635 0.01768
1832.22058 0.01780
1830.93481 0.01786
1829.64904 0.01793
1828.36327 0.01808
1827.07750 0.01830
1825.79173 0.01855
1824.50597 0.01875
1823.22020 0.01888
1821.93443 0.01893
1820.64866 0.01897
1819.36289 0.01899
1818.07712 0.01892
1816.79135 0.01870
1815.50558 0.01841
1814.21981 0.01813
1812.93405 0.01791
1811.64828 0.01777
1810.36251 0.01769
1809.07674 0.01768
1807.79097 0.01772
1806.50520 0.01778
1805.21943 0.01782
1803.93366 0.01782
1802.64790 0.01781
1801.36213 0.01779
1800.07636 0.01781
1798.79059 0.01789
1797.50482 0.01805
1796.21905 0.01826
1794.93328 0.01842
1793.64751 0.01847
1792.36174 0.01846
1791.07598 0.01845
1789.79021 0.01841
1788.50444 0.01831
1787.21867 0.01821
1785.93290 0.01818
1784.64713 0.01823
1783.36136 0.01828
1782.07559 0.01825
1780.78983 0.01819
1779.50406 0.01818
1778.21829 0.01825
1776.93252 0.01837
1775.64675 0.01846
1774.36098 0.01845
1773.07521 0.01834
1771.78944 0.01826
1770.50367 0.01821
1769.21791 0.01815
1767.93214 0.01816
1766.64637 0.01830
1765.36060 0.01849
1764.07483 0.01855
1762.78906 0.01848
1761.50329 0.01842
1760.21752 0.01843
1758.93176 0.01849
1757.64599 0.01857
1756.36022 0.01872
1755.07445 0.01888
1753.78868 0.01888
1752.50291 0.01869
1751.21714 0.01847
1749.93137 0.01838
1748.64560 0.01839
1747.35984 0.01843
1746.07407 0.01849
1744.78830 0.01859
1743.50253 0.01872
1742.21676 0.01886
1740.93099 0.01896
1739.64522 0.01905
1738.35945 0.01920
1737.07369 0.01934
1735.78792 0.01937
1734.50215 0.01943
1733.21638 0.01962
1731.93061 0.01983
1730.64484 0.01987
1729.35907 0.01979
1728.07330 0.01976
1726.78753 0.01983
1725.50177 0.01992
1724.21600 0.02003
1722.93023 0.02021
1721.64446 0.02046
1720.35869 0.02071
1719.07292 0.02089
1717.78715 0.02115
1716.50138 0.02154
1715.21561 0.02195
1713.92985 0.02226
1712.64408 0.02254
1711.35831 0.02292
1710.07254 0.02342
1708.78677 0.02394
1707.50100 0.02441
1706.21523 0.02491
1704.92946 0.02562
1703.64370 0.02657
1702.35793 0.02756
1701.07216 0.02856
1699.78639 0.02968
1698.50062 0.03076
1697.21485 0.03151
1695.92908 0.03208
1694.64331 0.03283
1693.35754 0.03370
1692.07178 0.03445
1690.78601 0.03517
1689.50024 0.03608
1688.21447 0.03718
1686.92870 0.03826
1685.64293 0.03926
1684.35716 0.04034
1683.07139 0.04154
1681.78563 0.04261
1680.49986 0.04347
1679.21409 0.04431
1677.92832 0.04527
1676.64255 0.04629
1675.35678 0.04737
1674.07101 0.04852
1672.78524 0.04963
1671.49947 0.05057
1670.21371 0.05144
1668.92794 0.05233
1667.64217 0.05325
1666.35640 0.05411
1665.07063 0.05488
1663.78486 0.05562
1662.49909 0.05643
1661.21332 0.05728
1659.92756 0.05809
1658.64179 0.05887
1657.35602 0.05966
1656.07025 0.06037
1654.78448 0.06090
1653.49871 0.06141
1652.21294 0.06210
1650.92717 0.06281
1649.64140 0.06316
1648.35564 0.06317
1647.06987 0.06319
1645.78410 0.06341
1644.49833 0.06372
1643.21256 0.06388
1641.92679 0.06380
1640.64102 0.06362
1639.35525 0.06345
1638.06949 0.06325
1636.78372 0.06296
1635.49795 0.06265
1634.21218 0.06233
1632.92641 0.06187
1631.64064 0.06122
1630.35487 0.06049
1629.06910 0.05981
1627.78333 0.05920
1626.49757 0.05861
1625.21180 0.05796
1623.92603 0.05726
1622.64026 0.05663
1621.35449 0.05609
1620.06872 0.05561
1618.78295 0.05509
1617.49718 0.05458
1616.21142 0.05418
1614.92565 0.05382
1613.63988 0.05337
1612.35411 0.05283
1611.06834 0.05235
1609.78257 0.05198
1608.49680 0.05169
1607.21103 0.05143
1605.92526 0.05124
1604.63950 0.05112
1603.35373 0.05104
1602.06796 0.05097
1600.78219 0.05093
1599.49642 0.05094
1598.21065 0.05102
1596.92488 0.05112
1595.63911 0.05120
1594.35335 0.05125
1593.06758 0.05130
1591.78181 0.05137
1590.49604 0.05145
1589.21027 0.05153
1587.92450 0.05163
1586.63873 0.05177
1585.35296 0.05195
1584.06719 0.05211
1582.78143 0.05224
1581.49566 0.05238
1580.20989 0.05266
1578.92412 0.05305
1577.63835 0.05348
1576.35258 0.05401
1575.06681 0.05470
1573.78104 0.05542
1572.49528 0.05597
1571.20951 0.05644
1569.92374 0.05696
1568.63797 0.05756
1567.35220 0.05810
1566.06643 0.05851
1564.78066 0.05893
1563.49489 0.05946
1562.20912 0.05999
1560.92336 0.06034
1559.63759 0.06063
1558.35182 0.06104
1557.06605 0.06149
1555.78028 0.06170
1554.49451 0.06169
1553.20874 0.06165
1551.92297 0.06163
1550.63721 0.06156
1549.35144 0.06146
1548.06567 0.06133
1546.77990 0.06109
1545.49413 0.06075
1544.20836 0.06042
1542.92259 0.06014
1541.63682 0.05988
1540.35105 0.05964
1539.06529 0.05953
1537.77952 0.05958
1536.49375 0.05963
1535.20798 0.05961
1533.92221 0.05964
1532.63644 0.05981
1531.35067 0.06003
1530.06490 0.06019
1528.77914 0.06032
1527.49337 0.06046
1526.20760 0.06065
1524.92183 0.06090
1523.63606 0.06111
1522.35029 0.06126
1521.06452 0.06148
1519.77875 0.06180
1518.49298 0.06210
1517.20722 0.06236
1515.92145 0.06270
1514.63568 0.06313
1513.34991 0.06358
1512.06414 0.06409
1510.77837 0.06470
1509.49260 0.06534
1508.20683 0.06589
1506.92107 0.06639
1505.63530 0.06693
1504.34953 0.06744
1503.06376 0.06781
1501.77799 0.06805
1500.49222 0.06833
1499.20645 0.06865
1497.92068 0.06894
1496.63491 0.06918
1495.34915 0.06944
1494.06338 0.06969
1492.77761 0.06983
1491.49184 0.06992
1490.20607 0.07008
1488.92030 0.07038
1487.63453 0.07079
1486.34876 0.07129
1485.06299 0.07187
1483.77723 0.07254
1482.49146 0.07329
1481.20569 0.07412
1479.91992 0.07497
1478.63415 0.07576
1477.34838 0.07642
1476.06261 0.07697
1474.77684 0.07744
1473.49108 0.07795
1472.20531 0.07863
1470.91954 0.07948
1469.63377 0.08033
1468.34800 0.08105
1467.06223 0.08166
1465.77646 0.08228
1464.49069 0.08301
1463.20492 0.08394
1461.91916 0.08503
1460.63339 0.08621
1459.34762 0.08736
1458.06185 0.08842
1456.77608 0.08943
1455.49031 0.09039
1454.20454 0.09115
1452.91877 0.09165
1451.63301 0.09200
1450.34724 0.09227
1449.06147 0.09240
1447.77570 0.09239
1446.48993 0.09230
1445.20416 0.09216
1443.91839 0.09200
1442.63262 0.09182
1441.34685 0.09164
1440.06109 0.09140
1438.77532 0.09108
1437.48955 0.09078
1436.20378 0.09069
1434.91801 0.09086
1433.63224 0.09120
1432.34647 0.09163
1431.06070 0.09221
1429.77494 0.09300
1428.48917 0.09395
1427.20340 0.09496
1425.91763 0.09597
1424.63186 0.09699
1423.34609 0.09809
1422.06032 0.09919
1420.77455 0.10015
1419.48878 0.10101
1418.20302 0.10183
1416.91725 0.10258
1415.63148 0.10319
1414.34571 0.10362
1413.05994 0.10390
1411.77417 0.10401
1410.48840 0.10393
1409.20263 0.10365
1407.91687 0.10318
1406.63110 0.10251
1405.34533 0.10167
1404.05956 0.10066
1402.77379 0.09945
1401.48802 0.09804
1400.20225 0.09650
1398.91648 0.09492
1397.63071 0.09331
1396.34495 0.09156
1395.05918 0.08969
1393.77341 0.08783
1392.48764 0.08606
1391.20187 0.08436
1389.91610 0.08269
1388.63033 0.08101
1387.34456 0.07938
1386.05880 0.07776
1384.77303 0.07611
1383.48726 0.07445
1382.20149 0.07283
1380.91572 0.07130
1379.62995 0.06980
1378.34418 0.06830
1377.05841 0.06676
1375.77264 0.06516
1374.48688 0.06350
1373.20111 0.06181
1371.91534 0.06010
1370.62957 0.05844
1369.34380 0.05686
1368.05803 0.05543
1366.77226 0.05414
1365.48649 0.05292
1364.20073 0.05176
1362.91496 0.05062
1361.62919 0.04952
1360.34342 0.04845
1359.05765 0.04746
1357.77188 0.04657
1356.48611 0.04580
1355.20034 0.04511
1353.91457 0.04448
1352.62881 0.04390
1351.34304 0.04337
1350.05727 0.04287
1348.77150 0.04241
1347.48573 0.04196
1346.19996 0.04152
1344.91419 0.04110
1343.62842 0.04071
1342.34266 0.04036
1341.05689 0.04005
1339.77112 0.03978
1338.48535 0.03950
1337.19958 0.03921
1335.91381 0.03887
1334.62804 0.03845
1333.34227 0.03797
1332.05650 0.03747
1330.77074 0.03701
1329.48497 0.03662
1328.19920 0.03628
1326.91343 0.03595
1325.62766 0.03564
1324.34189 0.03535
1323.05612 0.03509
1321.77035 0.03482
1320.48459 0.03452
1319.19882 0.03418
1317.91305 0.03382
1316.62728 0.03348
1315.34151 0.03320
1314.05574 0.03295
1312.76997 0.03267
1311.48420 0.03233
1310.19843 0.03195
1308.91267 0.03160
1307.62690 0.03133
1306.34113 0.03113
1305.05536 0.03094
1303.76959 0.03075
1302.48382 0.03055
1301.19805 0.03036
1299.91228 0.03019
1298.62652 0.03002
1297.34075 0.02985
1296.05498 0.02970
1294.76921 0.02954
1293.48344 0.02939
1292.19767 0.02925
1290.91190 0.02912
1289.62613 0.02900
1288.34036 0.02887
1287.05460 0.02876
1285.76883 0.02869
1284.48306 0.02865
1283.19729 0.02859
1281.91152 0.02850
1280.62575 0.02837
1279.33998 0.02824
1278.05421 0.02812
1276.76845 0.02801
1275.48268 0.02788
1274.19691 0.02773
1272.91114 0.02757
1271.62537 0.02741
1270.33960 0.02729
1269.05383 0.02721
1267.76806 0.02713
1266.48229 0.02704
1265.19653 0.02693
1263.91076 0.02687
1262.62499 0.02688
1261.33922 0.02693
1260.05345 0.02697
1258.76768 0.02696
1257.48191 0.02689
1256.19614 0.02678
1254.91037 0.02667
1253.62461 0.02658
1252.33884 0.02652
1251.05307 0.02647
1249.76730 0.02642
1248.48153 0.02636
1247.19576 0.02630
1245.90999 0.02625
1244.62422 0.02621
1243.33846 0.02616
1242.05269 0.02610
1240.76692 0.02601
1239.48115 0.02591
1238.19538 0.02577
1236.90961 0.02559
1235.62384 0.02539
1234.33807 0.02519
1233.05230 0.02502
1231.76654 0.02491
1230.48077 0.02481
1229.19500 0.02469
1227.90923 0.02451
1226.62346 0.02427
1225.33769 0.02398
1224.05192 0.02367
1222.76615 0.02338
1221.48039 0.02314
1220.19462 0.02296
1218.90885 0.02279
1217.62308 0.02260
1216.33731 0.02236
1215.05154 0.02209
1213.76577 0.02185
1212.48000 0.02168
1211.19423 0.02158
1209.90847 0.02153
1208.62270 0.02150
1207.33693 0.02149
1206.05116 0.02149
1204.76539 0.02154
1203.47962 0.02161
1202.19385 0.02164
1200.90808 0.02151
1199.62232 0.02121
1198.33655 0.02103
1197.05078 0.02088
1195.76501 0.02077
1194.47924 0.02070
1193.19347 0.02061
1191.90770 0.02044
1190.62193 0.02020
1189.33616 0.01996
1188.05040 0.01981
1186.76463 0.01976
1185.47886 0.01977
1184.19309 0.01974
1182.90732 0.01965
1181.62155 0.01952
1180.33578 0.01939
1179.05001 0.01929
1177.76425 0.01924
1176.47848 0.01927
1175.19271 0.01939
1173.90694 0.01955
1172.62117 0.01972
1171.33540 0.01986
1170.04963 0.01998
1168.76386 0.02008
1167.47809 0.02018
1166.19233 0.02029
1164.90656 0.02044
1163.62079 0.02066
1162.33502 0.02094
1161.04925 0.02124
1159.76348 0.02150
1158.47771 0.02172
1157.19194 0.02189
1155.90618 0.02207
1154.62041 0.02229
1153.33464 0.02256
1152.04887 0.02287
1150.76310 0.02325
1149.47733 0.02372
1148.19156 0.02428
1146.90579 0.02486
1145.62002 0.02540
1144.33426 0.02594
1143.04849 0.02657
1141.76272 0.02737
1140.47695 0.02832
1139.19118 0.02933
1137.90541 0.03035
1136.61964 0.03144
1135.33387 0.03266
1134.04811 0.03401
1132.76234 0.03546
1131.47657 0.03701
1130.19080 0.03874
1128.90503 0.04073
1127.61926 0.04304
1126.33349 0.04566
1125.04772 0.04848
1123.76195 0.05141
1122.47619 0.05436
1121.19042 0.05734
1119.90465 0.06039
1118.61888 0.06350
1117.33311 0.06665
1116.04734 0.06979
1114.76157 0.07285
1113.47580 0.07579
1112.19004 0.07865
1110.90427 0.08150
1109.61850 0.08439
1108.33273 0.08728
1107.04696 0.09011
1105.76119 0.09283
1104.47542 0.09543
1103.18965 0.09792
1101.90388 0.10031
1100.61812 0.10263
1099.33235 0.10493
1098.04658 0.10722
1096.76081 0.10941
1095.47504 0.11142
1094.18927 0.11326
1092.90350 0.11496
1091.61773 0.11659
1090.33197 0.11815
1089.04620 0.11962
1087.76043 0.12101
1086.47466 0.12238
1085.18889 0.12384
1083.90312 0.12546
1082.61735 0.12726
1081.33158 0.12920
1080.04581 0.13125
1078.76005 0.13336
1077.47428 0.13552
1076.18851 0.13774
1074.90274 0.14003
1073.61697 0.14240
1072.33120 0.14489
1071.04543 0.14749
1069.75966 0.15015
1068.47390 0.15282
1067.18813 0.15550
1065.90236 0.15820
1064.61659 0.16098
1063.33082 0.16385
1062.04505 0.16680
1060.75928 0.16976
1059.47351 0.17269
1058.18774 0.17556
1056.90198 0.17838
1055.61621 0.18115
1054.33044 0.18387
1053.04467 0.18653
1051.75890 0.18921
1050.47313 0.19197
1049.18736 0.19484
1047.90159 0.19779
1046.61583 0.20080
1045.33006 0.20392
1044.04429 0.20717
1042.75852 0.21055
1041.47275 0.21398
1040.18698 0.21740
1038.90121 0.22077
1037.61544 0.22409
1036.32967 0.22738
1035.04391 0.23067
1033.75814 0.23394
1032.47237 0.23704
1031.18660 0.23985
1029.90083 0.24234
1028.61506 0.24451
1027.32929 0.24637
1026.04352 0.24790
1024.75775 0.24915
1023.47199 0.25010
1022.18622 0.25072
1020.90045 0.25094
1019.61468 0.25076
1018.32891 0.25019
1017.04314 0.24923
1015.75737 0.24788
1014.47160 0.24614
1013.18584 0.24407
1011.90007 0.24169
1010.61430 0.23897
1009.32853 0.23591
1008.04276 0.23253
1006.75699 0.22884
1005.47122 0.22484
1004.18545 0.22053
1002.89968 0.21600
1001.61392 0.21134
1000.32815 0.20659
999.04238 0.20167
997.75661 0.19650
996.47084 0.19111
995.18507 0.18561
993.89930 0.18013
992.61353 0.17471
991.32777 0.16932
990.04200 0.16393
988.75623 0.15861
987.47046 0.15344
986.18469 0.14848
984.89892 0.14375
983.61315 0.13923
982.32738 0.13484
981.04161 0.13057
979.75585 0.12650
978.47008 0.12271
977.18431 0.11926
975.89854 0.11612
974.61277 0.11330
973.32700 0.11083
972.04123 0.10879
970.75546 0.10721
969.46970 0.10610
968.18393 0.10549
966.89816 0.10539
965.61239 0.10565
964.32662 0.10609
963.04085 0.10650
961.75508 0.10673
960.46931 0.10665
959.18354 0.10610
957.89778 0.10499
956.61201 0.10340
955.32624 0.10149
954.04047 0.09948
952.75470 0.09744
951.46893 0.09540
950.18316 0.09333
948.89739 0.09124
947.61163 0.08917
946.32586 0.08717
945.04009 0.08525
943.75432 0.08336
942.46855 0.08145
941.18278 0.07952
939.89701 0.07761
938.61124 0.07582
937.32547 0.07418
936.03971 0.07270
934.75394 0.07137
933.46817 0.07014
932.18240 0.06899
930.89663 0.06786
929.61086 0.06671
928.32509 0.06554
927.03932 0.06443
925.75356 0.06343
924.46779 0.06258
923.18202 0.06182
921.89625 0.06108
920.61048 0.06031
919.32471 0.05953
918.03894 0.05876
916.75317 0.05801
915.46740 0.05724
914.18164 0.05644
912.89587 0.05569
911.61010 0.05509
910.32433 0.05462
909.03856 0.05418
907.75279 0.05366
906.46702 0.05311
905.18125 0.05265
903.89549 0.05228
902.60972 0.05196
901.32395 0.05157
900.03818 0.05109
898.75241 0.05057
897.46664 0.05009
896.18087 0.04971
894.89510 0.04938
893.60933 0.04904
892.32357 0.04869
891.03780 0.04839
889.75203 0.04823
888.46626 0.04833
887.18049 0.04880
885.89472 0.04969
884.60895 0.05107
883.32318 0.05305
882.03742 0.05551
880.75165 0.05807
879.46588 0.06020
878.18011 0.06167
876.89434 0.06271
875.60857 0.06374
874.32280 0.06488
873.03703 0.06593
871.75126 0.06650
870.46550 0.06640
869.17973 0.06566
867.89396 0.06444
866.60819 0.06292
865.32242 0.06121
864.03665 0.05938
862.75088 0.05749
861.46511 0.05566
860.17935 0.05400
858.89358 0.05260
857.60781 0.05145
856.32204 0.05049
855.03627 0.04960
853.75050 0.04875
852.46473 0.04798
851.17896 0.04739
849.89319 0.04694
848.60743 0.04654
847.32166 0.04607
846.03589 0.04554
844.75012 0.04507
843.46435 0.04470
842.17858 0.04440
840.89281 0.04409
839.60704 0.04376
838.32128 0.04344
837.03551 0.04314
835.74974 0.04287
834.46397 0.04260
833.17820 0.04233
831.89243 0.04205
830.60666 0.04177
829.32089 0.04149
828.03512 0.04122
826.74936 0.04100
825.46359 0.04088
824.17782 0.04084
822.89205 0.04082
821.60628 0.04078
820.32051 0.04072
819.03474 0.04065
817.74897 0.04060
816.46321 0.04055
815.17744 0.04051
813.89167 0.04046
812.60590 0.04041
811.32013 0.04030
810.03436 0.04013
808.74859 0.03994
807.46282 0.03981
806.17705 0.03976
804.89129 0.03976
803.60552 0.03976
802.31975 0.03975
801.03398 0.03968
799.74821 0.03952
798.46244 0.03929
797.17667 0.03907
795.89090 0.03895
794.60513 0.03894
793.31937 0.03895
792.03360 0.03893
790.74783 0.03888
789.46206 0.03883
788.17629 0.03880
786.89052 0.03875
785.60475 0.03869
784.31898 0.03863
783.03322 0.03855
781.74745 0.03844
780.46168 0.03836
779.17591 0.03842
777.89014 0.03862
776.60437 0.03884
775.31860 0.03894
774.03283 0.03888
772.74706 0.03875
771.46130 0.03868
770.17553 0.03867
768.88976 0.03867
767.60399 0.03864
766.31822 0.03859
765.03245 0.03852
763.74668 0.03842
762.46091 0.03833
761.17515 0.03835
759.88938 0.03854
758.60361 0.03885
757.31784 0.03911
756.03207 0.03918
754.74630 0.03902
753.46053 0.03876
752.17476 0.03855
750.88899 0.03845
749.60323 0.03845
748.31746 0.03850
747.03169 0.03855
745.74592 0.03854
744.46015 0.03843
743.17438 0.03826
741.88861 0.03810
740.60284 0.03802
739.31708 0.03800
738.03131 0.03800
736.74554 0.03801
735.45977 0.03809
734.17400 0.03829
732.88823 0.03855
731.60246 0.03878
730.31669 0.03885
729.03092 0.03877
727.74516 0.03860
726.45939 0.03847
725.17362 0.03837
723.88785 0.03809
722.60208 0.03812
721.31631 0.03836
720.03054 0.03866
718.74477 0.03897
717.45901 0.03922
716.17324 0.03932
714.88747 0.03923
713.60170 0.03897
712.31593 0.03866
711.03016 0.03841
709.74439 0.03824
708.45862 0.03814
707.17285 0.03805
705.88709 0.03796
704.60132 0.03790
703.31555 0.03788
702.02978 0.03787
700.74401 0.03784
699.45824 0.03779
698.17247 0.03777
696.88670 0.03780
695.60094 0.03788
694.31517 0.03798
693.02940 0.03802
691.74363 0.03802
690.45786 0.03800
689.17209 0.03798
687.88632 0.03794
686.60055 0.03782
685.31478 0.03764
684.02902 0.03743
682.74325 0.03723
681.45748 0.03707
680.17171 0.03694
678.88594 0.03684
677.60017 0.03679
676.31440 0.03679
675.02863 0.03686
673.74287 0.03699
672.45710 0.03718
671.17133 0.03742
669.88556 0.03768
668.59979 0.03785
667.31402 0.03785
666.02825 0.03770
664.74248 0.03747
663.45671 0.03722
662.17095 0.03701
660.88518 0.03685
659.59941 0.03671
658.31364 0.03660
657.02787 0.03648
655.74210 0.03635
654.45633 0.03619
653.17056 0.03601
651.88480 0.03583
650.59903 0.03570
649.31326 0.03563
648.02749 0.03562
646.74172 0.03564
645.45595 0.03569
644.17018 0.03572
642.88441 0.03571
641.59864 0.03560
640.31288 0.03543
639.02711 0.03527
637.74134 0.03520
636.45557 0.03525
635.16980 0.03541
633.88403 0.03565
632.59826 0.03589
631.31249 0.03622
630.02673 0.03734
628.74096 0.03932
627.45519 0.03956
626.16942 0.04282
624.88365 0.04821
623.59788 0.05337
622.31211 0.05683
621.02634 0.05793
619.74057 0.05709
618.45481 0.05575
617.16904 0.05546
615.88327 0.05689
614.59750 0.05972
613.31173 0.06358
612.02596 0.06863
610.74019 0.07493
609.45442 0.08142
608.16866 0.08654
606.88289 0.09018
605.59712 0.09357
604.31135 0.09735
603.02558 0.10054
601.73981 0.10186
600.45404 0.10112
599.16827 0.09912
597.88250 0.09655
596.59674 0.09375
595.31097 0.09092
594.02520 0.08836
592.73943 0.08631
591.45366 0.08480
590.16789 0.08378
588.88212 0.08322
587.59635 0.08322
586.31059 0.08382
585.02482 0.08496
583.73905 0.08652
582.45328 0.08837
581.16751 0.09044
579.88174 0.09267
578.59597 0.09500
577.31020 0.09732
576.02443 0.09958
574.73867 0.10180
573.45290 0.10410
572.16713 0.10660
570.88136 0.10938
569.59559 0.11245
568.30982 0.11579
567.02405 0.11930
565.73828 0.12281
564.45251 0.12604
563.16675 0.12859
561.88098 0.13001
560.59521 0.12998
559.30944 0.12845
558.02367 0.12561
556.73790 0.12174
555.45213 0.11712
554.16636 0.11212
552.88060 0.10712
551.59483 0.10240
550.30906 0.09800
549.02329 0.09385
547.73752 0.08993
546.45175 0.08629
545.16598 0.08304
543.88021 0.08018
542.59444 0.07759
541.30868 0.07515
540.02291 0.07283
538.73714 0.07068
537.45137 0.06874
536.16560 0.06695
534.87983 0.06525
533.59406 0.06361
532.30829 0.06205
531.02253 0.06060
529.73676 0.05920
528.45099 0.05780
527.16522 0.05643
525.87945 0.05517
524.59368 0.05408
523.30791 0.05310
522.02214 0.05215
520.73637 0.05118
519.45061 0.05021
518.16484 0.04929
516.87907 0.04841
515.59330 0.04755
514.30753 0.04669
513.02176 0.04585
511.73599 0.04505
510.45022 0.04430
509.16446 0.04357
507.87869 0.04283
506.59292 0.04211
505.30715 0.04145
504.02138 0.04091
502.73561 0.04045
501.44984 0.04003
500.16407 0.03962
498.87830 0.03922
497.59254 0.03884
496.30677 0.03844
495.02100 0.03798
493.73523 0.03749
492.44946 0.03699
491.16369 0.03654
489.87792 0.03617
488.59215 0.03590
487.30639 0.03577
486.02062 0.03574
484.73485 0.03572
483.44908 0.03564
482.16331 0.03546
480.87754 0.03523
479.59177 0.03502
478.30600 0.03490
477.02023 0.03488
475.73447 0.03495
474.44870 0.03508
473.16293 0.03520
471.87716 0.03529
470.59139 0.03534
469.30562 0.03534
468.01985 0.03528
466.73408 0.03510
465.44832 0.03481
464.16255 0.03448
462.87678 0.03416
461.59101 0.03388
460.30524 0.03356
459.01947 0.03319
457.73370 0.03276
456.44793 0.03232
455.16216 0.03191
453.87640 0.03156
452.59063 0.03129
451.30486 0.03108
450.01909 0.03086
448.73332 0.03058
447.44755 0.03024
446.16178 0.02991
444.87601 0.02963
443.59025 0.02943
442.30448 0.02929
441.01871 0.02918
439.73294 0.02905
438.44717 0.02891
437.16140 0.02876
435.87563 0.02866
434.58986 0.02865
433.30409 0.02874
432.01833 0.02884
430.73256 0.02886
429.44679 0.02873
428.16102 0.02848
426.87525 0.02821
425.58948 0.02800
424.30371 0.02788
423.01794 0.02783
421.73218 0.02781
420.44641 0.02777
419.16064 0.02772
417.87487 0.02767
416.58910 0.02759
415.30333 0.02747
414.01756 0.02734
412.73179 0.02728
411.44602 0.02730
410.16026 0.02737
408.87449 0.02744
407.58872 0.02746
406.30295 0.02747
405.01718 0.02751
403.73141 0.02757
402.44564 0.02764
401.15987 0.02769
399.87411 0.02773
