3997.45528	0.05333
3996.16951	0.05347
3994.88374	0.05326
3993.59798	0.05336
3992.31221	0.05409
3991.02644	0.05476
3989.74067	0.05446
3988.45490	0.05316
3987.16913	0.05180
3985.88336	0.05131
3984.59759	0.05171
3983.31183	0.05215
3982.02606	0.05177
3980.74029	0.05049
3979.45452	0.04894
3978.16875	0.04772
3976.88298	0.04697
3975.59721	0.04660
3974.31144	0.04672
3973.02567	0.04745
3971.73991	0.04858
3970.45414	0.04963
3969.16837	0.05024
3967.88260	0.05056
3966.59683	0.05098
3965.31106	0.05174
3964.02529	0.05269
3962.73952	0.05334
3961.45376	0.05330
3960.16799	0.05253
3958.88222	0.05134
3957.59645	0.05010
3956.31068	0.04915
3955.02491	0.04877
3953.73914	0.04919
3952.45337	0.05045
3951.16760	0.05216
3949.88184	0.05366
3948.59607	0.05427
3947.31030	0.05373
3946.02453	0.05243
3944.73876	0.05122
3943.45299	0.05082
3942.16722	0.05133
3940.88145	0.05216
3939.59569	0.05253
3938.30992	0.05215
3937.02415	0.05141
3935.73838	0.05098
3934.45261	0.05112
3933.16684	0.05154
3931.88107	0.05168
3930.59530	0.05134
3929.30953	0.05081
3928.02377	0.05062
3926.73800	0.05101
3925.45223	0.05172
3924.16646	0.05231
3922.88069	0.05268
3921.59492	0.05308
3920.30915	0.05367
3919.02338	0.05422
3917.73762	0.05423
3916.45185	0.05334
3915.16608	0.05170
3913.88031	0.04998
3912.59454	0.04891
3911.30877	0.04876
3910.02300	0.04917
3908.73723	0.04961
3907.45146	0.04982
3906.16570	0.04985
3904.87993	0.04966
3903.59416	0.04922
3902.30839	0.04869
3901.02262	0.04850
3899.73685	0.04885
3898.45108	0.04949
3897.16531	0.05007
3895.87955	0.05037
3894.59378	0.05030
3893.30801	0.04966
3892.02224	0.04839
3890.73647	0.04695
3889.45070	0.04626
3888.16493	0.04682
3886.87916	0.04811
3885.59339	0.04905
3884.30763	0.04933
3883.02186	0.04957
3881.73609	0.05027
3880.45032	0.05093
3879.16455	0.05069
3877.87878	0.04942
3876.59301	0.04770
3875.30724	0.04621
3874.02148	0.04542
3872.73571	0.04566
3871.44994	0.04690
3870.16417	0.04844
3868.87840	0.04939
3867.59263	0.04949
3866.30686	0.04916
3865.02109	0.04895
3863.73532	0.04919
3862.44956	0.04990
3861.16379	0.05065
3859.87802	0.05083
3858.59225	0.05014
3857.30648	0.04889
3856.02071	0.04788
3854.73494	0.04772
3853.44917	0.04827
3852.16341	0.04885
3850.87764	0.04896
3849.59187	0.04855
3848.30610	0.04786
3847.02033	0.04719
3845.73456	0.04677
3844.44879	0.04671
3843.16302	0.04686
3841.87725	0.04700
3840.59149	0.04714
3839.30572	0.04746
3838.01995	0.04785
3836.73418	0.04801
3835.44841	0.04795
3834.16264	0.04802
3832.87687	0.04838
3831.59110	0.04878
3830.30534	0.04895
3829.01957	0.04886
3827.73380	0.04856
3826.44803	0.04800
3825.16226	0.04732
3823.87649	0.04700
3822.59072	0.04732
3821.30495	0.04782
3820.01918	0.04785
3818.73342	0.04746
3817.44765	0.04726
3816.16188	0.04748
3814.87611	0.04782
3813.59034	0.04789
3812.30457	0.04753
3811.01880	0.04691
3809.73303	0.04649
3808.44726	0.04668
3807.16150	0.04737
3805.87573	0.04800
3804.58996	0.04815
3803.30419	0.04783
3802.01842	0.04723
3800.73265	0.04664
3799.44688	0.04642
3798.16111	0.04668
3796.87535	0.04694
3795.58958	0.04661
3794.30381	0.04572
3793.01804	0.04492
3791.73227	0.04473
3790.44650	0.04499
3789.16073	0.04518
3787.87496	0.04509
3786.58919	0.04506
3785.30343	0.04548
3784.01766	0.04626
3782.73189	0.04691
3781.44612	0.04710
3780.16035	0.04686
3778.87458	0.04642
3777.58881	0.04611
3776.30304	0.04615
3775.01728	0.04661
3773.73151	0.04732
3772.44574	0.04793
3771.15997	0.04805
3769.87420	0.04749
3768.58843	0.04639
3767.30266	0.04526
3766.01689	0.04448
3764.73112	0.04409
3763.44536	0.04402
3762.15959	0.04437
3760.87382	0.04516
3759.58805	0.04606
3758.30228	0.04649
3757.01651	0.04621
3755.73074	0.04566
3754.44497	0.04548
3753.15921	0.04579
3751.87344	0.04605
3750.58767	0.04573
3749.30190	0.04480
3748.01613	0.04377
3746.73036	0.04337
3745.44459	0.04374
3744.15882	0.04417
3742.87305	0.04413
3741.58729	0.04399
3740.30152	0.04448
3739.01575	0.04580
3737.72998	0.04738
3736.44421	0.04842
3735.15844	0.04859
3733.87267	0.04821
3732.58690	0.04760
3731.30114	0.04684
3730.01537	0.04614
3728.72960	0.04582
3727.44383	0.04588
3726.15806	0.04580
3724.87229	0.04512
3723.58652	0.04392
3722.30075	0.04280
3721.01498	0.04247
3719.72922	0.04314
3718.44345	0.04426
3717.15768	0.04499
3715.87191	0.04500
3714.58614	0.04468
3713.30037	0.04453
3712.01460	0.04470
3710.72883	0.04512
3709.44307	0.04562
3708.15730	0.04576
3706.87153	0.04514
3705.58576	0.04384
3704.29999	0.04253
3703.01422	0.04177
3701.72845	0.04160
3700.44268	0.04174
3699.15691	0.04197
3697.87115	0.04210
3696.58538	0.04199
3695.29961	0.04177
3694.01384	0.04183
3692.72807	0.04236
3691.44230	0.04328
3690.15653	0.04431
3688.87076	0.04515
3687.58500	0.04564
3686.29923	0.04581
3685.01346	0.04568
3683.72769	0.04524
3682.44192	0.04475
3681.15615	0.04460
3679.87038	0.04503
3678.58461	0.04591
3677.29884	0.04691
3676.01308	0.04761
3674.72731	0.04782
3673.44154	0.04770
3672.15577	0.04756
3670.87000	0.04738
3669.58423	0.04702
3668.29846	0.04651
3667.01269	0.04595
3665.72693	0.04535
3664.44116	0.04481
3663.15539	0.04466
3661.86962	0.04520
3660.58385	0.04637
3659.29808	0.04772
3658.01231	0.04869
3656.72654	0.04889
3655.44077	0.04831
3654.15501	0.04727
3652.86924	0.04625
3651.58347	0.04565
3650.29770	0.04574
3649.01193	0.04656
3647.72616	0.04778
3646.44039	0.04879
3645.15462	0.04915
3643.86886	0.04885
3642.58309	0.04836
3641.29732	0.04821
3640.01155	0.04866
3638.72578	0.04948
3637.44001	0.05012
3636.15424	0.05013
3634.86847	0.04946
3633.58270	0.04851
3632.29694	0.04797
3631.01117	0.04831
3629.72540	0.04933
3628.43963	0.05024
3627.15386	0.05056
3625.86809	0.05046
3624.58232	0.05045
3623.29655	0.05079
3622.01079	0.05144
3620.72502	0.05214
3619.43925	0.05255
3618.15348	0.05231
3616.86771	0.05133
3615.58194	0.05000
3614.29617	0.04903
3613.01040	0.04891
3611.72463	0.04971
3610.43887	0.05120
3609.15310	0.05304
3607.86733	0.05481
3606.58156	0.05600
3605.29579	0.05635
3604.01002	0.05611
3602.72425	0.05583
3601.43848	0.05581
3600.15272	0.05600
3598.86695	0.05626
3597.58118	0.05649
3596.29541	0.05650
3595.00964	0.05613
3593.72387	0.05556
3592.43810	0.05522
3591.15233	0.05544
3589.86656	0.05604
3588.58080	0.05658
3587.29503	0.05681
3586.00926	0.05700
3584.72349	0.05763
3583.43772	0.05881
3582.15195	0.06013
3580.86618	0.06098
3579.58041	0.06119
3578.29464	0.06108
3577.00888	0.06107
3575.72311	0.06115
3574.43734	0.06110
3573.15157	0.06095
3571.86580	0.06106
3570.58003	0.06166
3569.29426	0.06252
3568.00849	0.06310
3566.72273	0.06306
3565.43696	0.06245
3564.15119	0.06162
3562.86542	0.06094
3561.57965	0.06071
3560.29388	0.06101
3559.00811	0.06169
3557.72234	0.06246
3556.43657	0.06308
3555.15081	0.06334
3553.86504	0.06317
3552.57927	0.06265
3551.29350	0.06205
3550.00773	0.06170
3548.72196	0.06179
3547.43619	0.06225
3546.15042	0.06292
3544.86466	0.06360
3543.57889	0.06419
3542.29312	0.06458
3541.00735	0.06472
3539.72158	0.06469
3538.43581	0.06462
3537.15004	0.06465
3535.86427	0.06478
3534.57850	0.06493
3533.29274	0.06509
3532.00697	0.06538
3530.72120	0.06590
3529.43543	0.06658
3528.14966	0.06718
3526.86389	0.06743
3525.57812	0.06726
3524.29235	0.06686
3523.00659	0.06652
3521.72082	0.06653
3520.43505	0.06700
3519.14928	0.06777
3517.86351	0.06862
3516.57774	0.06934
3515.29197	0.06985
3514.00620	0.07007
3512.72043	0.06987
3511.43467	0.06913
3510.14890	0.06806
3508.86313	0.06715
3507.57736	0.06681
3506.29159	0.06706
3505.00582	0.06754
3503.72005	0.06791
3502.43428	0.06815
3501.14852	0.06835
3499.86275	0.06856
3498.57698	0.06873
3497.29121	0.06895
3496.00544	0.06936
3494.71967	0.06995
3493.43390	0.07039
3492.14813	0.07037
3490.86236	0.06994
3489.57660	0.06958
3488.29083	0.06978
3487.00506	0.07051
3485.71929	0.07134
3484.43352	0.07187
3483.14775	0.07206
3481.86198	0.07201
3480.57621	0.07179
3479.29045	0.07145
3478.00468	0.07112
3476.71891	0.07105
3475.43314	0.07132
3474.14737	0.07181
3472.86160	0.07219
3471.57583	0.07232
3470.29006	0.07230
3469.00429	0.07243
3467.71853	0.07285
3466.43276	0.07337
3465.14699	0.07372
3463.86122	0.07382
3462.57545	0.07388
3461.28968	0.07409
3460.00391	0.07431
3458.71814	0.07430
3457.43238	0.07407
3456.14661	0.07399
3454.86084	0.07436
3453.57507	0.07507
3452.28930	0.07573
3451.00353	0.07596
3449.71776	0.07569
3448.43199	0.07510
3447.14622	0.07458
3445.86046	0.07446
3444.57469	0.07480
3443.28892	0.07524
3442.00315	0.07535
3440.71738	0.07505
3439.43161	0.07469
3438.14584	0.07474
3436.86007	0.07537
3435.57431	0.07637
3434.28854	0.07732
3433.00277	0.07787
3431.71700	0.07790
3430.43123	0.07755
3429.14546	0.07707
3427.85969	0.07659
3426.57392	0.07615
3425.28815	0.07587
3424.00239	0.07593
3422.71662	0.07627
3421.43085	0.07659
3420.14508	0.07672
3418.85931	0.07689
3417.57354	0.07741
3416.28777	0.07819
3415.00200	0.07872
3413.71624	0.07852
3412.43047	0.07763
3411.14470	0.07666
3409.85893	0.07624
3408.57316	0.07653
3407.28739	0.07711
3406.00162	0.07748
3404.71585	0.07751
3403.43008	0.07734
3402.14432	0.07717
3400.85855	0.07698
3399.57278	0.07668
3398.28701	0.07628
3397.00124	0.07598
3395.71547	0.07591
3394.42970	0.07606
3393.14393	0.07630
3391.85817	0.07642
3390.57240	0.07633
3389.28663	0.07624
3388.00086	0.07649
3386.71509	0.07721
3385.42932	0.07807
3384.14355	0.07855
3382.85778	0.07848
3381.57201	0.07813
3380.28625	0.07795
3379.00048	0.07818
3377.71471	0.07875
3376.42894	0.07931
3375.14317	0.07942
3373.85740	0.07884
3372.57163	0.07774
3371.28586	0.07660
3370.00010	0.07585
3368.71433	0.07572
3367.42856	0.07617
3366.14279	0.07698
3364.85702	0.07782
3363.57125	0.07850
3362.28548	0.07894
3360.99971	0.07915
3359.71394	0.07910
3358.42818	0.07882
3357.14241	0.07849
3355.85664	0.07836
3354.57087	0.07852
3353.28510	0.07875
3351.99933	0.07870
3350.71356	0.07823
3349.42779	0.07745
3348.14202	0.07662
3346.85626	0.07597
3345.57049	0.07564
3344.28472	0.07574
3342.99895	0.07622
3341.71318	0.07685
3340.42741	0.07733
3339.14164	0.07747
3337.85587	0.07730
3336.57011	0.07694
3335.28434	0.07645
3333.99857	0.07585
3332.71280	0.07517
3331.42703	0.07453
3330.14126	0.07406
3328.85549	0.07382
3327.56972	0.07377
3326.28395	0.07389
3324.99819	0.07417
3323.71242	0.07459
3322.42665	0.07500
3321.14088	0.07522
3319.85511	0.07522
3318.56934	0.07507
3317.28357	0.07486
3315.99780	0.07468
3314.71204	0.07461
3313.42627	0.07475
3312.14050	0.07506
3310.85473	0.07541
3309.56896	0.07557
3308.28319	0.07541
3306.99742	0.07493
3305.71165	0.07425
3304.42588	0.07346
3303.14012	0.07276
3301.85435	0.07246
3300.56858	0.07287
3299.28281	0.07394
3297.99704	0.07515
3296.71127	0.07582
3295.42550	0.07558
3294.13973	0.07459
3292.85397	0.07331
3291.56820	0.07231
3290.28243	0.07196
3288.99666	0.07231
3287.71089	0.07302
3286.42512	0.07358
3285.13935	0.07369
3283.85358	0.07339
3282.56781	0.07295
3281.28205	0.07263
3279.99628	0.07258
3278.71051	0.07279
3277.42474	0.07310
3276.13897	0.07333
3274.85320	0.07350
3273.56743	0.07367
3272.28166	0.07376
3270.99590	0.07359
3269.71013	0.07308
3268.42436	0.07243
3267.13859	0.07191
3265.85282	0.07174
3264.56705	0.07197
3263.28128	0.07236
3261.99551	0.07255
3260.70974	0.07227
3259.42398	0.07168
3258.13821	0.07121
3256.85244	0.07119
3255.56667	0.07161
3254.28090	0.07212
3252.99513	0.07230
3251.70936	0.07199
3250.42359	0.07129
3249.13783	0.07052
3247.85206	0.07002
3246.56629	0.06999
3245.28052	0.07043
3243.99475	0.07109
3242.70898	0.07167
3241.42321	0.07203
3240.13744	0.07213
3238.85167	0.07196
3237.56591	0.07154
3236.28014	0.07100
3234.99437	0.07051
3233.70860	0.07017
3232.42283	0.07004
3231.13706	0.07007
3229.85129	0.07009
3228.56552	0.06994
3227.27976	0.06959
3225.99399	0.06914
3224.70822	0.06876
3223.42245	0.06855
3222.13668	0.06857
3220.85091	0.06879
3219.56514	0.06903
3218.27937	0.06903
3216.99360	0.06873
3215.70784	0.06834
3214.42207	0.06814
3213.13630	0.06831
3211.85053	0.06875
3210.56476	0.06919
3209.27899	0.06930
3207.99322	0.06890
3206.70745	0.06810
3205.42169	0.06725
3204.13592	0.06672
3202.85015	0.06664
3201.56438	0.06694
3200.27861	0.06746
3198.99284	0.06803
3197.70707	0.06848
3196.42130	0.06864
3195.13553	0.06837
3193.84977	0.06768
3192.56400	0.06668
3191.27823	0.06562
3189.99246	0.06475
3188.70669	0.06432
3187.42092	0.06441
3186.13515	0.06491
3184.84938	0.06557
3183.56362	0.06613
3182.27785	0.06646
3180.99208	0.06656
3179.70631	0.06644
3178.42054	0.06610
3177.13477	0.06570
3175.84900	0.06546
3174.56323	0.06549
3173.27746	0.06565
3171.99170	0.06561
3170.70593	0.06529
3169.42016	0.06493
3168.13439	0.06488
3166.84862	0.06520
3165.56285	0.06560
3164.27708	0.06564
3162.99131	0.06514
3161.70555	0.06431
3160.41978	0.06356
3159.13401	0.06317
3157.84824	0.06313
3156.56247	0.06329
3155.27670	0.06347
3153.99093	0.06358
3152.70516	0.06352
3151.41939	0.06320
3150.13363	0.06271
3148.84786	0.06229
3147.56209	0.06207
3146.27632	0.06191
3144.99055	0.06164
3143.70478	0.06128
3142.41901	0.06104
3141.13324	0.06102
3139.84748	0.06114
3138.56171	0.06126
3137.27594	0.06139
3135.99017	0.06158
3134.70440	0.06180
3133.41863	0.06194
3132.13286	0.06193
3130.84709	0.06181
3129.56132	0.06162
3128.27556	0.06140
3126.98979	0.06118
3125.70402	0.06099
3124.41825	0.06093
3123.13248	0.06099
3121.84671	0.06104
3120.56094	0.06085
3119.27517	0.06029
3117.98940	0.05955
3116.70364	0.05894
3115.41787	0.05872
3114.13210	0.05897
3112.84633	0.05957
3111.56056	0.06019
3110.27479	0.06041
3108.98902	0.06009
3107.70325	0.05946
3106.41749	0.05892
3105.13172	0.05863
3103.84595	0.05847
3102.56018	0.05829
3101.27441	0.05806
3099.98864	0.05786
3098.70287	0.05777
3097.41710	0.05788
3096.13133	0.05817
3094.84557	0.05849
3093.55980	0.05857
3092.27403	0.05829
3090.98826	0.05778
3089.70249	0.05731
3088.41672	0.05702
3087.13095	0.05686
3085.84518	0.05672
3084.55942	0.05652
3083.27365	0.05628
3081.98788	0.05603
3080.70211	0.05582
3079.41634	0.05572
3078.13057	0.05576
3076.84480	0.05590
3075.55903	0.05605
3074.27326	0.05617
3072.98750	0.05625
3071.70173	0.05635
3070.41596	0.05646
3069.13019	0.05649
3067.84442	0.05640
3066.55865	0.05620
3065.27288	0.05583
3063.98711	0.05531
3062.70135	0.05476
3061.41558	0.05444
3060.12981	0.05443
3058.84404	0.05460
3057.55827	0.05470
3056.27250	0.05461
3054.98673	0.05436
3053.70096	0.05401
3052.41519	0.05364
3051.12943	0.05330
3049.84366	0.05305
3048.55789	0.05298
3047.27212	0.05314
3045.98635	0.05350
3044.70058	0.05389
3043.41481	0.05409
3042.12904	0.05406
3040.84328	0.05401
3039.55751	0.05413
3038.27174	0.05434
3036.98597	0.05430
3035.70020	0.05382
3034.41443	0.05309
3033.12866	0.05248
3031.84289	0.05223
3030.55712	0.05231
3029.27136	0.05254
3027.98559	0.05270
3026.69982	0.05267
3025.41405	0.05244
3024.12828	0.05216
3022.84251	0.05196
3021.55674	0.05189
3020.27097	0.05185
3018.98521	0.05171
3017.69944	0.05147
3016.41367	0.05131
3015.12790	0.05135
3013.84213	0.05157
3012.55636	0.05178
3011.27059	0.05178
3009.98482	0.05154
3008.69905	0.05120
3007.41329	0.05102
3006.12752	0.05108
3004.84175	0.05121
3003.55598	0.05122
3002.27021	0.05110
3000.98444	0.05106
2999.69867	0.05119
2998.41290	0.05137
2997.12714	0.05130
2995.84137	0.05093
2994.55560	0.05046
2993.26983	0.05013
2991.98406	0.05001
2990.69829	0.05005
2989.41252	0.05014
2988.12675	0.05019
2986.84098	0.05016
2985.55522	0.05007
2984.26945	0.04997
2982.98368	0.04986
2981.69791	0.04982
2980.41214	0.04995
2979.12637	0.05030
2977.84060	0.05069
2976.55483	0.05090
2975.26907	0.05079
2973.98330	0.05044
2972.69753	0.05007
2971.41176	0.05004
2970.12599	0.05053
2968.84022	0.05136
2967.55445	0.05211
2966.26868	0.05245
2964.98291	0.05241
2963.69715	0.05217
2962.41138	0.05181
2961.12561	0.05136
2959.83984	0.05086
2958.55407	0.05047
2957.26830	0.05036
2955.98253	0.05057
2954.69676	0.05087
2953.41100	0.05095
2952.12523	0.05071
2950.83946	0.05042
2949.55369	0.05046
2948.26792	0.05098
2946.98215	0.05165
2945.69638	0.05202
2944.41061	0.05188
2943.12484	0.05141
2941.83908	0.05092
2940.55331	0.05055
2939.26754	0.05036
2937.98177	0.05036
2936.69600	0.05051
2935.41023	0.05071
2934.12446	0.05089
2932.83869	0.05098
2931.55293	0.05096
2930.26716	0.05086
2928.98139	0.05083
2927.69562	0.05097
2926.40985	0.05118
2925.12408	0.05121
2923.83831	0.05098
2922.55254	0.05064
2921.26677	0.05040
2919.98101	0.05037
2918.69524	0.05044
2917.40947	0.05041
2916.12370	0.05020
2914.83793	0.04995
2913.55216	0.04979
2912.26639	0.04964
2910.98062	0.04936
2909.69486	0.04890
2908.40909	0.04841
2907.12332	0.04805
2905.83755	0.04790
2904.55178	0.04793
2903.26601	0.04798
2901.98024	0.04782
2900.69447	0.04735
2899.40870	0.04672
2898.12294	0.04617
2896.83717	0.04578
2895.55140	0.04549
2894.26563	0.04522
2892.97986	0.04491
2891.69409	0.04463
2890.40832	0.04451
2889.12255	0.04468
2887.83678	0.04511
2886.55102	0.04559
2885.26525	0.04588
2883.97948	0.04591
2882.69371	0.04578
2881.40794	0.04564
2880.12217	0.04565
2878.83640	0.04581
2877.55063	0.04595
2876.26487	0.04590
2874.97910	0.04563
2873.69333	0.04527
2872.40756	0.04495
2871.12179	0.04468
2869.83602	0.04447
2868.55025	0.04434
2867.26448	0.04426
2865.97871	0.04416
2864.69295	0.04401
2863.40718	0.04395
2862.12141	0.04409
2860.83564	0.04440
2859.54987	0.04473
2858.26410	0.04491
2856.97833	0.04489
2855.69256	0.04469
2854.40680	0.04437
2853.12103	0.04404
2851.83526	0.04377
2850.54949	0.04355
2849.26372	0.04335
2847.97795	0.04312
2846.69218	0.04286
2845.40641	0.04256
2844.12064	0.04231
2842.83488	0.04216
2841.54911	0.04207
2840.26334	0.04187
2838.97757	0.04140
2837.69180	0.04070
2836.40603	0.04002
2835.12026	0.03967
2833.83449	0.03972
2832.54873	0.04007
2831.26296	0.04048
2829.97719	0.04074
2828.69142	0.04076
2827.40565	0.04061
2826.11988	0.04038
2824.83411	0.04014
2823.54834	0.03993
2822.26257	0.03981
2820.97681	0.03976
2819.69104	0.03971
2818.40527	0.03959
2817.11950	0.03936
2815.83373	0.03907
2814.54796	0.03879
2813.26219	0.03860
2811.97642	0.03852
2810.69066	0.03854
2809.40489	0.03865
2808.11912	0.03879
2806.83335	0.03884
2805.54758	0.03874
2804.26181	0.03852
2802.97604	0.03832
2801.69027	0.03827
2800.40450	0.03839
2799.11874	0.03860
2797.83297	0.03880
2796.54720	0.03894
2795.26143	0.03902
2793.97566	0.03904
2792.68989	0.03898
2791.40412	0.03881
2790.11835	0.03854
2788.83259	0.03816
2787.54682	0.03773
2786.26105	0.03736
2784.97528	0.03713
2783.68951	0.03703
2782.40374	0.03704
2781.11797	0.03715
2779.83220	0.03733
2778.54643	0.03750
2777.26067	0.03758
2775.97490	0.03753
2774.68913	0.03736
2773.40336	0.03716
2772.11759	0.03706
2770.83182	0.03712
2769.54605	0.03727
2768.26028	0.03734
2766.97452	0.03719
2765.68875	0.03682
2764.40298	0.03641
2763.11721	0.03619
2761.83144	0.03619
2760.54567	0.03622
2759.25990	0.03615
2757.97413	0.03601
2756.68836	0.03594
2755.40260	0.03599
2754.11683	0.03608
2752.83106	0.03609
2751.54529	0.03600
2750.25952	0.03586
2748.97375	0.03570
2747.68798	0.03550
2746.40221	0.03530
2745.11645	0.03518
2743.83068	0.03520
2742.54491	0.03532
2741.25914	0.03547
2739.97337	0.03562
2738.68760	0.03571
2737.40183	0.03574
2736.11606	0.03572
2734.83029	0.03566
2733.54453	0.03555
2732.25876	0.03543
2730.97299	0.03538
2729.68722	0.03541
2728.40145	0.03541
2727.11568	0.03528
2725.82991	0.03505
2724.54414	0.03480
2723.25838	0.03454
2721.97261	0.03425
2720.68684	0.03394
2719.40107	0.03372
2718.11530	0.03372
2716.82953	0.03396
2715.54376	0.03429
2714.25799	0.03450
2712.97222	0.03445
2711.68646	0.03416
2710.40069	0.03380
2709.11492	0.03357
2707.82915	0.03356
2706.54338	0.03369
2705.25761	0.03385
2703.97184	0.03402
2702.68607	0.03421
2701.40031	0.03432
2700.11454	0.03421
2698.82877	0.03386
2697.54300	0.03343
2696.25723	0.03314
2694.97146	0.03314
2693.68569	0.03334
2692.39992	0.03345
2691.11415	0.03333
2689.82839	0.03307
2688.54262	0.03284
2687.25685	0.03273
2685.97108	0.03268
2684.68531	0.03267
2683.39954	0.03269
2682.11377	0.03268
2680.82800	0.03260
2679.54224	0.03246
2678.25647	0.03237
2676.97070	0.03240
2675.68493	0.03257
2674.39916	0.03279
2673.11339	0.03297
2671.82762	0.03303
2670.54185	0.03298
2669.25608	0.03286
2667.97032	0.03273
2666.68455	0.03254
2665.39878	0.03226
2664.11301	0.03190
2662.82724	0.03159
2661.54147	0.03146
2660.25570	0.03146
2658.96993	0.03140
2657.68417	0.03114
2656.39840	0.03076
2655.11263	0.03050
2653.82686	0.03045
2652.54109	0.03058
2651.25532	0.03077
2649.96955	0.03092
2648.68378	0.03093
2647.39801	0.03077
2646.11225	0.03052
2644.82648	0.03029
2643.54071	0.03013
2642.25494	0.03006
2640.96917	0.03006
2639.68340	0.03009
2638.39763	0.03010
2637.11186	0.03003
2635.82609	0.02992
2634.54033	0.02977
2633.25456	0.02962
2631.96879	0.02946
2630.68302	0.02936
2629.39725	0.02933
2628.11148	0.02934
2626.82571	0.02926
2625.53994	0.02894
2624.25418	0.02840
2622.96841	0.02788
2621.68264	0.02769
2620.39687	0.02788
2619.11110	0.02823
2617.82533	0.02847
2616.53956	0.02852
2615.25379	0.02851
2613.96802	0.02852
2612.68226	0.02845
2611.39649	0.02819
2610.11072	0.02765
2608.82495	0.02694
2607.53918	0.02630
2606.25341	0.02604
2604.96764	0.02631
2603.68187	0.02690
2602.39611	0.02738
2601.11034	0.02747
2599.82457	0.02730
2598.53880	0.02721
2597.25303	0.02734
2595.96726	0.02748
2594.68149	0.02737
2593.39572	0.02703
2592.10995	0.02677
2590.82419	0.02682
2589.53842	0.02706
2588.25265	0.02721
2586.96688	0.02720
2585.68111	0.02712
2584.39534	0.02703
2583.10957	0.02685
2581.82380	0.02647
2580.53804	0.02599
2579.25227	0.02566
2577.96650	0.02568
2576.68073	0.02594
2575.39496	0.02616
2574.10919	0.02619
2572.82342	0.02617
2571.53765	0.02621
2570.25188	0.02626
2568.96612	0.02622
2567.68035	0.02615
2566.39458	0.02619
2565.10881	0.02636
2563.82304	0.02651
2562.53727	0.02648
2561.25150	0.02626
2559.96573	0.02589
2558.67997	0.02548
2557.39420	0.02516
2556.10843	0.02503
2554.82266	0.02518
2553.53689	0.02551
2552.25112	0.02583
2550.96535	0.02593
2549.67958	0.02576
2548.39381	0.02548
2547.10805	0.02530
2545.82228	0.02539
2544.53651	0.02571
2543.25074	0.02598
2541.96497	0.02591
2540.67920	0.02542
2539.39343	0.02480
2538.10766	0.02445
2536.82190	0.02454
2535.53613	0.02490
2534.25036	0.02520
2532.96459	0.02521
2531.67882	0.02506
2530.39305	0.02498
2529.10728	0.02505
2527.82151	0.02511
2526.53574	0.02496
2525.24998	0.02462
2523.96421	0.02429
2522.67844	0.02415
2521.39267	0.02423
2520.10690	0.02439
2518.82113	0.02447
2517.53536	0.02439
2516.24959	0.02423
2514.96383	0.02411
2513.67806	0.02412
2512.39229	0.02425
2511.10652	0.02437
2509.82075	0.02439
2508.53498	0.02437
2507.24921	0.02439
2505.96344	0.02441
2504.67767	0.02434
2503.39191	0.02421
2502.10614	0.02411
2500.82037	0.02410
2499.53460	0.02420
2498.24883	0.02442
2496.96306	0.02470
2495.67729	0.02487
2494.39152	0.02475
2493.10576	0.02435
2491.81999	0.02378
2490.53422	0.02316
2489.24845	0.02262
2487.96268	0.02234
2486.67691	0.02247
2485.39114	0.02287
2484.10537	0.02333
2482.81960	0.02376
2481.53384	0.02426
2480.24807	0.02474
2478.96230	0.02491
2477.67653	0.02460
2476.39076	0.02399
2475.10499	0.02348
2473.81922	0.02334
2472.53345	0.02347
2471.24769	0.02361
2469.96192	0.02362
2468.67615	0.02357
2467.39038	0.02359
2466.10461	0.02366
2464.81884	0.02365
2463.53307	0.02346
2462.24730	0.02322
2460.96153	0.02313
2459.67577	0.02329
2458.39000	0.02360
2457.10423	0.02391
2455.81846	0.02412
2454.53269	0.02421
2453.24692	0.02412
2451.96115	0.02382
2450.67538	0.02333
2449.38962	0.02277
2448.10385	0.02234
2446.81808	0.02213
2445.53231	0.02213
2444.24654	0.02217
2442.96077	0.02217
2441.67500	0.02226
2440.38923	0.02259
2439.10346	0.02310
2437.81770	0.02349
2436.53193	0.02351
2435.24616	0.02324
2433.96039	0.02288
2432.67462	0.02254
2431.38885	0.02221
2430.10308	0.02191
2428.81731	0.02175
2427.53155	0.02179
2426.24578	0.02196
2424.96001	0.02210
2423.67424	0.02215
2422.38847	0.02222
2421.10270	0.02245
2419.81693	0.02278
2418.53116	0.02303
2417.24539	0.02310
2415.95963	0.02307
2414.67386	0.02300
2413.38809	0.02278
2412.10232	0.02233
2410.81655	0.02174
2409.53078	0.02127
2408.24501	0.02112
2406.95924	0.02127
2405.67347	0.02158
2404.38771	0.02185
2403.10194	0.02192
2401.81617	0.02181
2400.53040	0.02165
2399.24463	0.02153
2397.95886	0.02150
2396.67309	0.02162
2395.38732	0.02190
2394.10156	0.02227
2392.81579	0.02252
2391.53002	0.02252
2390.24425	0.02231
2388.95848	0.02208
2387.67271	0.02202
2386.38694	0.02215
2385.10117	0.02236
2383.81540	0.02250
2382.52964	0.02254
2381.24387	0.02250
2379.95810	0.02249
2378.67233	0.02254
2377.38656	0.02263
2376.10079	0.02271
2374.81502	0.02283
2373.52925	0.02302
2372.24349	0.02333
2370.95772	0.02361
2369.67195	0.02389
2368.38618	0.02399
2367.10041	0.02378
2365.81464	0.02338
2364.52887	0.02335
2363.24310	0.02378
2361.95733	0.02441
2360.67157	0.02480
2359.38580	0.02504
2358.10003	0.02510
2356.81426	0.02509
2355.52849	0.02504
2354.24272	0.02478
2352.95695	0.02437
2351.67118	0.02371
2350.38542	0.02286
2349.09965	0.02226
2347.81388	0.02224
2346.52811	0.02238
2345.24234	0.02243
2343.95657	0.02249
2342.67080	0.02285
2341.38503	0.02320
2340.09926	0.02330
2338.81350	0.02343
2337.52773	0.02363
2336.24196	0.02362
2334.95619	0.02345
2333.67042	0.02345
2332.38465	0.02379
2331.09888	0.02361
2329.81311	0.02329
2328.52735	0.02361
2327.24158	0.02345
2325.95581	0.02301
2324.67004	0.02306
2323.38427	0.02268
2322.09850	0.02189
2320.81273	0.02186
2319.52696	0.02171
2318.24119	0.02147
2316.95543	0.02161
2315.66966	0.02142
2314.38389	0.02111
2313.09812	0.02095
2311.81235	0.02061
2310.52658	0.02058
2309.24081	0.02074
2307.95504	0.02084
2306.66928	0.02097
2305.38351	0.02086
2304.09774	0.02063
2302.81197	0.02036
2301.52620	0.01999
2300.24043	0.01973
2298.95466	0.01953
2297.66889	0.01934
2296.38312	0.01905
2295.09736	0.01869
2293.81159	0.01852
2292.52582	0.01859
2291.24005	0.01879
2289.95428	0.01891
2288.66851	0.01889
2287.38274	0.01873
2286.09697	0.01845
2284.81121	0.01808
2283.52544	0.01777
2282.23967	0.01771
2280.95390	0.01792
2279.66813	0.01827
2278.38236	0.01849
2277.09659	0.01841
2275.81082	0.01805
2274.52505	0.01760
2273.23929	0.01730
2271.95352	0.01721
2270.66775	0.01719
2269.38198	0.01715
2268.09621	0.01712
2266.81044	0.01720
2265.52467	0.01741
2264.23890	0.01760
2262.95314	0.01754
2261.66737	0.01714
2260.38160	0.01656
2259.09583	0.01600
2257.81006	0.01559
2256.52429	0.01533
2255.23852	0.01524
2253.95275	0.01533
2252.66698	0.01546
2251.38122	0.01546
2250.09545	0.01529
2248.80968	0.01514
2247.52391	0.01518
2246.23814	0.01516
2244.95237	0.01492
2243.66660	0.01452
2242.38083	0.01411
2241.09507	0.01382
2239.80930	0.01378
2238.52353	0.01416
2237.23776	0.01500
2235.95199	0.01609
2234.66622	0.01689
2233.38045	0.01690
2232.09468	0.01609
2230.80891	0.01493
2229.52315	0.01409
2228.23738	0.01378
2226.95161	0.01375
2225.66584	0.01363
2224.38007	0.01334
2223.09430	0.01313
2221.80853	0.01318
2220.52276	0.01339
2219.23700	0.01358
2217.95123	0.01382
2216.66546	0.01428
2215.37969	0.01477
2214.09392	0.01476
2212.80815	0.01417
2211.52238	0.01353
2210.23661	0.01335
2208.95084	0.01347
2207.66508	0.01333
2206.37931	0.01268
2205.09354	0.01193
2203.80777	0.01163
2202.52200	0.01187
2201.23623	0.01219
2199.95046	0.01196
2198.66469	0.01107
2197.37893	0.01010
2196.09316	0.00988
2194.80739	0.01071
2193.52162	0.01200
2192.23585	0.01288
2190.95008	0.01285
2189.66431	0.01213
2188.37854	0.01139
2187.09277	0.01116
2185.80701	0.01151
2184.52124	0.01208
2183.23547	0.01245
2181.94970	0.01242
2180.66393	0.01203
2179.37816	0.01139
2178.09239	0.01073
2176.80662	0.01032
2175.52085	0.01041
2174.23509	0.01106
2172.94932	0.01213
2171.66355	0.01322
2170.37778	0.01391
2169.09201	0.01403
2167.80624	0.01364
2166.52047	0.01280
2165.23470	0.01150
2163.94894	0.00991
2162.66317	0.00827
2161.37740	0.00676
2160.09163	0.00556
2158.80586	0.00513
2157.52009	0.00571
2156.23432	0.00684
2154.94855	0.00765
2153.66278	0.00777
2152.37702	0.00759
2151.09125	0.00767
2149.80548	0.00814
2148.51971	0.00865
2147.23394	0.00881
2145.94817	0.00868
2144.66240	0.00872
2143.37663	0.00925
2142.09087	0.01012
2140.80510	0.01090
2139.51933	0.01136
2138.23356	0.01164
2136.94779	0.01189
2135.66202	0.01218
2134.37625	0.01248
2133.09048	0.01271
2131.80471	0.01278
2130.51895	0.01258
2129.23318	0.01213
2127.94741	0.01160
2126.66164	0.01127
2125.37587	0.01138
2124.09010	0.01187
2122.80433	0.01242
2121.51856	0.01269
2120.23280	0.01252
2118.94703	0.01191
2117.66126	0.01109
2116.37549	0.01036
2115.08972	0.00998
2113.80395	0.00990
2112.51818	0.00994
2111.23241	0.01009
2109.94664	0.01045
2108.66088	0.01099
2107.37511	0.01150
2106.08934	0.01172
2104.80357	0.01163
2103.51780	0.01145
2102.23203	0.01140
2100.94626	0.01150
2099.66049	0.01204
2098.37473	0.01190
2097.08896	0.01123
2095.80319	0.01060
2094.51742	0.01033
2093.23165	0.01044
2091.94588	0.01079
2090.66011	0.01116
2089.37434	0.01137
2088.08857	0.01127
2086.80281	0.01078
2085.51704	0.01003
2084.23127	0.00945
2082.94550	0.00949
2081.65973	0.01023
2080.37396	0.01125
2079.08819	0.01194
2077.80242	0.01203
2076.51666	0.01165
2075.23089	0.01107
2073.94512	0.01042
2072.65935	0.00971
2071.37358	0.00904
2070.08781	0.00858
2068.80204	0.00835
2067.51627	0.00818
2066.23050	0.00784
2064.94474	0.00734
2063.65897	0.00693
2062.37320	0.00682
2061.08743	0.00698
2059.80166	0.00709
2058.51589	0.00686
2057.23012	0.00629
2055.94435	0.00567
2054.65859	0.00538
2053.37282	0.00564
2052.08705	0.00640
2050.80128	0.00725
2049.51551	0.00761
2048.22974	0.00704
2046.94397	0.00571
2045.65820	0.00428
2044.37243	0.00341
2043.08667	0.00339
2041.80090	0.00404
2040.51513	0.00495
2039.22936	0.00566
2037.94359	0.00596
2036.65782	0.00600
2035.37205	0.00599
2034.08628	0.00589
2032.80052	0.00541
2031.51475	0.00448
2030.22898	0.00351
2028.94321	0.00307
2027.65744	0.00340
2026.37167	0.00415
2025.08590	0.00467
2023.80013	0.00459
2022.51436	0.00410
2021.22860	0.00377
2019.94283	0.00403
2018.65706	0.00479
2017.37129	0.00567
2016.08552	0.00643
2014.79975	0.00702
2013.51398	0.00732
2012.22821	0.00710
2010.94245	0.00647
2009.65668	0.00603
2008.37091	0.00641
2007.08514	0.00759
2005.79937	0.00891
2004.51360	0.00964
2003.22783	0.00951
2001.94206	0.00871
2000.65629	0.00770
1999.37053	0.00695
1998.08476	0.00689
1996.79899	0.00758
1995.51322	0.00865
1994.22745	0.00942
1992.94168	0.00939
1991.65591	0.00861
1990.37014	0.00766
1989.08438	0.00723
1987.79861	0.00763
1986.51284	0.00863
1985.22707	0.00970
1983.94130	0.01037
1982.65553	0.01042
1981.36976	0.01006
1980.08399	0.00979
1978.79822	0.00998
1977.51246	0.01039
1976.22669	0.01041
1974.94092	0.00982
1973.65515	0.00908
1972.36938	0.00887
1971.08361	0.00940
1969.79784	0.01044
1968.51207	0.01159
1967.22631	0.01254
1965.94054	0.01299
1964.65477	0.01276
1963.36900	0.01200
1962.08323	0.01113
1960.79746	0.01050
1959.51169	0.01016
1958.22592	0.00997
1956.94015	0.00981
1955.65439	0.00974
1954.36862	0.00988
1953.08285	0.01029
1951.79708	0.01088
1950.51131	0.01152
1949.22554	0.01216
1947.93977	0.01284
1946.65400	0.01352
1945.36823	0.01409
1944.08247	0.01444
1942.79670	0.01461
1941.51093	0.01467
1940.22516	0.01467
1938.93939	0.01460
1937.65362	0.01451
1936.36785	0.01438
1935.08208	0.01418
1933.79632	0.01382
1932.51055	0.01326
1931.22478	0.01261
1929.93901	0.01211
1928.65324	0.01191
1927.36747	0.01198
1926.08170	0.01215
1924.79593	0.01225
1923.51016	0.01221
1922.22440	0.01202
1920.93863	0.01179
1919.65286	0.01162
1918.36709	0.01158
1917.08132	0.01168
1915.79555	0.01191
1914.50978	0.01221
1913.22401	0.01245
1911.93825	0.01255
1910.65248	0.01250
1909.36671	0.01232
1908.08094	0.01207
1906.79517	0.01185
1905.50940	0.01178
1904.22363	0.01186
1902.93786	0.01200
1901.65209	0.01209
1900.36633	0.01213
1899.08056	0.01213
1897.79479	0.01212
1896.50902	0.01213
1895.22325	0.01218
1893.93748	0.01225
1892.65171	0.01227
1891.36594	0.01219
1890.08018	0.01207
1888.79441	0.01199
1887.50864	0.01202
1886.22287	0.01207
1884.93710	0.01203
1883.65133	0.01189
1882.36556	0.01178
1881.07979	0.01182
1879.79402	0.01202
1878.50826	0.01230
1877.22249	0.01252
1875.93672	0.01263
1874.65095	0.01264
1873.36518	0.01261
1872.07941	0.01263
1870.79364	0.01269
1869.50787	0.01269
1868.22211	0.01255
1866.93634	0.01231
1865.65057	0.01213
1864.36480	0.01208
1863.07903	0.01213
1861.79326	0.01223
1860.50749	0.01236
1859.22172	0.01249
1857.93595	0.01255
1856.65019	0.01250
1855.36442	0.01238
1854.07865	0.01236
1852.79288	0.01254
1851.50711	0.01283
1850.22134	0.01302
1848.93557	0.01296
1847.64980	0.01272
1846.36404	0.01249
1845.07827	0.01238
1843.79250	0.01234
1842.50673	0.01232
1841.22096	0.01230
1839.93519	0.01230
1838.64942	0.01230
1837.36365	0.01225
1836.07788	0.01213
1834.79212	0.01199
1833.50635	0.01190
1832.22058	0.01193
1830.93481	0.01207
1829.64904	0.01222
1828.36327	0.01231
1827.07750	0.01234
1825.79173	0.01235
1824.50597	0.01242
1823.22020	0.01261
1821.93443	0.01293
1820.64866	0.01326
1819.36289	0.01347
1818.07712	0.01348
1816.79135	0.01334
1815.50558	0.01315
1814.21981	0.01300
1812.93405	0.01296
1811.64828	0.01300
1810.36251	0.01305
1809.07674	0.01304
1807.79097	0.01300
1806.50520	0.01297
1805.21943	0.01296
1803.93366	0.01294
1802.64790	0.01290
1801.36213	0.01286
1800.07636	0.01288
1798.79059	0.01301
1797.50482	0.01319
1796.21905	0.01332
1794.93328	0.01334
1793.64751	0.01331
1792.36174	0.01328
1791.07598	0.01327
1789.79021	0.01327
1788.50444	0.01330
1787.21867	0.01334
1785.93290	0.01336
1784.64713	0.01335
1783.36136	0.01332
1782.07559	0.01337
1780.78983	0.01353
1779.50406	0.01376
1778.21829	0.01394
1776.93252	0.01400
1775.64675	0.01396
1774.36098	0.01395
1773.07521	0.01401
1771.78944	0.01412
1770.50367	0.01424
1769.21791	0.01434
1767.93214	0.01436
1766.64637	0.01429
1765.36060	0.01421
1764.07483	0.01423
1762.78906	0.01433
1761.50329	0.01440
1760.21752	0.01438
1758.93176	0.01435
1757.64599	0.01438
1756.36022	0.01448
1755.07445	0.01461
1753.78868	0.01472
1752.50291	0.01477
1751.21714	0.01476
1749.93137	0.01473
1748.64560	0.01477
1747.35984	0.01486
1746.07407	0.01491
1744.78830	0.01489
1743.50253	0.01489
1742.21676	0.01503
1740.93099	0.01532
1739.64522	0.01559
1738.35945	0.01573
1737.07369	0.01578
1735.78792	0.01591
1734.50215	0.01609
1733.21638	0.01618
1731.93061	0.01615
1730.64484	0.01611
1729.35907	0.01615
1728.07330	0.01623
1726.78753	0.01634
1725.50177	0.01645
1724.21600	0.01656
1722.93023	0.01664
1721.64446	0.01670
1720.35869	0.01684
1719.07292	0.01713
1717.78715	0.01752
1716.50138	0.01785
1715.21561	0.01807
1713.92985	0.01819
1712.64408	0.01827
1711.35831	0.01833
1710.07254	0.01841
1708.78677	0.01850
1707.50100	0.01863
1706.21523	0.01880
1704.92946	0.01897
1703.64370	0.01914
1702.35793	0.01939
1701.07216	0.01971
1699.78639	0.01997
1698.50062	0.02020
1697.21485	0.02049
1695.92908	0.02075
1694.64331	0.02081
1693.35754	0.02074
1692.07178	0.02078
1690.78601	0.02099
1689.50024	0.02129
1688.21447	0.02160
1686.92870	0.02197
1685.64293	0.02243
1684.35716	0.02287
1683.07139	0.02315
1681.78563	0.02329
1680.49986	0.02338
1679.21409	0.02347
1677.92832	0.02361
1676.64255	0.02386
1675.35678	0.02416
1674.07101	0.02443
1672.78524	0.02471
1671.49947	0.02506
1670.21371	0.02544
1668.92794	0.02575
1667.64217	0.02595
1666.35640	0.02608
1665.07063	0.02628
1663.78486	0.02657
1662.49909	0.02692
1661.21332	0.02725
1659.92756	0.02752
1658.64179	0.02771
1657.35602	0.02785
1656.07025	0.02805
1654.78448	0.02845
1653.49871	0.02898
1652.21294	0.02935
1650.92717	0.02947
1649.64140	0.02951
1648.35564	0.02966
1647.06987	0.02995
1645.78410	0.03029
1644.49833	0.03057
1643.21256	0.03078
1641.92679	0.03091
1640.64102	0.03102
1639.35525	0.03118
1638.06949	0.03146
1636.78372	0.03183
1635.49795	0.03216
1634.21218	0.03238
1632.92641	0.03257
1631.64064	0.03280
1630.35487	0.03305
1629.06910	0.03326
1627.78333	0.03342
1626.49757	0.03361
1625.21180	0.03391
1623.92603	0.03430
1622.64026	0.03469
1621.35449	0.03503
1620.06872	0.03536
1618.78295	0.03578
1617.49718	0.03627
1616.21142	0.03671
1614.92565	0.03710
1613.63988	0.03754
1612.35411	0.03807
1611.06834	0.03862
1609.78257	0.03911
1608.49680	0.03954
1607.21103	0.03997
1605.92526	0.04043
1604.63950	0.04090
1603.35373	0.04136
1602.06796	0.04180
1600.78219	0.04223
1599.49642	0.04263
1598.21065	0.04300
1596.92488	0.04335
1595.63911	0.04368
1594.35335	0.04399
1593.06758	0.04429
1591.78181	0.04458
1590.49604	0.04486
1589.21027	0.04515
1587.92450	0.04542
1586.63873	0.04567
1585.35296	0.04591
1584.06719	0.04614
1582.78143	0.04639
1581.49566	0.04665
1580.20989	0.04694
1578.92412	0.04729
1577.63835	0.04773
1576.35258	0.04817
1575.06681	0.04846
1573.78104	0.04862
1572.49528	0.04876
1571.20951	0.04894
1569.92374	0.04911
1568.63797	0.04920
1567.35220	0.04921
1566.06643	0.04918
1564.78066	0.04912
1563.49489	0.04904
1562.20912	0.04901
1560.92336	0.04907
1559.63759	0.04913
1558.35182	0.04900
1557.06605	0.04870
1555.78028	0.04835
1554.49451	0.04806
1553.20874	0.04781
1551.92297	0.04759
1550.63721	0.04738
1549.35144	0.04711
1548.06567	0.04679
1546.77990	0.04642
1545.49413	0.04599
1544.20836	0.04549
1542.92259	0.04497
1541.63682	0.04452
1540.35105	0.04413
1539.06529	0.04367
1537.77952	0.04307
1536.49375	0.04248
1535.20798	0.04207
1533.92221	0.04185
1532.63644	0.04175
1531.35067	0.04170
1530.06490	0.04168
1528.77914	0.04173
1527.49337	0.04186
1526.20760	0.04210
1524.92183	0.04244
1523.63606	0.04295
1522.35029	0.04361
1521.06452	0.04430
1519.77875	0.04496
1518.49298	0.04564
1517.20722	0.04643
1515.92145	0.04734
1514.63568	0.04835
1513.34991	0.04944
1512.06414	0.05058
1510.77837	0.05179
1509.49260	0.05312
1508.20683	0.05461
1506.92107	0.05614
1505.63530	0.05752
1504.34953	0.05869
1503.06376	0.05973
1501.77799	0.06074
1500.49222	0.06173
1499.20645	0.06265
1497.92068	0.06352
1496.63491	0.06431
1495.34915	0.06503
1494.06338	0.06574
1492.77761	0.06650
1491.49184	0.06733
1490.20607	0.06822
1488.92030	0.06913
1487.63453	0.07007
1486.34876	0.07104
1485.06299	0.07202
1483.77723	0.07308
1482.49146	0.07426
1481.20569	0.07557
1479.91992	0.07696
1478.63415	0.07837
1477.34838	0.07971
1476.06261	0.08096
1474.77684	0.08214
1473.49108	0.08327
1472.20531	0.08426
1470.91954	0.08504
1469.63377	0.08562
1468.34800	0.08605
1467.06223	0.08644
1465.77646	0.08685
1464.49069	0.08728
1463.20492	0.08775
1461.91916	0.08832
1460.63339	0.08910
1459.34762	0.09015
1458.06185	0.09140
1456.77608	0.09259
1455.49031	0.09353
1454.20454	0.09422
1452.91877	0.09477
1451.63301	0.09525
1450.34724	0.09564
1449.06147	0.09588
1447.77570	0.09591
1446.48993	0.09571
1445.20416	0.09533
1443.91839	0.09479
1442.63262	0.09410
1441.34685	0.09329
1440.06109	0.09248
1438.77532	0.09182
1437.48955	0.09138
1436.20378	0.09111
1434.91801	0.09100
1433.63224	0.09111
1432.34647	0.09151
1431.06070	0.09221
1429.77494	0.09321
1428.48917	0.09447
1427.20340	0.09599
1425.91763	0.09768
1424.63186	0.09942
1423.34609	0.10111
1422.06032	0.10272
1420.77455	0.10423
1419.48878	0.10552
1418.20302	0.10650
1416.91725	0.10714
1415.63148	0.10753
1414.34571	0.10767
1413.05994	0.10753
1411.77417	0.10708
1410.48840	0.10630
1409.20263	0.10521
1407.91687	0.10384
1406.63110	0.10224
1405.34533	0.10039
1404.05956	0.09832
1402.77379	0.09605
1401.48802	0.09365
1400.20225	0.09115
1398.91648	0.08858
1397.63071	0.08598
1396.34495	0.08339
1395.05918	0.08085
1393.77341	0.07837
1392.48764	0.07593
1391.20187	0.07355
1389.91610	0.07122
1388.63033	0.06895
1387.34456	0.06675
1386.05880	0.06460
1384.77303	0.06251
1383.48726	0.06047
1382.20149	0.05843
1380.91572	0.05639
1379.62995	0.05436
1378.34418	0.05234
1377.05841	0.05037
1375.77264	0.04847
1374.48688	0.04663
1373.20111	0.04486
1371.91534	0.04317
1370.62957	0.04158
1369.34380	0.04010
1368.05803	0.03872
1366.77226	0.03742
1365.48649	0.03622
1364.20073	0.03513
1362.91496	0.03414
1361.62919	0.03324
1360.34342	0.03241
1359.05765	0.03167
1357.77188	0.03098
1356.48611	0.03034
1355.20034	0.02973
1353.91457	0.02914
1352.62881	0.02857
1351.34304	0.02800
1350.05727	0.02744
1348.77150	0.02689
1347.48573	0.02636
1346.19996	0.02585
1344.91419	0.02535
1343.62842	0.02486
1342.34266	0.02440
1341.05689	0.02400
1339.77112	0.02364
1338.48535	0.02330
1337.19958	0.02298
1335.91381	0.02265
1334.62804	0.02231
1333.34227	0.02196
1332.05650	0.02162
1330.77074	0.02128
1329.48497	0.02096
1328.19920	0.02066
1326.91343	0.02042
1325.62766	0.02023
1324.34189	0.02008
1323.05612	0.01994
1321.77035	0.01980
1320.48459	0.01963
1319.19882	0.01943
1317.91305	0.01921
1316.62728	0.01900
1315.34151	0.01884
1314.05574	0.01872
1312.76997	0.01860
1311.48420	0.01849
1310.19843	0.01837
1308.91267	0.01825
1307.62690	0.01809
1306.34113	0.01787
1305.05536	0.01765
1303.76959	0.01750
1302.48382	0.01747
1301.19805	0.01750
1299.91228	0.01750
1298.62652	0.01742
1297.34075	0.01729
1296.05498	0.01713
1294.76921	0.01699
1293.48344	0.01688
1292.19767	0.01679
1290.91190	0.01675
1289.62613	0.01672
1288.34036	0.01665
1287.05460	0.01652
1285.76883	0.01636
1284.48306	0.01623
1283.19729	0.01614
1281.91152	0.01607
1280.62575	0.01595
1279.33998	0.01582
1278.05421	0.01571
1276.76845	0.01566
1275.48268	0.01566
1274.19691	0.01567
1272.91114	0.01564
1271.62537	0.01559
1270.33960	0.01552
1269.05383	0.01548
1267.76806	0.01548
1266.48229	0.01551
1265.19653	0.01553
1263.91076	0.01556
1262.62499	0.01560
1261.33922	0.01565
1260.05345	0.01567
1258.76768	0.01563
1257.48191	0.01553
1256.19614	0.01543
1254.91037	0.01536
1253.62461	0.01530
1252.33884	0.01525
1251.05307	0.01518
1249.76730	0.01512
1248.48153	0.01508
1247.19576	0.01505
1245.90999	0.01502
1244.62422	0.01501
1243.33846	0.01503
1242.05269	0.01509
1240.76692	0.01512
1239.48115	0.01509
1238.19538	0.01502
1236.90961	0.01497
1235.62384	0.01498
1234.33807	0.01503
1233.05230	0.01508
1231.76654	0.01509
1230.48077	0.01507
1229.19500	0.01504
1227.90923	0.01502
1226.62346	0.01502
1225.33769	0.01505
1224.05192	0.01509
1222.76615	0.01516
1221.48039	0.01524
1220.19462	0.01533
1218.90885	0.01540
1217.62308	0.01543
1216.33731	0.01542
1215.05154	0.01539
1213.76577	0.01539
1212.48000	0.01542
1211.19423	0.01550
1209.90847	0.01563
1208.62270	0.01577
1207.33693	0.01592
1206.05116	0.01605
1204.76539	0.01618
1203.47962	0.01631
1202.19385	0.01643
1200.90808	0.01652
1199.62232	0.01659
1198.33655	0.01674
1197.05078	0.01684
1195.76501	0.01685
1194.47924	0.01678
1193.19347	0.01671
1191.90770	0.01671
1190.62193	0.01679
1189.33616	0.01695
1188.05040	0.01715
1186.76463	0.01737
1185.47886	0.01757
1184.19309	0.01771
1182.90732	0.01776
1181.62155	0.01777
1180.33578	0.01779
1179.05001	0.01786
1177.76425	0.01796
1176.47848	0.01802
1175.19271	0.01802
1173.90694	0.01800
1172.62117	0.01807
1171.33540	0.01825
1170.04963	0.01851
1168.76386	0.01879
1167.47809	0.01907
1166.19233	0.01934
1164.90656	0.01958
1163.62079	0.01978
1162.33502	0.01996
1161.04925	0.02017
1159.76348	0.02045
1158.47771	0.02079
1157.19194	0.02116
1155.90618	0.02155
1154.62041	0.02194
1153.33464	0.02236
1152.04887	0.02283
1150.76310	0.02334
1149.47733	0.02389
1148.19156	0.02449
1146.90579	0.02517
1145.62002	0.02593
1144.33426	0.02679
1143.04849	0.02778
1141.76272	0.02890
1140.47695	0.03010
1139.19118	0.03138
1137.90541	0.03278
1136.61964	0.03439
1135.33387	0.03620
1134.04811	0.03814
1132.76234	0.04019
1131.47657	0.04240
1130.19080	0.04485
1128.90503	0.04757
1127.61926	0.05059
1126.33349	0.05392
1125.04772	0.05756
1123.76195	0.06145
1122.47619	0.06552
1121.19042	0.06966
1119.90465	0.07382
1118.61888	0.07801
1117.33311	0.08228
1116.04734	0.08665
1114.76157	0.09104
1113.47580	0.09534
1112.19004	0.09945
1110.90427	0.10335
1109.61850	0.10707
1108.33273	0.11068
1107.04696	0.11424
1105.76119	0.11778
1104.47542	0.12129
1103.18965	0.12477
1101.90388	0.12817
1100.61812	0.13146
1099.33235	0.13463
1098.04658	0.13769
1096.76081	0.14068
1095.47504	0.14364
1094.18927	0.14654
1092.90350	0.14928
1091.61773	0.15184
1090.33197	0.15429
1089.04620	0.15675
1087.76043	0.15921
1086.47466	0.16161
1085.18889	0.16392
1083.90312	0.16622
1082.61735	0.16864
1081.33158	0.17126
1080.04581	0.17407
1078.76005	0.17705
1077.47428	0.18020
1076.18851	0.18360
1074.90274	0.18730
1073.61697	0.19131
1072.33120	0.19558
1071.04543	0.20010
1069.75966	0.20486
1068.47390	0.20982
1067.18813	0.21494
1065.90236	0.22014
1064.61659	0.22540
1063.33082	0.23071
1062.04505	0.23609
1060.75928	0.24156
1059.47351	0.24710
1058.18774	0.25268
1056.90198	0.25819
1055.61621	0.26359
1054.33044	0.26890
1053.04467	0.27426
1051.75890	0.27980
1050.47313	0.28556
1049.18736	0.29151
1047.90159	0.29760
1046.61583	0.30381
1045.33006	0.31015
1044.04429	0.31658
1042.75852	0.32309
1041.47275	0.32969
1040.18698	0.33645
1038.90121	0.34341
1037.61544	0.35056
1036.32967	0.35787
1035.04391	0.36524
1033.75814	0.37255
1032.47237	0.37966
1031.18660	0.38638
1029.90083	0.39259
1028.61506	0.39819
1027.32929	0.40312
1026.04352	0.40743
1024.75775	0.41116
1023.47199	0.41427
1022.18622	0.41656
1020.90045	0.41779
1019.61468	0.41787
1018.32891	0.41682
1017.04314	0.41460
1015.75737	0.41107
1014.47160	0.40611
1013.18584	0.39977
1011.90007	0.39221
1010.61430	0.38355
1009.32853	0.37376
1008.04276	0.36281
1006.75699	0.35076
1005.47122	0.33780
1004.18545	0.32413
1002.89968	0.30996
1001.61392	0.29543
1000.32815	0.28064
999.04238	0.26569
997.75661	0.25072
996.47084	0.23591
995.18507	0.22151
993.89930	0.20773
992.61353	0.19467
991.32777	0.18236
990.04200	0.17080
988.75623	0.15997
987.47046	0.14988
986.18469	0.14054
984.89892	0.13197
983.61315	0.12410
982.32738	0.11690
981.04161	0.11036
979.75585	0.10454
978.47008	0.09947
977.18431	0.09512
975.89854	0.09142
974.61277	0.08836
973.32700	0.08601
972.04123	0.08447
970.75546	0.08378
969.46970	0.08393
968.18393	0.08492
966.89816	0.08669
965.61239	0.08906
964.32662	0.09166
963.04085	0.09399
961.75508	0.09559
960.46931	0.09613
959.18354	0.09545
957.89778	0.09362
956.61201	0.09086
955.32624	0.08748
954.04047	0.08380
952.75470	0.08005
951.46893	0.07633
950.18316	0.07269
948.89739	0.06920
947.61163	0.06599
946.32586	0.06313
945.04009	0.06055
943.75432	0.05817
942.46855	0.05596
941.18278	0.05394
939.89701	0.05210
938.61124	0.05039
937.32547	0.04875
936.03971	0.04718
934.75394	0.04573
933.46817	0.04442
932.18240	0.04324
930.89663	0.04218
929.61086	0.04122
928.32509	0.04037
927.03932	0.03961
925.75356	0.03894
924.46779	0.03836
923.18202	0.03786
921.89625	0.03740
920.61048	0.03695
919.32471	0.03653
918.03894	0.03611
916.75317	0.03569
915.46740	0.03524
914.18164	0.03483
912.89587	0.03456
911.61010	0.03441
910.32433	0.03431
909.03856	0.03412
907.75279	0.03378
906.46702	0.03331
905.18125	0.03286
903.89549	0.03256
902.60972	0.03247
901.32395	0.03251
900.03818	0.03255
898.75241	0.03251
897.46664	0.03237
896.18087	0.03220
894.89510	0.03208
893.60933	0.03207
892.32357	0.03222
891.03780	0.03250
889.75203	0.03293
888.46626	0.03356
887.18049	0.03457
885.89472	0.03616
884.60895	0.03854
883.32318	0.04174
882.03742	0.04541
880.75165	0.04890
879.46588	0.05164
878.18011	0.05351
876.89434	0.05494
875.60857	0.05638
874.32280	0.05789
873.03703	0.05902
871.75126	0.05923
870.46550	0.05831
869.17973	0.05643
867.89396	0.05392
866.60819	0.05102
865.32242	0.04794
864.03665	0.04487
862.75088	0.04207
861.46511	0.03972
860.17935	0.03788
858.89358	0.03641
857.60781	0.03517
856.32204	0.03409
855.03627	0.03320
853.75050	0.03254
852.46473	0.03210
851.17896	0.03183
849.89319	0.03164
848.60743	0.03145
847.32166	0.03124
846.03589	0.03103
844.75012	0.03086
843.46435	0.03068
842.17858	0.03044
840.89281	0.03014
839.60704	0.02983
838.32128	0.02957
837.03551	0.02934
835.74974	0.02914
834.46397	0.02896
833.17820	0.02881
831.89243	0.02871
830.60666	0.02864
829.32089	0.02860
828.03512	0.02857
826.74936	0.02855
825.46359	0.02852
824.17782	0.02852
822.89205	0.02858
821.60628	0.02868
820.32051	0.02871
819.03474	0.02861
817.74897	0.02846
816.46321	0.02836
815.17744	0.02834
813.89167	0.02836
812.60590	0.02837
811.32013	0.02834
810.03436	0.02827
808.74859	0.02815
807.46282	0.02804
806.17705	0.02800
804.89129	0.02807
803.60552	0.02816
802.31975	0.02819
801.03398	0.02813
799.74821	0.02805
798.46244	0.02802
797.17667	0.02811
795.89090	0.02829
794.60513	0.02847
793.31937	0.02854
792.03360	0.02850
790.74783	0.02845
789.46206	0.02844
788.17629	0.02848
786.89052	0.02848
785.60475	0.02839
784.31898	0.02823
783.03322	0.02806
781.74745	0.02798
780.46168	0.02805
779.17591	0.02819
777.89014	0.02830
776.60437	0.02833
775.31860	0.02833
774.03283	0.02833
772.74706	0.02835
771.46130	0.02834
770.17553	0.02834
768.88976	0.02839
767.60399	0.02850
766.31822	0.02861
765.03245	0.02867
763.74668	0.02864
762.46091	0.02858
761.17515	0.02852
759.88938	0.02847
758.60361	0.02846
757.31784	0.02851
756.03207	0.02862
754.74630	0.02875
753.46053	0.02886
752.17476	0.02897
750.88899	0.02905
749.60323	0.02909
748.31746	0.02907
747.03169	0.02897
745.74592	0.02878
744.46015	0.02853
743.17438	0.02830
741.88861	0.02817
740.60284	0.02815
739.31708	0.02816
738.03131	0.02819
736.74554	0.02827
735.45977	0.02840
734.17400	0.02852
732.88823	0.02857
731.60246	0.02859
730.31669	0.02866
729.03092	0.02882
727.74516	0.02906
726.45939	0.02931
725.17362	0.02948
723.88785	0.02959
722.60208	0.02959
721.31631	0.02955
720.03054	0.02953
718.74477	0.02957
717.45901	0.02968
716.17324	0.02980
714.88747	0.02984
713.60170	0.02978
712.31593	0.02968
711.03016	0.02959
709.74439	0.02953
708.45862	0.02949
707.17285	0.02947
705.88709	0.02944
704.60132	0.02942
703.31555	0.02941
702.02978	0.02940
700.74401	0.02940
699.45824	0.02938
698.17247	0.02935
696.88670	0.02935
695.60094	0.02943
694.31517	0.02960
693.02940	0.02979
691.74363	0.02994
690.45786	0.03001
689.17209	0.03002
687.88632	0.02999
686.60055	0.02995
685.31478	0.02994
684.02902	0.02999
682.74325	0.03008
681.45748	0.03019
680.17171	0.03028
678.88594	0.03036
677.60017	0.03044
676.31440	0.03054
675.02863	0.03067
673.74287	0.03089
672.45710	0.03118
671.17133	0.03146
669.88556	0.03182
668.59979	0.03251
667.31402	0.03288
666.02825	0.03265
664.74248	0.03260
663.45671	0.03243
662.17095	0.03218
660.88518	0.03204
659.59941	0.03203
658.31364	0.03206
657.02787	0.03208
655.74210	0.03207
654.45633	0.03204
653.17056	0.03207
651.88480	0.03218
650.59903	0.03238
649.31326	0.03266
648.02749	0.03301
646.74172	0.03341
645.45595	0.03380
644.17018	0.03412
642.88441	0.03435
641.59864	0.03456
640.31288	0.03484
639.02711	0.03525
637.74134	0.03576
636.45557	0.03631
635.16980	0.03686
633.88403	0.03738
632.59826	0.03780
631.31249	0.03818
630.02673	0.03892
628.74096	0.03996
627.45519	0.04005
626.16942	0.04168
624.88365	0.04431
623.59788	0.04682
622.31211	0.04898
621.02634	0.05106
619.74057	0.05347
618.45481	0.05647
617.16904	0.06012
615.88327	0.06427
614.59750	0.06871
613.31173	0.07357
612.02596	0.07952
610.74019	0.08716
609.45442	0.09597
608.16866	0.10441
606.88289	0.11135
605.59712	0.11692
604.31135	0.12164
603.02558	0.12535
601.73981	0.12724
600.45404	0.12671
599.16827	0.12388
597.88250	0.11939
596.59674	0.11407
595.31097	0.10873
594.02520	0.10401
592.73943	0.10031
591.45366	0.09776
590.16789	0.09631
588.88212	0.09585
587.59635	0.09629
586.31059	0.09751
585.02482	0.09940
583.73905	0.10186
582.45328	0.10482
581.16751	0.10824
579.88174	0.11208
578.59597	0.11628
577.31020	0.12076
576.02443	0.12538
574.73867	0.13006
573.45290	0.13471
572.16713	0.13931
570.88136	0.14402
569.59559	0.14917
568.30982	0.15507
567.02405	0.16170
565.73828	0.16857
564.45251	0.17493
563.16675	0.17989
561.88098	0.18257
560.59521	0.18216
559.30944	0.17822
558.02367	0.17091
556.73790	0.16104
555.45213	0.14974
554.16636	0.13807
552.88060	0.12675
551.59483	0.11620
550.30906	0.10663
549.02329	0.09819
547.73752	0.09090
546.45175	0.08471
545.16598	0.07939
543.88021	0.07471
542.59444	0.07051
541.30868	0.06675
540.02291	0.06345
538.73714	0.06056
537.45137	0.05797
536.16560	0.05558
534.87983	0.05339
533.59406	0.05141
532.30829	0.04965
531.02253	0.04809
529.73676	0.04673
528.45099	0.04553
527.16522	0.04442
525.87945	0.04330
524.59368	0.04211
523.30791	0.04087
522.02214	0.03965
520.73637	0.03856
519.45061	0.03768
518.16484	0.03702
516.87907	0.03651
515.59330	0.03602
514.30753	0.03547
513.02176	0.03485
511.73599	0.03415
510.45022	0.03342
509.16446	0.03273
507.87869	0.03215
506.59292	0.03165
505.30715	0.03119
504.02138	0.03073
502.73561	0.03030
501.44984	0.02993
500.16407	0.02961
498.87830	0.02932
497.59254	0.02907
496.30677	0.02885
495.02100	0.02865
493.73523	0.02846
492.44946	0.02826
491.16369	0.02806
489.87792	0.02789
488.59215	0.02780
487.30639	0.02778
486.02062	0.02782
484.73485	0.02787
483.44908	0.02792
482.16331	0.02799
480.87754	0.02812
479.59177	0.02833
478.30600	0.02863
477.02023	0.02902
475.73447	0.02946
474.44870	0.02988
473.16293	0.03017
471.87716	0.03030
470.59139	0.03030
469.30562	0.03020
468.01985	0.03006
466.73408	0.02983
465.44832	0.02949
464.16255	0.02907
462.87678	0.02862
461.59101	0.02818
460.30524	0.02779
459.01947	0.02746
457.73370	0.02718
456.44793	0.02690
455.16216	0.02655
453.87640	0.02614
452.59063	0.02573
451.30486	0.02534
450.01909	0.02498
448.73332	0.02466
447.44755	0.02441
446.16178	0.02423
444.87601	0.02414
443.59025	0.02410
442.30448	0.02406
441.01871	0.02398
439.73294	0.02384
438.44717	0.02368
437.16140	0.02354
435.87563	0.02344
434.58986	0.02337
433.30409	0.02331
432.01833	0.02326
430.73256	0.02321
429.44679	0.02315
428.16102	0.02306
426.87525	0.02292
425.58948	0.02274
424.30371	0.02253
423.01794	0.02233
421.73218	0.02219
420.44641	0.02210
419.16064	0.02202
417.87487	0.02194
416.58910	0.02185
415.30333	0.02177
414.01756	0.02171
412.73179	0.02166
411.44602	0.02163
410.16026	0.02163
408.87449	0.02164
407.58872	0.02165
406.30295	0.02168
405.01718	0.02177
403.73141	0.02191
402.44564	0.02209
401.15987	0.02230
399.87411	0.02251
