3997.45528	0.01189
3996.16951	0.01230
3994.88374	0.01258
3993.59798	0.01247
3992.31221	0.01191
3991.02644	0.01120
3989.74067	0.01064
3988.45490	0.01041
3987.16913	0.01051
3985.88336	0.01079
3984.59759	0.01096
3983.31183	0.01073
3982.02606	0.01017
3980.74029	0.00982
3979.45452	0.01029
3978.16875	0.01159
3976.88298	0.01297
3975.59721	0.01359
3974.31144	0.01323
3973.02567	0.01241
3971.73991	0.01185
3970.45414	0.01183
3969.16837	0.01214
3967.88260	0.01250
3966.59683	0.01287
3965.31106	0.01337
3964.02529	0.01401
3962.73952	0.01452
3961.45376	0.01453
3960.16799	0.01392
3958.88222	0.01310
3957.59645	0.01270
3956.31068	0.01296
3955.02491	0.01356
3953.73914	0.01398
3952.45337	0.01410
3951.16760	0.01419
3949.88184	0.01449
3948.59607	0.01489
3947.31030	0.01514
3946.02453	0.01513
3944.73876	0.01494
3943.45299	0.01468
3942.16722	0.01445
3940.88145	0.01443
3939.59569	0.01475
3938.30992	0.01521
3937.02415	0.01539
3935.73838	0.01508
3934.45261	0.01442
3933.16684	0.01375
3931.88107	0.01331
3930.59530	0.01321
3929.30953	0.01338
3928.02377	0.01362
3926.73800	0.01366
3925.45223	0.01335
3924.16646	0.01277
3922.88069	0.01231
3921.59492	0.01241
3920.30915	0.01327
3919.02338	0.01467
3917.73762	0.01598
3916.45185	0.01655
3915.16608	0.01618
3913.88031	0.01524
3912.59454	0.01429
3911.30877	0.01370
3910.02300	0.01347
3908.73723	0.01346
3907.45146	0.01367
3906.16570	0.01412
3904.87993	0.01455
3903.59416	0.01440
3902.30839	0.01340
3901.02262	0.01206
3899.73685	0.01125
3898.45108	0.01149
3897.16531	0.01252
3895.87955	0.01367
3894.59378	0.01454
3893.30801	0.01522
3892.02224	0.01577
3890.73647	0.01590
3889.45070	0.01539
3888.16493	0.01460
3886.87916	0.01401
3885.59339	0.01369
3884.30763	0.01349
3883.02186	0.01343
3881.73609	0.01361
3880.45032	0.01390
3879.16455	0.01419
3877.87878	0.01449
3876.59301	0.01485
3875.30724	0.01507
3874.02148	0.01496
3872.73571	0.01463
3871.44994	0.01433
3870.16417	0.01402
3868.87840	0.01358
3867.59263	0.01330
3866.30686	0.01342
3865.02109	0.01365
3863.73532	0.01358
3862.44956	0.01321
3861.16379	0.01283
3859.87802	0.01268
3858.59225	0.01286
3857.30648	0.01347
3856.02071	0.01447
3854.73494	0.01542
3853.44917	0.01564
3852.16341	0.01498
3850.87764	0.01408
3849.59187	0.01359
3848.30610	0.01370
3847.02033	0.01432
3845.73456	0.01522
3844.44879	0.01610
3843.16302	0.01655
3841.87725	0.01638
3840.59149	0.01578
3839.30572	0.01504
3838.01995	0.01430
3836.73418	0.01364
3835.44841	0.01330
3834.16264	0.01347
3832.87687	0.01398
3831.59110	0.01442
3830.30534	0.01460
3829.01957	0.01454
3827.73380	0.01430
3826.44803	0.01392
3825.16226	0.01361
3823.87649	0.01367
3822.59072	0.01406
3821.30495	0.01431
3820.01918	0.01422
3818.73342	0.01419
3817.44765	0.01452
3816.16188	0.01488
3814.87611	0.01498
3813.59034	0.01511
3812.30457	0.01555
3811.01880	0.01613
3809.73303	0.01665
3808.44726	0.01706
3807.16150	0.01715
3805.87573	0.01692
3804.58996	0.01691
3803.30419	0.01751
3802.01842	0.01812
3800.73265	0.01792
3799.44688	0.01705
3798.16111	0.01626
3796.87535	0.01568
3795.58958	0.01490
3794.30381	0.01389
3793.01804	0.01318
3791.73227	0.01313
3790.44650	0.01361
3789.16073	0.01421
3787.87496	0.01466
3786.58919	0.01495
3785.30343	0.01513
3784.01766	0.01515
3782.73189	0.01498
3781.44612	0.01464
3780.16035	0.01415
3778.87458	0.01346
3777.58881	0.01271
3776.30304	0.01220
3775.01728	0.01221
3773.73151	0.01267
3772.44574	0.01331
3771.15997	0.01377
3769.87420	0.01374
3768.58843	0.01329
3767.30266	0.01290
3766.01689	0.01304
3764.73112	0.01381
3763.44536	0.01485
3762.15959	0.01560
3760.87382	0.01551
3759.58805	0.01444
3758.30228	0.01290
3757.01651	0.01171
3755.73074	0.01141
3754.44497	0.01197
3753.15921	0.01285
3751.87344	0.01346
3750.58767	0.01372
3749.30190	0.01381
3748.01613	0.01402
3746.73036	0.01455
3745.44459	0.01510
3744.15882	0.01501
3742.87305	0.01440
3741.58729	0.01410
3740.30152	0.01429
3739.01575	0.01432
3737.72998	0.01378
3736.44421	0.01296
3735.15844	0.01253
3733.87267	0.01300
3732.58690	0.01411
3731.30114	0.01504
3730.01537	0.01531
3728.72960	0.01519
3727.44383	0.01511
3726.15806	0.01506
3724.87229	0.01483
3723.58652	0.01427
3722.30075	0.01342
3721.01498	0.01256
3719.72922	0.01213
3718.44345	0.01244
3717.15768	0.01336
3715.87191	0.01441
3714.58614	0.01511
3713.30037	0.01516
3712.01460	0.01457
3710.72883	0.01372
3709.44307	0.01319
3708.15730	0.01335
3706.87153	0.01400
3705.58576	0.01470
3704.29999	0.01517
3703.01422	0.01540
3701.72845	0.01548
3700.44268	0.01541
3699.15691	0.01523
3697.87115	0.01510
3696.58538	0.01515
3695.29961	0.01531
3694.01384	0.01541
3692.72807	0.01536
3691.44230	0.01516
3690.15653	0.01493
3688.87076	0.01486
3687.58500	0.01493
3686.29923	0.01506
3685.01346	0.01519
3683.72769	0.01523
3682.44192	0.01523
3681.15615	0.01536
3679.87038	0.01569
3678.58461	0.01624
3677.29884	0.01687
3676.01308	0.01697
3674.72731	0.01609
3673.44154	0.01483
3672.15577	0.01426
3670.87000	0.01450
3669.58423	0.01483
3668.29846	0.01484
3667.01269	0.01482
3665.72693	0.01504
3664.44116	0.01543
3663.15539	0.01574
3661.86962	0.01590
3660.58385	0.01614
3659.29808	0.01659
3658.01231	0.01702
3656.72654	0.01693
3655.44077	0.01615
3654.15501	0.01516
3652.86924	0.01450
3651.58347	0.01421
3650.29770	0.01399
3649.01193	0.01378
3647.72616	0.01384
3646.44039	0.01434
3645.15462	0.01518
3643.86886	0.01607
3642.58309	0.01676
3641.29732	0.01723
3640.01155	0.01753
3638.72578	0.01768
3637.44001	0.01762
3636.15424	0.01734
3634.86847	0.01685
3633.58270	0.01614
3632.29694	0.01538
3631.01117	0.01492
3629.72540	0.01498
3628.43963	0.01542
3627.15386	0.01605
3625.86809	0.01674
3624.58232	0.01740
3623.29655	0.01799
3622.01079	0.01862
3620.72502	0.01924
3619.43925	0.01959
3618.15348	0.01945
3616.86771	0.01897
3615.58194	0.01839
3614.29617	0.01788
3613.01040	0.01759
3611.72463	0.01776
3610.43887	0.01842
3609.15310	0.01917
3607.86733	0.01952
3606.58156	0.01929
3605.29579	0.01868
3604.01002	0.01806
3602.72425	0.01782
3601.43848	0.01822
3600.15272	0.01913
3598.86695	0.02006
3597.58118	0.02059
3596.29541	0.02065
3595.00964	0.02037
3593.72387	0.01987
3592.43810	0.01941
3591.15233	0.01946
3589.86656	0.02022
3588.58080	0.02127
3587.29503	0.02191
3586.00926	0.02176
3584.72349	0.02116
3583.43772	0.02070
3582.15195	0.02066
3580.86618	0.02091
3579.58041	0.02120
3578.29464	0.02146
3577.00888	0.02180
3575.72311	0.02228
3574.43734	0.02265
3573.15157	0.02252
3571.86580	0.02182
3570.58003	0.02105
3569.29426	0.02084
3568.00849	0.02137
3566.72273	0.02222
3565.43696	0.02289
3564.15119	0.02320
3562.86542	0.02317
3561.57965	0.02292
3560.29388	0.02257
3559.00811	0.02227
3557.72234	0.02219
3556.43657	0.02239
3555.15081	0.02280
3553.86504	0.02319
3552.57927	0.02337
3551.29350	0.02330
3550.00773	0.02321
3548.72196	0.02339
3547.43619	0.02397
3546.15042	0.02467
3544.86466	0.02507
3543.57889	0.02493
3542.29312	0.02448
3541.00735	0.02405
3539.72158	0.02381
3538.43581	0.02372
3537.15004	0.02375
3535.86427	0.02403
3534.57850	0.02472
3533.29274	0.02571
3532.00697	0.02657
3530.72120	0.02678
3529.43543	0.02625
3528.14966	0.02547
3526.86389	0.02511
3525.57812	0.02541
3524.29235	0.02599
3523.00659	0.02631
3521.72082	0.02624
3520.43505	0.02604
3519.14928	0.02606
3517.86351	0.02639
3516.57774	0.02689
3515.29197	0.02738
3514.00620	0.02771
3512.72043	0.02788
3511.43467	0.02789
3510.14890	0.02778
3508.86313	0.02763
3507.57736	0.02755
3506.29159	0.02757
3505.00582	0.02760
3503.72005	0.02757
3502.43428	0.02753
3501.14852	0.02758
3499.86275	0.02773
3498.57698	0.02789
3497.29121	0.02787
3496.00544	0.02764
3494.71967	0.02736
3493.43390	0.02723
3492.14813	0.02736
3490.86236	0.02772
3489.57660	0.02818
3488.29083	0.02860
3487.00506	0.02884
3485.71929	0.02887
3484.43352	0.02882
3483.14775	0.02884
3481.86198	0.02894
3480.57621	0.02911
3479.29045	0.02941
3478.00468	0.02993
3476.71891	0.03055
3475.43314	0.03099
3474.14737	0.03113
3472.86160	0.03106
3471.57583	0.03101
3470.29006	0.03103
3469.00429	0.03108
3467.71853	0.03112
3466.43276	0.03118
3465.14699	0.03126
3463.86122	0.03131
3462.57545	0.03127
3461.28968	0.03108
3460.00391	0.03080
3458.71814	0.03053
3457.43238	0.03040
3456.14661	0.03047
3454.86084	0.03076
3453.57507	0.03130
3452.28930	0.03197
3451.00353	0.03248
3449.71776	0.03254
3448.43199	0.03213
3447.14622	0.03151
3445.86046	0.03104
3444.57469	0.03089
3443.28892	0.03098
3442.00315	0.03114
3440.71738	0.03130
3439.43161	0.03152
3438.14584	0.03185
3436.86007	0.03231
3435.57431	0.03283
3434.28854	0.03323
3433.00277	0.03340
3431.71700	0.03337
3430.43123	0.03341
3429.14546	0.03370
3427.85969	0.03412
3426.57392	0.03432
3425.28815	0.03417
3424.00239	0.03385
3422.71662	0.03369
3421.43085	0.03370
3420.14508	0.03364
3418.85931	0.03335
3417.57354	0.03303
3416.28777	0.03304
3415.00200	0.03346
3413.71624	0.03401
3412.43047	0.03427
3411.14470	0.03412
3409.85893	0.03388
3408.57316	0.03395
3407.28739	0.03440
3406.00162	0.03499
3404.71585	0.03546
3403.43008	0.03579
3402.14432	0.03607
3400.85855	0.03630
3399.57278	0.03635
3398.28701	0.03608
3397.00124	0.03563
3395.71547	0.03536
3394.42970	0.03553
3393.14393	0.03594
3391.85817	0.03606
3390.57240	0.03552
3389.28663	0.03456
3388.00086	0.03376
3386.71509	0.03348
3385.42932	0.03363
3384.14355	0.03394
3382.85778	0.03427
3381.57201	0.03465
3380.28625	0.03508
3379.00048	0.03546
3377.71471	0.03568
3376.42894	0.03572
3375.14317	0.03555
3373.85740	0.03519
3372.57163	0.03487
3371.28586	0.03486
3370.00010	0.03523
3368.71433	0.03578
3367.42856	0.03622
3366.14279	0.03639
3364.85702	0.03634
3363.57125	0.03616
3362.28548	0.03591
3360.99971	0.03563
3359.71394	0.03536
3358.42818	0.03516
3357.14241	0.03513
3355.85664	0.03537
3354.57087	0.03589
3353.28510	0.03644
3351.99933	0.03669
3350.71356	0.03651
3349.42779	0.03606
3348.14202	0.03562
3346.85626	0.03529
3345.57049	0.03509
3344.28472	0.03513
3342.99895	0.03550
3341.71318	0.03608
3340.42741	0.03651
3339.14164	0.03649
3337.85587	0.03606
3336.57011	0.03556
3335.28434	0.03530
3333.99857	0.03531
3332.71280	0.03535
3331.42703	0.03523
3330.14126	0.03508
3328.85549	0.03523
3327.56972	0.03579
3326.28395	0.03653
3324.99819	0.03704
3323.71242	0.03709
3322.42665	0.03677
3321.14088	0.03627
3319.85511	0.03581
3318.56934	0.03554
3317.28357	0.03550
3315.99780	0.03570
3314.71204	0.03615
3313.42627	0.03681
3312.14050	0.03749
3310.85473	0.03788
3309.56896	0.03783
3308.28319	0.03746
3306.99742	0.03703
3305.71165	0.03676
3304.42588	0.03671
3303.14012	0.03688
3301.85435	0.03714
3300.56858	0.03732
3299.28281	0.03725
3297.99704	0.03688
3296.71127	0.03633
3295.42550	0.03582
3294.13973	0.03558
3292.85397	0.03566
3291.56820	0.03589
3290.28243	0.03606
3288.99666	0.03611
3287.71089	0.03609
3286.42512	0.03604
3285.13935	0.03605
3283.85358	0.03619
3282.56781	0.03655
3281.28205	0.03705
3279.99628	0.03749
3278.71051	0.03768
3277.42474	0.03754
3276.13897	0.03714
3274.85320	0.03663
3273.56743	0.03618
3272.28166	0.03596
3270.99590	0.03602
3269.71013	0.03630
3268.42436	0.03663
3267.13859	0.03683
3265.85282	0.03682
3264.56705	0.03669
3263.28128	0.03662
3261.99551	0.03678
3260.70974	0.03705
3259.42398	0.03712
3258.13821	0.03679
3256.85244	0.03623
3255.56667	0.03583
3254.28090	0.03577
3252.99513	0.03593
3251.70936	0.03605
3250.42359	0.03606
3249.13783	0.03606
3247.85206	0.03615
3246.56629	0.03621
3245.28052	0.03606
3243.99475	0.03571
3242.70898	0.03538
3241.42321	0.03527
3240.13744	0.03537
3238.85167	0.03552
3237.56591	0.03558
3236.28014	0.03561
3234.99437	0.03571
3233.70860	0.03585
3232.42283	0.03590
3231.13706	0.03579
3229.85129	0.03559
3228.56552	0.03547
3227.27976	0.03552
3225.99399	0.03571
3224.70822	0.03594
3223.42245	0.03607
3222.13668	0.03605
3220.85091	0.03588
3219.56514	0.03559
3218.27937	0.03524
3216.99360	0.03484
3215.70784	0.03440
3214.42207	0.03394
3213.13630	0.03349
3211.85053	0.03310
3210.56476	0.03282
3209.27899	0.03280
3207.99322	0.03319
3206.70745	0.03388
3205.42169	0.03443
3204.13592	0.03438
3202.85015	0.03370
3201.56438	0.03288
3200.27861	0.03246
3198.99284	0.03266
3197.70707	0.03321
3196.42130	0.03370
3195.13553	0.03391
3193.84977	0.03399
3192.56400	0.03422
3191.27823	0.03465
3189.99246	0.03507
3188.70669	0.03527
3187.42092	0.03535
3186.13515	0.03540
3184.84938	0.03528
3183.56362	0.03481
3182.27785	0.03412
3180.99208	0.03359
3179.70631	0.03341
3178.42054	0.03334
3177.13477	0.03311
3175.84900	0.03276
3174.56323	0.03259
3173.27746	0.03272
3171.99170	0.03298
3170.70593	0.03314
3169.42016	0.03317
3168.13439	0.03314
3166.84862	0.03305
3165.56285	0.03288
3164.27708	0.03267
3162.99131	0.03254
3161.70555	0.03252
3160.41978	0.03255
3159.13401	0.03260
3157.84824	0.03269
3156.56247	0.03278
3155.27670	0.03273
3153.99093	0.03248
3152.70516	0.03213
3151.41939	0.03187
3150.13363	0.03186
3148.84786	0.03216
3147.56209	0.03266
3146.27632	0.03323
3144.99055	0.03367
3143.70478	0.03381
3142.41901	0.03357
3141.13324	0.03304
3139.84748	0.03249
3138.56171	0.03220
3137.27594	0.03219
3135.99017	0.03225
3134.70440	0.03221
3133.41863	0.03207
3132.13286	0.03197
3130.84709	0.03195
3129.56132	0.03195
3128.27556	0.03189
3126.98979	0.03178
3125.70402	0.03174
3124.41825	0.03188
3123.13248	0.03216
3121.84671	0.03235
3120.56094	0.03222
3119.27517	0.03172
3117.98940	0.03106
3116.70364	0.03062
3115.41787	0.03063
3114.13210	0.03100
3112.84633	0.03140
3111.56056	0.03158
3110.27479	0.03152
3108.98902	0.03132
3107.70325	0.03098
3106.41749	0.03054
3105.13172	0.03022
3103.84595	0.03030
3102.56018	0.03082
3101.27441	0.03146
3099.98864	0.03186
3098.70287	0.03193
3097.41710	0.03183
3096.13133	0.03169
3094.84557	0.03157
3093.55980	0.03149
3092.27403	0.03142
3090.98826	0.03134
3089.70249	0.03127
3088.41672	0.03130
3087.13095	0.03148
3085.84518	0.03170
3084.55942	0.03173
3083.27365	0.03145
3081.98788	0.03099
3080.70211	0.03061
3079.41634	0.03043
3078.13057	0.03039
3076.84480	0.03036
3075.55903	0.03028
3074.27326	0.03015
3072.98750	0.03003
3071.70173	0.03001
3070.41596	0.03013
3069.13019	0.03040
3067.84442	0.03075
3066.55865	0.03112
3065.27288	0.03138
3063.98711	0.03147
3062.70135	0.03139
3061.41558	0.03119
3060.12981	0.03091
3058.84404	0.03059
3057.55827	0.03032
3056.27250	0.03019
3054.98673	0.03023
3053.70096	0.03034
3052.41519	0.03037
3051.12943	0.03022
3049.84366	0.02994
3048.55789	0.02967
3047.27212	0.02956
3045.98635	0.02961
3044.70058	0.02971
3043.41481	0.02973
3042.12904	0.02965
3040.84328	0.02955
3039.55751	0.02959
3038.27174	0.02989
3036.98597	0.03040
3035.70020	0.03089
3034.41443	0.03109
3033.12866	0.03090
3031.84289	0.03042
3030.55712	0.02985
3029.27136	0.02937
3027.98559	0.02910
3026.69982	0.02909
3025.41405	0.02924
3024.12828	0.02937
3022.84251	0.02933
3021.55674	0.02915
3020.27097	0.02897
3018.98521	0.02884
3017.69944	0.02869
3016.41367	0.02844
3015.12790	0.02812
3013.84213	0.02788
3012.55636	0.02786
3011.27059	0.02800
3009.98482	0.02810
3008.69905	0.02798
3007.41329	0.02768
3006.12752	0.02748
3004.84175	0.02765
3003.55598	0.02816
3002.27021	0.02868
3000.98444	0.02890
2999.69867	0.02880
2998.41290	0.02860
2997.12714	0.02856
2995.84137	0.02865
2994.55560	0.02868
2993.26983	0.02854
2991.98406	0.02825
2990.69829	0.02797
2989.41252	0.02788
2988.12675	0.02802
2986.84098	0.02826
2985.55522	0.02834
2984.26945	0.02810
2982.98368	0.02763
2981.69791	0.02716
2980.41214	0.02693
2979.12637	0.02703
2977.84060	0.02731
2976.55483	0.02758
2975.26907	0.02767
2973.98330	0.02754
2972.69753	0.02730
2971.41176	0.02717
2970.12599	0.02728
2968.84022	0.02754
2967.55445	0.02776
2966.26868	0.02792
2964.98291	0.02809
2963.69715	0.02829
2962.41138	0.02843
2961.12561	0.02846
2959.83984	0.02843
2958.55407	0.02842
2957.26830	0.02852
2955.98253	0.02884
2954.69676	0.02937
2953.41100	0.02985
2952.12523	0.03004
2950.83946	0.02992
2949.55369	0.02970
2948.26792	0.02958
2946.98215	0.02958
2945.69638	0.02959
2944.41061	0.02953
2943.12484	0.02944
2941.83908	0.02939
2940.55331	0.02930
2939.26754	0.02911
2937.98177	0.02886
2936.69600	0.02863
2935.41023	0.02836
2934.12446	0.02788
2932.83869	0.02715
2931.55293	0.02627
2930.26716	0.02542
2928.98139	0.02471
2927.69562	0.02417
2926.40985	0.02368
2925.12408	0.02306
2923.83831	0.02219
2922.55254	0.02117
2921.26677	0.02016
2919.98101	0.01928
2918.69524	0.01864
2917.40947	0.01839
2916.12370	0.01872
2914.83793	0.01975
2913.55216	0.02132
2912.26639	0.02308
2910.98062	0.02465
2909.69486	0.02576
2908.40909	0.02635
2907.12332	0.02654
2905.83755	0.02661
2904.55178	0.02676
2903.26601	0.02705
2901.98024	0.02739
2900.69447	0.02773
2899.40870	0.02803
2898.12294	0.02829
2896.83717	0.02848
2895.55140	0.02863
2894.26563	0.02873
2892.97986	0.02875
2891.69409	0.02865
2890.40832	0.02849
2889.12255	0.02839
2887.83678	0.02842
2886.55102	0.02850
2885.26525	0.02849
2883.97948	0.02843
2882.69371	0.02847
2881.40794	0.02861
2880.12217	0.02870
2878.83640	0.02865
2877.55063	0.02854
2876.26487	0.02854
2874.97910	0.02869
2873.69333	0.02889
2872.40756	0.02905
2871.12179	0.02909
2869.83602	0.02902
2868.55025	0.02887
2867.26448	0.02872
2865.97871	0.02858
2864.69295	0.02842
2863.40718	0.02816
2862.12141	0.02781
2860.83564	0.02743
2859.54987	0.02703
2858.26410	0.02646
2856.97833	0.02557
2855.69256	0.02441
2854.40680	0.02319
2853.12103	0.02207
2851.83526	0.02112
2850.54949	0.02049
2849.26372	0.02039
2847.97795	0.02096
2846.69218	0.02212
2845.40641	0.02356
2844.12064	0.02491
2842.83488	0.02592
2841.54911	0.02650
2840.26334	0.02676
2838.97757	0.02690
2837.69180	0.02702
2836.40603	0.02710
2835.12026	0.02708
2833.83449	0.02696
2832.54873	0.02673
2831.26296	0.02642
2829.97719	0.02615
2828.69142	0.02607
2827.40565	0.02624
2826.11988	0.02653
2824.83411	0.02674
2823.54834	0.02677
2822.26257	0.02665
2820.97681	0.02646
2819.69104	0.02629
2818.40527	0.02614
2817.11950	0.02598
2815.83373	0.02581
2814.54796	0.02568
2813.26219	0.02568
2811.97642	0.02580
2810.69066	0.02599
2809.40489	0.02613
2808.11912	0.02615
2806.83335	0.02606
2805.54758	0.02595
2804.26181	0.02586
2802.97604	0.02576
2801.69027	0.02561
2800.40450	0.02548
2799.11874	0.02537
2797.83297	0.02525
2796.54720	0.02502
2795.26143	0.02475
2793.97566	0.02455
2792.68989	0.02452
2791.40412	0.02462
2790.11835	0.02473
2788.83259	0.02474
2787.54682	0.02460
2786.26105	0.02439
2784.97528	0.02418
2783.68951	0.02406
2782.40374	0.02405
2781.11797	0.02418
2779.83220	0.02446
2778.54643	0.02486
2777.26067	0.02523
2775.97490	0.02543
2774.68913	0.02543
2773.40336	0.02526
2772.11759	0.02500
2770.83182	0.02468
2769.54605	0.02434
2768.26028	0.02404
2766.97452	0.02390
2765.68875	0.02397
2764.40298	0.02418
2763.11721	0.02440
2761.83144	0.02452
2760.54567	0.02450
2759.25990	0.02434
2757.97413	0.02411
2756.68836	0.02395
2755.40260	0.02398
2754.11683	0.02420
2752.83106	0.02440
2751.54529	0.02436
2750.25952	0.02407
2748.97375	0.02374
2747.68798	0.02357
2746.40221	0.02358
2745.11645	0.02363
2743.83068	0.02359
2742.54491	0.02349
2741.25914	0.02339
2739.97337	0.02326
2738.68760	0.02308
2737.40183	0.02293
2736.11606	0.02288
2734.83029	0.02293
2733.54453	0.02303
2732.25876	0.02313
2730.97299	0.02320
2729.68722	0.02321
2728.40145	0.02320
2727.11568	0.02323
2725.82991	0.02333
2724.54414	0.02342
2723.25838	0.02340
2721.97261	0.02329
2720.68684	0.02316
2719.40107	0.02309
2718.11530	0.02306
2716.82953	0.02296
2715.54376	0.02279
2714.25799	0.02266
2712.97222	0.02271
2711.68646	0.02291
2710.40069	0.02310
2709.11492	0.02310
2707.82915	0.02287
2706.54338	0.02256
2705.25761	0.02239
2703.97184	0.02244
2702.68607	0.02262
2701.40031	0.02277
2700.11454	0.02284
2698.82877	0.02282
2697.54300	0.02274
2696.25723	0.02258
2694.97146	0.02238
2693.68569	0.02223
2692.39992	0.02217
2691.11415	0.02223
2689.82839	0.02233
2688.54262	0.02241
2687.25685	0.02243
2685.97108	0.02238
2684.68531	0.02225
2683.39954	0.02207
2682.11377	0.02191
2680.82800	0.02181
2679.54224	0.02176
2678.25647	0.02172
2676.97070	0.02165
2675.68493	0.02158
2674.39916	0.02159
2673.11339	0.02170
2671.82762	0.02182
2670.54185	0.02188
2669.25608	0.02188
2667.97032	0.02189
2666.68455	0.02195
2665.39878	0.02208
2664.11301	0.02224
2662.82724	0.02234
2661.54147	0.02231
2660.25570	0.02219
2658.96993	0.02210
2657.68417	0.02206
2656.39840	0.02202
2655.11263	0.02189
2653.82686	0.02170
2652.54109	0.02149
2651.25532	0.02127
2649.96955	0.02109
2648.68378	0.02100
2647.39801	0.02098
2646.11225	0.02095
2644.82648	0.02090
2643.54071	0.02091
2642.25494	0.02102
2640.96917	0.02113
2639.68340	0.02109
2638.39763	0.02094
2637.11186	0.02082
2635.82609	0.02082
2634.54033	0.02089
2633.25456	0.02097
2631.96879	0.02104
2630.68302	0.02106
2629.39725	0.02092
2628.11148	0.02053
2626.82571	0.01996
2625.53994	0.01949
2624.25418	0.01934
2622.96841	0.01953
2621.68264	0.01985
2620.39687	0.02005
2619.11110	0.02000
2617.82533	0.01972
2616.53956	0.01932
2615.25379	0.01893
2613.96802	0.01865
2612.68226	0.01863
2611.39649	0.01882
2610.11072	0.01901
2608.82495	0.01896
2607.53918	0.01875
2606.25341	0.01872
2604.96764	0.01903
2603.68187	0.01954
2602.39611	0.01989
2601.11034	0.01987
2599.82457	0.01954
2598.53880	0.01911
2597.25303	0.01875
2595.96726	0.01854
2594.68149	0.01849
2593.39572	0.01862
2592.10995	0.01893
2590.82419	0.01928
2589.53842	0.01942
2588.25265	0.01914
2586.96688	0.01852
2585.68111	0.01787
2584.39534	0.01757
2583.10957	0.01775
2581.82380	0.01819
2580.53804	0.01848
2579.25227	0.01840
2577.96650	0.01808
2576.68073	0.01785
2575.39496	0.01790
2574.10919	0.01809
2572.82342	0.01821
2571.53765	0.01820
2570.25188	0.01816
2568.96612	0.01812
2567.68035	0.01804
2566.39458	0.01788
2565.10881	0.01770
2563.82304	0.01758
2562.53727	0.01756
2561.25150	0.01761
2559.96573	0.01771
2558.67997	0.01781
2557.39420	0.01791
2556.10843	0.01800
2554.82266	0.01808
2553.53689	0.01812
2552.25112	0.01805
2550.96535	0.01784
2549.67958	0.01757
2548.39381	0.01738
2547.10805	0.01734
2545.82228	0.01740
2544.53651	0.01740
2543.25074	0.01723
2541.96497	0.01692
2540.67920	0.01663
2539.39343	0.01656
2538.10766	0.01678
2536.82190	0.01713
2535.53613	0.01742
2534.25036	0.01752
2532.96459	0.01746
2531.67882	0.01731
2530.39305	0.01714
2529.10728	0.01708
2527.82151	0.01722
2526.53574	0.01748
2525.24998	0.01761
2523.96421	0.01743
2522.67844	0.01708
2521.39267	0.01681
2520.10690	0.01672
2518.82113	0.01665
2517.53536	0.01648
2516.24959	0.01628
2514.96383	0.01630
2513.67806	0.01667
2512.39229	0.01726
2511.10652	0.01779
2509.82075	0.01801
2508.53498	0.01789
2507.24921	0.01759
2505.96344	0.01722
2504.67767	0.01679
2503.39191	0.01636
2502.10614	0.01611
2500.82037	0.01617
2499.53460	0.01639
2498.24883	0.01652
2496.96306	0.01645
2495.67729	0.01632
2494.39152	0.01636
2493.10576	0.01663
2491.81999	0.01702
2490.53422	0.01734
2489.24845	0.01747
2487.96268	0.01735
2486.67691	0.01708
2485.39114	0.01678
2484.10537	0.01655
2482.81960	0.01642
2481.53384	0.01639
2480.24807	0.01638
2478.96230	0.01629
2477.67653	0.01610
2476.39076	0.01594
2475.10499	0.01595
2473.81922	0.01612
2472.53345	0.01635
2471.24769	0.01654
2469.96192	0.01668
2468.67615	0.01681
2467.39038	0.01698
2466.10461	0.01713
2464.81884	0.01704
2463.53307	0.01663
2462.24730	0.01612
2460.96153	0.01581
2459.67577	0.01570
2458.39000	0.01553
2457.10423	0.01524
2455.81846	0.01507
2454.53269	0.01523
2453.24692	0.01554
2451.96115	0.01569
2450.67538	0.01565
2449.38962	0.01564
2448.10385	0.01576
2446.81808	0.01584
2445.53231	0.01580
2444.24654	0.01575
2442.96077	0.01584
2441.67500	0.01598
2440.38923	0.01593
2439.10346	0.01560
2437.81770	0.01517
2436.53193	0.01489
2435.24616	0.01482
2433.96039	0.01489
2432.67462	0.01505
2431.38885	0.01530
2430.10308	0.01561
2428.81731	0.01588
2427.53155	0.01605
2426.24578	0.01607
2424.96001	0.01595
2423.67424	0.01575
2422.38847	0.01561
2421.10270	0.01567
2419.81693	0.01588
2418.53116	0.01603
2417.24539	0.01602
2415.95963	0.01596
2414.67386	0.01597
2413.38809	0.01603
2412.10232	0.01599
2410.81655	0.01574
2409.53078	0.01540
2408.24501	0.01513
2406.95924	0.01506
2405.67347	0.01514
2404.38771	0.01532
2403.10194	0.01559
2401.81617	0.01589
2400.53040	0.01615
2399.24463	0.01617
2397.95886	0.01616
2396.67309	0.01607
2395.38732	0.01588
2394.10156	0.01566
2392.81579	0.01560
2391.53002	0.01577
2390.24425	0.01608
2388.95848	0.01633
2387.67271	0.01640
2386.38694	0.01632
2385.10117	0.01622
2383.81540	0.01616
2382.52964	0.01621
2381.24387	0.01640
2379.95810	0.01676
2378.67233	0.01723
2377.38656	0.01769
2376.10079	0.01800
2374.81502	0.01809
2373.52925	0.01804
2372.24349	0.01798
2370.95772	0.01817
2369.67195	0.01863
2368.38618	0.01928
2367.10041	0.01988
2365.81464	0.02021
2364.52887	0.02003
2363.24310	0.01962
2361.95733	0.01941
2360.67157	0.01966
2359.38580	0.02003
2358.10003	0.02025
2356.81426	0.02021
2355.52849	0.01999
2354.24272	0.01979
2352.95695	0.01961
2351.67118	0.01951
2350.38542	0.01942
2349.09965	0.01920
2347.81388	0.01884
2346.52811	0.01875
2345.24234	0.01893
2343.95657	0.01903
2342.67080	0.01887
2341.38503	0.01894
2340.09926	0.01941
2338.81350	0.01966
2337.52773	0.01954
2336.24196	0.01972
2334.95619	0.02017
2333.67042	0.02017
2332.38465	0.01978
2331.09888	0.02005
2329.81311	0.02054
2328.52735	0.02049
2327.24158	0.02103
2325.95581	0.02161
2324.67004	0.02105
2323.38427	0.02034
2322.09850	0.01985
2320.81273	0.01882
2319.52696	0.01825
2318.24119	0.01803
2316.95543	0.01748
2315.66966	0.01720
2314.38389	0.01702
2313.09812	0.01662
2311.81235	0.01649
2310.52658	0.01636
2309.24081	0.01630
2307.95504	0.01640
2306.66928	0.01632
2305.38351	0.01623
2304.09774	0.01613
2302.81197	0.01610
2301.52620	0.01626
2300.24043	0.01633
2298.95466	0.01620
2297.66889	0.01595
2296.38312	0.01586
2295.09736	0.01610
2293.81159	0.01644
2292.52582	0.01659
2291.24005	0.01637
2289.95428	0.01589
2288.66851	0.01531
2287.38274	0.01482
2286.09697	0.01454
2284.81121	0.01446
2283.52544	0.01442
2282.23967	0.01419
2280.95390	0.01373
2279.66813	0.01313
2278.38236	0.01258
2277.09659	0.01223
2275.81082	0.01224
2274.52505	0.01257
2273.23929	0.01297
2271.95352	0.01312
2270.66775	0.01299
2269.38198	0.01278
2268.09621	0.01270
2266.81044	0.01273
2265.52467	0.01284
2264.23890	0.01308
2262.95314	0.01346
2261.66737	0.01373
2260.38160	0.01354
2259.09583	0.01289
2257.81006	0.01216
2256.52429	0.01174
2255.23852	0.01165
2253.95275	0.01166
2252.66698	0.01174
2251.38122	0.01206
2250.09545	0.01251
2248.80968	0.01286
2247.52391	0.01357
2246.23814	0.01368
2244.95237	0.01313
2243.66660	0.01233
2242.38083	0.01165
2241.09507	0.01118
2239.80930	0.01078
2238.52353	0.01044
2237.23776	0.01040
2235.95199	0.01083
2234.66622	0.01152
2233.38045	0.01205
2232.09468	0.01211
2230.80891	0.01168
2229.52315	0.01089
2228.23738	0.00999
2226.95161	0.00919
2225.66584	0.00863
2224.38007	0.00825
2223.09430	0.00799
2221.80853	0.00780
2220.52276	0.00767
2219.23700	0.00752
2217.95123	0.00753
2216.66546	0.00807
2215.37969	0.00933
2214.09392	0.01084
2212.80815	0.01169
2211.52238	0.01148
2210.23661	0.01078
2208.95084	0.01042
2207.66508	0.01048
2206.37931	0.01033
2205.09354	0.00960
2203.80777	0.00866
2202.52200	0.00812
2201.23623	0.00814
2199.95046	0.00844
2198.66469	0.00870
2197.37893	0.00873
2196.09316	0.00858
2194.80739	0.00842
2193.52162	0.00842
2192.23585	0.00866
2190.95008	0.00906
2189.66431	0.00947
2188.37854	0.00984
2187.09277	0.01023
2185.80701	0.01070
2184.52124	0.01099
2183.23547	0.01062
2181.94970	0.00949
2180.66393	0.00811
2179.37816	0.00695
2178.09239	0.00591
2176.80662	0.00481
2175.52085	0.00402
2174.23509	0.00411
2172.94932	0.00500
2171.66355	0.00600
2170.37778	0.00654
2169.09201	0.00649
2167.80624	0.00591
2166.52047	0.00485
2165.23470	0.00363
2163.94894	0.00281
2162.66317	0.00267
2161.37740	0.00295
2160.09163	0.00327
2158.80586	0.00351
2157.52009	0.00366
2156.23432	0.00354
2154.94855	0.00291
2153.66278	0.00181
2152.37702	0.00080
2151.09125	0.00071
2149.80548	0.00198
2148.51971	0.00423
2147.23394	0.00653
2145.94817	0.00817
2144.66240	0.00904
2143.37663	0.00924
2142.09087	0.00887
2140.80510	0.00819
2139.51933	0.00762
2138.23356	0.00743
2136.94779	0.00750
2135.66202	0.00757
2134.37625	0.00761
2133.09048	0.00775
2131.80471	0.00802
2130.51895	0.00829
2129.23318	0.00847
2127.94741	0.00845
2126.66164	0.00820
2125.37587	0.00781
2124.09010	0.00752
2122.80433	0.00753
2121.51856	0.00780
2120.23280	0.00810
2118.94703	0.00822
2117.66126	0.00814
2116.37549	0.00802
2115.08972	0.00802
2113.80395	0.00816
2112.51818	0.00835
2111.23241	0.00844
2109.94664	0.00843
2108.66088	0.00848
2107.37511	0.00869
2106.08934	0.00897
2104.80357	0.00905
2103.51780	0.00874
2102.23203	0.00807
2100.94626	0.00720
2099.66049	0.00641
2098.37473	0.00605
2097.08896	0.00619
2095.80319	0.00655
2094.51742	0.00685
2093.23165	0.00700
2091.94588	0.00714
2090.66011	0.00733
2089.37434	0.00754
2088.08857	0.00775
2086.80281	0.00796
2085.51704	0.00814
2084.23127	0.00817
2082.94550	0.00798
2081.65973	0.00769
2080.37396	0.00754
2079.08819	0.00771
2077.80242	0.00811
2076.51666	0.00850
2075.23089	0.00868
2073.94512	0.00863
2072.65935	0.00834
2071.37358	0.00781
2070.08781	0.00715
2068.80204	0.00658
2067.51627	0.00634
2066.23050	0.00657
2064.94474	0.00730
2063.65897	0.00836
2062.37320	0.00936
2061.08743	0.00987
2059.80166	0.00973
2058.51589	0.00910
2057.23012	0.00826
2055.94435	0.00750
2054.65859	0.00703
2053.37282	0.00692
2052.08705	0.00698
2050.80128	0.00687
2049.51551	0.00628
2048.22974	0.00516
2046.94397	0.00393
2045.65820	0.00323
2044.37243	0.00340
2043.08667	0.00411
2041.80090	0.00466
2040.51513	0.00462
2039.22936	0.00418
2037.94359	0.00382
2036.65782	0.00378
2035.37205	0.00396
2034.08628	0.00411
2032.80052	0.00409
2031.51475	0.00400
2030.22898	0.00413
2028.94321	0.00470
2027.65744	0.00559
2026.37167	0.00637
2025.08590	0.00663
2023.80013	0.00626
2022.51436	0.00559
2021.22860	0.00506
2019.94283	0.00485
2018.65706	0.00467
2017.37129	0.00409
2016.08552	0.00294
2014.79975	0.00152
2013.51398	0.00048
2012.22821	0.00049
2010.94245	0.00165
2009.65668	0.00325
2008.37091	0.00430
2007.08514	0.00442
2005.79937	0.00414
2004.51360	0.00426
2003.22783	0.00508
2001.94206	0.00624
2000.65629	0.00728
1999.37053	0.00798
1998.08476	0.00830
1996.79899	0.00826
1995.51322	0.00801
1994.22745	0.00782
1992.94168	0.00784
1991.65591	0.00795
1990.37014	0.00788
1989.08438	0.00758
1987.79861	0.00724
1986.51284	0.00703
1985.22707	0.00684
1983.94130	0.00651
1982.65553	0.00608
1981.36976	0.00577
1980.08399	0.00573
1978.79822	0.00587
1977.51246	0.00599
1976.22669	0.00610
1974.94092	0.00632
1973.65515	0.00656
1972.36938	0.00648
1971.08361	0.00598
1969.79784	0.00542
1968.51207	0.00518
1967.22631	0.00530
1965.94054	0.00547
1964.65477	0.00550
1963.36900	0.00538
1962.08323	0.00514
1960.79746	0.00484
1959.51169	0.00468
1958.22592	0.00490
1956.94015	0.00554
1955.65439	0.00644
1954.36862	0.00732
1953.08285	0.00797
1951.79708	0.00825
1950.51131	0.00814
1949.22554	0.00785
1947.93977	0.00765
1946.65400	0.00772
1945.36823	0.00797
1944.08247	0.00819
1942.79670	0.00826
1941.51093	0.00819
1940.22516	0.00801
1938.93939	0.00780
1937.65362	0.00768
1936.36785	0.00772
1935.08208	0.00785
1933.79632	0.00795
1932.51055	0.00809
1931.22478	0.00844
1929.93901	0.00903
1928.65324	0.00965
1927.36747	0.00997
1926.08170	0.00985
1924.79593	0.00938
1923.51016	0.00884
1922.22440	0.00851
1920.93863	0.00849
1919.65286	0.00867
1918.36709	0.00887
1917.08132	0.00900
1915.79555	0.00916
1914.50978	0.00947
1913.22401	0.00983
1911.93825	0.01007
1910.65248	0.01011
1909.36671	0.01002
1908.08094	0.00983
1906.79517	0.00962
1905.50940	0.00945
1904.22363	0.00942
1902.93786	0.00953
1901.65209	0.00966
1900.36633	0.00970
1899.08056	0.00966
1897.79479	0.00961
1896.50902	0.00962
1895.22325	0.00968
1893.93748	0.00973
1892.65171	0.00974
1891.36594	0.00972
1890.08018	0.00970
1888.79441	0.00968
1887.50864	0.00961
1886.22287	0.00942
1884.93710	0.00906
1883.65133	0.00869
1882.36556	0.00854
1881.07979	0.00872
1879.79402	0.00913
1878.50826	0.00954
1877.22249	0.00975
1875.93672	0.00975
1874.65095	0.00961
1873.36518	0.00945
1872.07941	0.00936
1870.79364	0.00937
1869.50787	0.00944
1868.22211	0.00956
1866.93634	0.00972
1865.65057	0.00993
1864.36480	0.01021
1863.07903	0.01051
1861.79326	0.01074
1860.50749	0.01078
1859.22172	0.01060
1857.93595	0.01026
1856.65019	0.00991
1855.36442	0.00967
1854.07865	0.00957
1852.79288	0.00959
1851.50711	0.00972
1850.22134	0.00989
1848.93557	0.00997
1847.64980	0.00989
1846.36404	0.00979
1845.07827	0.00984
1843.79250	0.01002
1842.50673	0.01022
1841.22096	0.01032
1839.93519	0.01028
1838.64942	0.01011
1837.36365	0.00987
1836.07788	0.00967
1834.79212	0.00957
1833.50635	0.00964
1832.22058	0.00988
1830.93481	0.01019
1829.64904	0.01039
1828.36327	0.01039
1827.07750	0.01030
1825.79173	0.01024
1824.50597	0.01019
1823.22020	0.01012
1821.93443	0.01005
1820.64866	0.01002
1819.36289	0.01005
1818.07712	0.01008
1816.79135	0.01011
1815.50558	0.01012
1814.21981	0.01014
1812.93405	0.01017
1811.64828	0.01016
1810.36251	0.01007
1809.07674	0.00991
1807.79097	0.00978
1806.50520	0.00975
1805.21943	0.00984
1803.93366	0.00998
1802.64790	0.01007
1801.36213	0.01007
1800.07636	0.01002
1798.79059	0.00999
1797.50482	0.01002
1796.21905	0.01009
1794.93328	0.01015
1793.64751	0.01017
1792.36174	0.01012
1791.07598	0.01000
1789.79021	0.00990
1788.50444	0.00991
1787.21867	0.01002
1785.93290	0.01016
1784.64713	0.01024
1783.36136	0.01023
1782.07559	0.01024
1780.78983	0.01030
1779.50406	0.01037
1778.21829	0.01042
1776.93252	0.01045
1775.64675	0.01051
1774.36098	0.01061
1773.07521	0.01069
1771.78944	0.01065
1770.50367	0.01055
1769.21791	0.01048
1767.93214	0.01045
1766.64637	0.01036
1765.36060	0.01027
1764.07483	0.01027
1762.78906	0.01032
1761.50329	0.01030
1760.21752	0.01019
1758.93176	0.01007
1757.64599	0.00998
1756.36022	0.00981
1755.07445	0.00958
1753.78868	0.00942
1752.50291	0.00935
1751.21714	0.00926
1749.93137	0.00904
1748.64560	0.00872
1747.35984	0.00837
1746.07407	0.00800
1744.78830	0.00767
1743.50253	0.00743
1742.21676	0.00731
1740.93099	0.00728
1739.64522	0.00723
1738.35945	0.00714
1737.07369	0.00718
1735.78792	0.00750
1734.50215	0.00794
1733.21638	0.00826
1731.93061	0.00843
1730.64484	0.00858
1729.35907	0.00872
1728.07330	0.00878
1726.78753	0.00884
1725.50177	0.00902
1724.21600	0.00932
1722.93023	0.00963
1721.64446	0.00988
1720.35869	0.01013
1719.07292	0.01042
1717.78715	0.01066
1716.50138	0.01078
1715.21561	0.01089
1713.92985	0.01113
1712.64408	0.01152
1711.35831	0.01195
1710.07254	0.01229
1708.78677	0.01252
1707.50100	0.01269
1706.21523	0.01285
1704.92946	0.01303
1703.64370	0.01329
1702.35793	0.01379
1701.07216	0.01438
1699.78639	0.01480
1698.50062	0.01507
1697.21485	0.01545
1695.92908	0.01587
1694.64331	0.01609
1693.35754	0.01619
1692.07178	0.01647
1690.78601	0.01692
1689.50024	0.01736
1688.21447	0.01777
1686.92870	0.01829
1685.64293	0.01892
1684.35716	0.01941
1683.07139	0.01963
1681.78563	0.01977
1680.49986	0.02003
1679.21409	0.02042
1677.92832	0.02090
1676.64255	0.02145
1675.35678	0.02195
1674.07101	0.02227
1672.78524	0.02252
1671.49947	0.02284
1670.21371	0.02321
1668.92794	0.02348
1667.64217	0.02365
1666.35640	0.02386
1665.07063	0.02423
1663.78486	0.02467
1662.49909	0.02502
1661.21332	0.02521
1659.92756	0.02531
1658.64179	0.02544
1657.35602	0.02564
1656.07025	0.02602
1654.78448	0.02661
1653.49871	0.02713
1652.21294	0.02723
1650.92717	0.02703
1649.64140	0.02697
1648.35564	0.02725
1647.06987	0.02761
1645.78410	0.02781
1644.49833	0.02783
1643.21256	0.02783
1641.92679	0.02788
1640.64102	0.02791
1639.35525	0.02789
1638.06949	0.02790
1636.78372	0.02797
1635.49795	0.02796
1634.21218	0.02778
1632.92641	0.02756
1631.64064	0.02745
1630.35487	0.02743
1629.06910	0.02742
1627.78333	0.02734
1626.49757	0.02721
1625.21180	0.02710
1623.92603	0.02699
1622.64026	0.02681
1621.35449	0.02655
1620.06872	0.02634
1618.78295	0.02627
1617.49718	0.02629
1616.21142	0.02621
1614.92565	0.02604
1613.63988	0.02592
1612.35411	0.02590
1611.06834	0.02591
1609.78257	0.02589
1608.49680	0.02588
1607.21103	0.02590
1605.92526	0.02591
1604.63950	0.02590
1603.35373	0.02587
1602.06796	0.02583
1600.78219	0.02580
1599.49642	0.02579
1598.21065	0.02582
1596.92488	0.02586
1595.63911	0.02592
1594.35335	0.02599
1593.06758	0.02610
1591.78181	0.02626
1590.49604	0.02641
1589.21027	0.02651
1587.92450	0.02655
1586.63873	0.02657
1585.35296	0.02662
1584.06719	0.02673
1582.78143	0.02690
1581.49566	0.02707
1580.20989	0.02721
1578.92412	0.02735
1577.63835	0.02757
1576.35258	0.02776
1575.06681	0.02782
1573.78104	0.02782
1572.49528	0.02794
1571.20951	0.02819
1569.92374	0.02841
1568.63797	0.02848
1567.35220	0.02848
1566.06643	0.02848
1564.78066	0.02849
1563.49489	0.02852
1562.20912	0.02870
1560.92336	0.02908
1559.63759	0.02943
1558.35182	0.02949
1557.06605	0.02933
1555.78028	0.02923
1554.49451	0.02924
1553.20874	0.02921
1551.92297	0.02911
1550.63721	0.02901
1549.35144	0.02896
1548.06567	0.02895
1546.77990	0.02898
1545.49413	0.02897
1544.20836	0.02885
1542.92259	0.02869
1541.63682	0.02860
1540.35105	0.02855
1539.06529	0.02837
1537.77952	0.02806
1536.49375	0.02782
1535.20798	0.02782
1533.92221	0.02791
1532.63644	0.02790
1531.35067	0.02778
1530.06490	0.02769
1528.77914	0.02774
1527.49337	0.02789
1526.20760	0.02807
1524.92183	0.02826
1523.63606	0.02851
1522.35029	0.02880
1521.06452	0.02901
1519.77875	0.02908
1518.49298	0.02918
1517.20722	0.02941
1515.92145	0.02972
1514.63568	0.03003
1513.34991	0.03033
1512.06414	0.03060
1510.77837	0.03087
1509.49260	0.03124
1508.20683	0.03180
1506.92107	0.03240
1505.63530	0.03280
1504.34953	0.03297
1503.06376	0.03313
1501.77799	0.03338
1500.49222	0.03370
1499.20645	0.03405
1497.92068	0.03438
1496.63491	0.03462
1495.34915	0.03473
1494.06338	0.03481
1492.77761	0.03500
1491.49184	0.03536
1490.20607	0.03575
1488.92030	0.03607
1487.63453	0.03632
1486.34876	0.03652
1485.06299	0.03675
1483.77723	0.03706
1482.49146	0.03742
1481.20569	0.03778
1479.91992	0.03812
1478.63415	0.03847
1477.34838	0.03885
1476.06261	0.03923
1474.77684	0.03960
1473.49108	0.03993
1472.20531	0.04015
1470.91954	0.04028
1469.63377	0.04040
1468.34800	0.04062
1467.06223	0.04096
1465.77646	0.04138
1464.49069	0.04178
1463.20492	0.04207
1461.91916	0.04230
1460.63339	0.04257
1459.34762	0.04300
1458.06185	0.04355
1456.77608	0.04404
1455.49031	0.04435
1454.20454	0.04460
1452.91877	0.04489
1451.63301	0.04518
1450.34724	0.04538
1449.06147	0.04546
1447.77570	0.04544
1446.48993	0.04534
1445.20416	0.04520
1443.91839	0.04507
1442.63262	0.04497
1441.34685	0.04489
1440.06109	0.04488
1438.77532	0.04498
1437.48955	0.04512
1436.20378	0.04518
1434.91801	0.04514
1433.63224	0.04515
1432.34647	0.04535
1431.06070	0.04571
1429.77494	0.04614
1428.48917	0.04659
1427.20340	0.04706
1425.91763	0.04756
1424.63186	0.04808
1423.34609	0.04857
1422.06032	0.04907
1420.77455	0.04962
1419.48878	0.05010
1418.20302	0.05039
1416.91725	0.05053
1415.63148	0.05069
1414.34571	0.05089
1413.05994	0.05109
1411.77417	0.05119
1410.48840	0.05116
1409.20263	0.05101
1407.91687	0.05079
1406.63110	0.05051
1405.34533	0.05013
1404.05956	0.04963
1402.77379	0.04904
1401.48802	0.04844
1400.20225	0.04782
1398.91648	0.04713
1397.63071	0.04634
1396.34495	0.04553
1395.05918	0.04474
1393.77341	0.04395
1392.48764	0.04313
1391.20187	0.04231
1389.91610	0.04154
1388.63033	0.04084
1387.34456	0.04016
1386.05880	0.03944
1384.77303	0.03870
1383.48726	0.03794
1382.20149	0.03717
1380.91572	0.03641
1379.62995	0.03567
1378.34418	0.03497
1377.05841	0.03431
1375.77264	0.03364
1374.48688	0.03291
1373.20111	0.03213
1371.91534	0.03134
1370.62957	0.03060
1369.34380	0.02992
1368.05803	0.02927
1366.77226	0.02865
1365.48649	0.02806
1364.20073	0.02751
1362.91496	0.02700
1361.62919	0.02650
1360.34342	0.02600
1359.05765	0.02554
1357.77188	0.02509
1356.48611	0.02466
1355.20034	0.02423
1353.91457	0.02383
1352.62881	0.02350
1351.34304	0.02326
1350.05727	0.02308
1348.77150	0.02288
1347.48573	0.02264
1346.19996	0.02239
1344.91419	0.02216
1343.62842	0.02196
1342.34266	0.02178
1341.05689	0.02158
1339.77112	0.02133
1338.48535	0.02106
1337.19958	0.02077
1335.91381	0.02051
1334.62804	0.02029
1333.34227	0.02009
1332.05650	0.01992
1330.77074	0.01978
1329.48497	0.01965
1328.19920	0.01950
1326.91343	0.01934
1325.62766	0.01916
1324.34189	0.01900
1323.05612	0.01885
1321.77035	0.01873
1320.48459	0.01862
1319.19882	0.01850
1317.91305	0.01836
1316.62728	0.01818
1315.34151	0.01800
1314.05574	0.01782
1312.76997	0.01766
1311.48420	0.01749
1310.19843	0.01733
1308.91267	0.01719
1307.62690	0.01709
1306.34113	0.01700
1305.05536	0.01688
1303.76959	0.01669
1302.48382	0.01645
1301.19805	0.01622
1299.91228	0.01605
1298.62652	0.01596
1297.34075	0.01592
1296.05498	0.01588
1294.76921	0.01583
1293.48344	0.01578
1292.19767	0.01577
1290.91190	0.01577
1289.62613	0.01575
1288.34036	0.01571
1287.05460	0.01565
1285.76883	0.01561
1284.48306	0.01557
1283.19729	0.01551
1281.91152	0.01539
1280.62575	0.01522
1279.33998	0.01504
1278.05421	0.01489
1276.76845	0.01479
1275.48268	0.01475
1274.19691	0.01475
1272.91114	0.01478
1271.62537	0.01478
1270.33960	0.01473
1269.05383	0.01462
1267.76806	0.01446
1266.48229	0.01430
1265.19653	0.01415
1263.91076	0.01403
1262.62499	0.01394
1261.33922	0.01391
1260.05345	0.01395
1258.76768	0.01401
1257.48191	0.01406
1256.19614	0.01407
1254.91037	0.01405
1253.62461	0.01402
1252.33884	0.01400
1251.05307	0.01398
1249.76730	0.01395
1248.48153	0.01389
1247.19576	0.01381
1245.90999	0.01374
1244.62422	0.01372
1243.33846	0.01376
1242.05269	0.01380
1240.76692	0.01380
1239.48115	0.01376
1238.19538	0.01372
1236.90961	0.01370
1235.62384	0.01368
1234.33807	0.01365
1233.05230	0.01359
1231.76654	0.01350
1230.48077	0.01340
1229.19500	0.01329
1227.90923	0.01317
1226.62346	0.01306
1225.33769	0.01299
1224.05192	0.01295
1222.76615	0.01290
1221.48039	0.01284
1220.19462	0.01276
1218.90885	0.01268
1217.62308	0.01261
1216.33731	0.01253
1215.05154	0.01244
1213.76577	0.01236
1212.48000	0.01229
1211.19423	0.01224
1209.90847	0.01220
1208.62270	0.01216
1207.33693	0.01212
1206.05116	0.01212
1204.76539	0.01216
1203.47962	0.01221
1202.19385	0.01223
1200.90808	0.01221
1199.62232	0.01215
1198.33655	0.01207
1197.05078	0.01202
1195.76501	0.01199
1194.47924	0.01197
1193.19347	0.01195
1191.90770	0.01192
1190.62193	0.01187
1189.33616	0.01176
1188.05040	0.01160
1186.76463	0.01144
1185.47886	0.01132
1184.19309	0.01125
1182.90732	0.01119
1181.62155	0.01112
1180.33578	0.01102
1179.05001	0.01097
1177.76425	0.01100
1176.47848	0.01108
1175.19271	0.01116
1173.90694	0.01118
1172.62117	0.01116
1171.33540	0.01114
1170.04963	0.01117
1168.76386	0.01129
1167.47809	0.01146
1166.19233	0.01166
1164.90656	0.01183
1163.62079	0.01196
1162.33502	0.01206
1161.04925	0.01215
1159.76348	0.01223
1158.47771	0.01228
1157.19194	0.01232
1155.90618	0.01237
1154.62041	0.01244
1153.33464	0.01253
1152.04887	0.01262
1150.76310	0.01272
1149.47733	0.01285
1148.19156	0.01303
1146.90579	0.01328
1145.62002	0.01359
1144.33426	0.01398
1143.04849	0.01442
1141.76272	0.01487
1140.47695	0.01530
1139.19118	0.01575
1137.90541	0.01627
1136.61964	0.01687
1135.33387	0.01751
1134.04811	0.01818
1132.76234	0.01894
1131.47657	0.01980
1130.19080	0.02078
1128.90503	0.02190
1127.61926	0.02313
1126.33349	0.02448
1125.04772	0.02591
1123.76195	0.02738
1122.47619	0.02884
1121.19042	0.03028
1119.90465	0.03174
1118.61888	0.03329
1117.33311	0.03494
1116.04734	0.03665
1114.76157	0.03836
1113.47580	0.04004
1112.19004	0.04170
1110.90427	0.04334
1109.61850	0.04496
1108.33273	0.04654
1107.04696	0.04807
1105.76119	0.04952
1104.47542	0.05091
1103.18965	0.05224
1101.90388	0.05353
1100.61812	0.05480
1099.33235	0.05604
1098.04658	0.05726
1096.76081	0.05841
1095.47504	0.05946
1094.18927	0.06039
1092.90350	0.06123
1091.61773	0.06205
1090.33197	0.06285
1089.04620	0.06363
1087.76043	0.06442
1086.47466	0.06525
1085.18889	0.06614
1083.90312	0.06707
1082.61735	0.06802
1081.33158	0.06898
1080.04581	0.06997
1078.76005	0.07100
1077.47428	0.07211
1076.18851	0.07332
1074.90274	0.07463
1073.61697	0.07600
1072.33120	0.07737
1071.04543	0.07873
1069.75966	0.08008
1068.47390	0.08145
1067.18813	0.08288
1065.90236	0.08439
1064.61659	0.08595
1063.33082	0.08750
1062.04505	0.08900
1060.75928	0.09047
1059.47351	0.09192
1058.18774	0.09335
1056.90198	0.09473
1055.61621	0.09607
1054.33044	0.09742
1053.04467	0.09878
1051.75890	0.10014
1050.47313	0.10150
1049.18736	0.10291
1047.90159	0.10442
1046.61583	0.10598
1045.33006	0.10751
1044.04429	0.10900
1042.75852	0.11046
1041.47275	0.11194
1040.18698	0.11343
1038.90121	0.11492
1037.61544	0.11643
1036.32967	0.11797
1035.04391	0.11949
1033.75814	0.12087
1032.47237	0.12207
1031.18660	0.12310
1029.90083	0.12401
1028.61506	0.12474
1027.32929	0.12526
1026.04352	0.12555
1024.75775	0.12565
1023.47199	0.12558
1022.18622	0.12536
1020.90045	0.12500
1019.61468	0.12449
1018.32891	0.12382
1017.04314	0.12301
1015.75737	0.12208
1014.47160	0.12099
1013.18584	0.11972
1011.90007	0.11826
1010.61430	0.11661
1009.32853	0.11474
1008.04276	0.11267
1006.75699	0.11044
1005.47122	0.10810
1004.18545	0.10563
1002.89968	0.10304
1001.61392	0.10038
1000.32815	0.09775
999.04238	0.09515
997.75661	0.09250
996.47084	0.08975
995.18507	0.08691
993.89930	0.08407
992.61353	0.08132
991.32777	0.07869
990.04200	0.07618
988.75623	0.07380
987.47046	0.07156
986.18469	0.06945
984.89892	0.06742
983.61315	0.06543
982.32738	0.06349
981.04161	0.06161
979.75585	0.05983
978.47008	0.05821
977.18431	0.05674
975.89854	0.05546
974.61277	0.05433
973.32700	0.05332
972.04123	0.05243
970.75546	0.05170
969.46970	0.05122
968.18393	0.05102
966.89816	0.05106
965.61239	0.05125
964.32662	0.05147
963.04085	0.05166
961.75508	0.05178
960.46931	0.05178
959.18354	0.05161
957.89778	0.05120
956.61201	0.05055
955.32624	0.04974
954.04047	0.04886
952.75470	0.04793
951.46893	0.04694
950.18316	0.04590
948.89739	0.04489
947.61163	0.04398
946.32586	0.04317
945.04009	0.04241
943.75432	0.04167
942.46855	0.04094
941.18278	0.04020
939.89701	0.03944
938.61124	0.03869
937.32547	0.03801
936.03971	0.03737
934.75394	0.03673
933.46817	0.03605
932.18240	0.03541
930.89663	0.03483
929.61086	0.03432
928.32509	0.03383
927.03932	0.03335
925.75356	0.03290
924.46779	0.03249
923.18202	0.03208
921.89625	0.03165
920.61048	0.03123
919.32471	0.03089
918.03894	0.03064
916.75317	0.03045
915.46740	0.03021
914.18164	0.02990
912.89587	0.02956
911.61010	0.02930
910.32433	0.02916
909.03856	0.02908
907.75279	0.02895
906.46702	0.02871
905.18125	0.02837
903.89549	0.02803
902.60972	0.02779
901.32395	0.02766
900.03818	0.02757
898.75241	0.02744
897.46664	0.02720
896.18087	0.02690
894.89510	0.02661
893.60933	0.02640
892.32357	0.02624
891.03780	0.02609
889.75203	0.02598
888.46626	0.02597
887.18049	0.02617
885.89472	0.02663
884.60895	0.02735
883.32318	0.02829
882.03742	0.02932
880.75165	0.03031
879.46588	0.03115
878.18011	0.03183
876.89434	0.03245
875.60857	0.03314
874.32280	0.03393
873.03703	0.03472
871.75126	0.03530
870.46550	0.03548
869.17973	0.03516
867.89396	0.03440
866.60819	0.03340
865.32242	0.03241
864.03665	0.03151
862.75088	0.03068
861.46511	0.02985
860.17935	0.02900
858.89358	0.02820
857.60781	0.02750
856.32204	0.02689
855.03627	0.02639
853.75050	0.02598
852.46473	0.02565
851.17896	0.02539
849.89319	0.02517
848.60743	0.02497
847.32166	0.02479
846.03589	0.02462
844.75012	0.02446
843.46435	0.02429
842.17858	0.02408
840.89281	0.02382
839.60704	0.02355
838.32128	0.02336
837.03551	0.02323
835.74974	0.02313
834.46397	0.02301
833.17820	0.02286
831.89243	0.02272
830.60666	0.02263
829.32089	0.02262
828.03512	0.02266
826.74936	0.02272
825.46359	0.02273
824.17782	0.02268
822.89205	0.02254
821.60628	0.02238
820.32051	0.02223
819.03474	0.02214
817.74897	0.02207
816.46321	0.02199
815.17744	0.02197
813.89167	0.02203
812.60590	0.02211
811.32013	0.02216
810.03436	0.02214
808.74859	0.02212
807.46282	0.02211
806.17705	0.02210
804.89129	0.02205
803.60552	0.02199
802.31975	0.02194
801.03398	0.02190
799.74821	0.02185
798.46244	0.02178
797.17667	0.02175
795.89090	0.02177
794.60513	0.02183
793.31937	0.02189
792.03360	0.02191
790.74783	0.02190
789.46206	0.02186
788.17629	0.02185
786.89052	0.02188
785.60475	0.02195
784.31898	0.02202
783.03322	0.02206
781.74745	0.02210
780.46168	0.02215
779.17591	0.02220
777.89014	0.02222
776.60437	0.02217
775.31860	0.02208
774.03283	0.02201
772.74706	0.02204
771.46130	0.02214
770.17553	0.02226
768.88976	0.02232
767.60399	0.02231
766.31822	0.02225
765.03245	0.02219
763.74668	0.02213
762.46091	0.02208
761.17515	0.02204
759.88938	0.02205
758.60361	0.02213
757.31784	0.02223
756.03207	0.02233
754.74630	0.02239
753.46053	0.02238
752.17476	0.02230
750.88899	0.02220
749.60323	0.02215
748.31746	0.02215
747.03169	0.02212
745.74592	0.02202
744.46015	0.02188
743.17438	0.02171
741.88861	0.02153
740.60284	0.02136
739.31708	0.02124
738.03131	0.02119
736.74554	0.02123
735.45977	0.02131
734.17400	0.02140
732.88823	0.02147
731.60246	0.02147
730.31669	0.02141
729.03092	0.02131
727.74516	0.02123
726.45939	0.02124
725.17362	0.02134
723.88785	0.02162
722.60208	0.02150
721.31631	0.02112
720.03054	0.02072
718.74477	0.02043
717.45901	0.02028
716.17324	0.02029
714.88747	0.02043
713.60170	0.02062
712.31593	0.02076
711.03016	0.02082
709.74439	0.02080
708.45862	0.02076
707.17285	0.02074
705.88709	0.02074
704.60132	0.02074
703.31555	0.02075
702.02978	0.02076
700.74401	0.02076
699.45824	0.02074
698.17247	0.02069
696.88670	0.02065
695.60094	0.02063
694.31517	0.02063
693.02940	0.02061
691.74363	0.02059
690.45786	0.02059
689.17209	0.02064
687.88632	0.02074
686.60055	0.02086
685.31478	0.02097
684.02902	0.02102
682.74325	0.02098
681.45748	0.02092
680.17171	0.02088
678.88594	0.02086
677.60017	0.02085
676.31440	0.02084
675.02863	0.02086
673.74287	0.02095
672.45710	0.02109
671.17133	0.02124
669.88556	0.02135
668.59979	0.02126
667.31402	0.02122
666.02825	0.02133
664.74248	0.02119
663.45671	0.02101
662.17095	0.02086
660.88518	0.02072
659.59941	0.02055
658.31364	0.02033
657.02787	0.02008
655.74210	0.01988
654.45633	0.01977
653.17056	0.01975
651.88480	0.01977
650.59903	0.01977
649.31326	0.01972
648.02749	0.01960
646.74172	0.01942
645.45595	0.01925
644.17018	0.01913
642.88441	0.01911
641.59864	0.01917
640.31288	0.01928
639.02711	0.01939
637.74134	0.01948
636.45557	0.01956
635.16980	0.01965
633.88403	0.01978
632.59826	0.01998
631.31249	0.02021
630.02673	0.02042
628.74096	0.02062
627.45519	0.02092
626.16942	0.02114
624.88365	0.02126
623.59788	0.02138
622.31211	0.02181
621.02634	0.02291
619.74057	0.02461
618.45481	0.02648
617.16904	0.02830
615.88327	0.03001
614.59750	0.03140
613.31173	0.03237
612.02596	0.03351
610.74019	0.03603
609.45442	0.04041
608.16866	0.04541
606.88289	0.04933
605.59712	0.05168
604.31135	0.05308
603.02558	0.05404
601.73981	0.05446
600.45404	0.05409
599.16827	0.05296
597.88250	0.05135
596.59674	0.04952
595.31097	0.04766
594.02520	0.04596
592.73943	0.04462
591.45366	0.04378
590.16789	0.04346
588.88212	0.04357
587.59635	0.04403
586.31059	0.04475
585.02482	0.04568
583.73905	0.04672
582.45328	0.04783
581.16751	0.04901
579.88174	0.05028
578.59597	0.05160
577.31020	0.05289
576.02443	0.05407
574.73867	0.05517
573.45290	0.05628
572.16713	0.05748
570.88136	0.05881
569.59559	0.06024
568.30982	0.06171
567.02405	0.06324
565.73828	0.06479
564.45251	0.06624
563.16675	0.06734
561.88098	0.06785
560.59521	0.06759
559.30944	0.06647
558.02367	0.06457
556.73790	0.06207
555.45213	0.05923
554.16636	0.05628
552.88060	0.05339
551.59483	0.05069
550.30906	0.04824
549.02329	0.04603
547.73752	0.04401
546.45175	0.04220
545.16598	0.04069
543.88021	0.03948
542.59444	0.03849
541.30868	0.03754
540.02291	0.03659
538.73714	0.03564
537.45137	0.03476
536.16560	0.03394
534.87983	0.03317
533.59406	0.03248
532.30829	0.03187
531.02253	0.03129
529.73676	0.03068
528.45099	0.03000
527.16522	0.02930
525.87945	0.02869
524.59368	0.02826
523.30791	0.02798
522.02214	0.02774
520.73637	0.02743
519.45061	0.02702
518.16484	0.02655
516.87907	0.02605
515.59330	0.02555
514.30753	0.02506
513.02176	0.02466
511.73599	0.02435
510.45022	0.02409
509.16446	0.02383
507.87869	0.02356
506.59292	0.02331
505.30715	0.02308
504.02138	0.02283
502.73561	0.02256
501.44984	0.02230
500.16407	0.02210
498.87830	0.02197
497.59254	0.02187
496.30677	0.02172
495.02100	0.02149
493.73523	0.02120
492.44946	0.02090
491.16369	0.02065
489.87792	0.02050
488.59215	0.02048
487.30639	0.02057
486.02062	0.02069
484.73485	0.02073
483.44908	0.02069
482.16331	0.02066
480.87754	0.02069
479.59177	0.02078
478.30600	0.02087
477.02023	0.02093
475.73447	0.02096
474.44870	0.02100
473.16293	0.02110
471.87716	0.02123
470.59139	0.02135
469.30562	0.02139
468.01985	0.02132
466.73408	0.02116
465.44832	0.02098
464.16255	0.02080
462.87678	0.02061
461.59101	0.02041
460.30524	0.02021
459.01947	0.02001
457.73370	0.01982
456.44793	0.01968
455.16216	0.01957
453.87640	0.01945
452.59063	0.01925
451.30486	0.01898
450.01909	0.01872
448.73332	0.01854
447.44755	0.01845
446.16178	0.01838
444.87601	0.01827
443.59025	0.01811
442.30448	0.01791
441.01871	0.01775
439.73294	0.01768
438.44717	0.01766
437.16140	0.01767
435.87563	0.01765
434.58986	0.01763
433.30409	0.01760
432.01833	0.01755
430.73256	0.01744
429.44679	0.01729
428.16102	0.01713
426.87525	0.01699
425.58948	0.01688
424.30371	0.01679
423.01794	0.01670
421.73218	0.01665
420.44641	0.01665
419.16064	0.01665
417.87487	0.01661
416.58910	0.01649
415.30333	0.01635
414.01756	0.01621
412.73179	0.01608
411.44602	0.01595
410.16026	0.01580
408.87449	0.01567
407.58872	0.01559
406.30295	0.01557
405.01718	0.01561
403.73141	0.01564
402.44564	0.01567
401.15987	0.01570
399.87411	0.01576
