3997.45528	0.06449
3996.16951	0.06287
3994.88374	0.06157
3993.59798	0.06118
3992.31221	0.06200
3991.02644	0.06350
3989.74067	0.06458
3988.45490	0.06451
3987.16913	0.06363
3985.88336	0.06303
3984.59759	0.06355
3983.31183	0.06501
3982.02606	0.06660
3980.74029	0.06767
3979.45452	0.06809
3978.16875	0.06805
3976.88298	0.06771
3975.59721	0.06702
3974.31144	0.06583
3973.02567	0.06416
3971.73991	0.06248
3970.45414	0.06139
3969.16837	0.06114
3967.88260	0.06145
3966.59683	0.06182
3965.31106	0.06194
3964.02529	0.06175
3962.73952	0.06153
3961.45376	0.06171
3960.16799	0.06250
3958.88222	0.06368
3957.59645	0.06474
3956.31068	0.06542
3955.02491	0.06576
3953.73914	0.06586
3952.45337	0.06562
3951.16760	0.06500
3949.88184	0.06415
3948.59607	0.06328
3947.31030	0.06250
3946.02453	0.06190
3944.73876	0.06172
3943.45299	0.06215
3942.16722	0.06287
3940.88145	0.06320
3939.59569	0.06266
3938.30992	0.06149
3937.02415	0.06041
3935.73838	0.06005
3934.45261	0.06051
3933.16684	0.06146
3931.88107	0.06243
3930.59530	0.06314
3929.30953	0.06366
3928.02377	0.06414
3926.73800	0.06457
3925.45223	0.06480
3924.16646	0.06491
3922.88069	0.06523
3921.59492	0.06592
3920.30915	0.06670
3919.02338	0.06704
3917.73762	0.06673
3916.45185	0.06599
3915.16608	0.06501
3913.88031	0.06385
3912.59454	0.06264
3911.30877	0.06162
3910.02300	0.06089
3908.73723	0.06042
3907.45146	0.06019
3906.16570	0.06013
3904.87993	0.06021
3903.59416	0.06047
3902.30839	0.06095
3901.02262	0.06152
3899.73685	0.06179
3898.45108	0.06156
3897.16531	0.06092
3895.87955	0.06014
3894.59378	0.05930
3893.30801	0.05835
3892.02224	0.05749
3890.73647	0.05724
3889.45070	0.05776
3888.16493	0.05859
3886.87916	0.05925
3885.59339	0.05963
3884.30763	0.05963
3883.02186	0.05920
3881.73609	0.05865
3880.45032	0.05860
3879.16455	0.05921
3877.87878	0.06000
3876.59301	0.06054
3875.30724	0.06099
3874.02148	0.06163
3872.73571	0.06225
3871.44994	0.06229
3870.16417	0.06162
3868.87840	0.06062
3867.59263	0.05959
3866.30686	0.05878
3865.02109	0.05843
3863.73532	0.05842
3862.44956	0.05831
3861.16379	0.05807
3859.87802	0.05813
3858.59225	0.05889
3857.30648	0.06009
3856.02071	0.06099
3854.73494	0.06110
3853.44917	0.06061
3852.16341	0.05988
3850.87764	0.05920
3849.59187	0.05896
3848.30610	0.05939
3847.02033	0.06015
3845.73456	0.06052
3844.44879	0.06015
3843.16302	0.05933
3841.87725	0.05859
3840.59149	0.05819
3839.30572	0.05815
3838.01995	0.05848
3836.73418	0.05900
3835.44841	0.05915
3834.16264	0.05861
3832.87687	0.05780
3831.59110	0.05734
3830.30534	0.05736
3829.01957	0.05752
3827.73380	0.05753
3826.44803	0.05763
3825.16226	0.05807
3823.87649	0.05867
3822.59072	0.05917
3821.30495	0.05969
3820.01918	0.06036
3818.73342	0.06079
3817.44765	0.06066
3816.16188	0.06038
3814.87611	0.06045
3813.59034	0.06058
3812.30457	0.06028
3811.01880	0.05946
3809.73303	0.05835
3808.44726	0.05728
3807.16150	0.05686
3805.87573	0.05735
3804.58996	0.05814
3803.30419	0.05836
3802.01842	0.05799
3800.73265	0.05764
3799.44688	0.05741
3798.16111	0.05705
3796.87535	0.05675
3795.58958	0.05693
3794.30381	0.05748
3793.01804	0.05786
3791.73227	0.05787
3790.44650	0.05776
3789.16073	0.05779
3787.87496	0.05784
3786.58919	0.05773
3785.30343	0.05751
3784.01766	0.05740
3782.73189	0.05737
3781.44612	0.05712
3780.16035	0.05654
3778.87458	0.05593
3777.58881	0.05565
3776.30304	0.05575
3775.01728	0.05602
3773.73151	0.05616
3772.44574	0.05593
3771.15997	0.05544
3769.87420	0.05511
3768.58843	0.05526
3767.30266	0.05578
3766.01689	0.05631
3764.73112	0.05654
3763.44536	0.05623
3762.15959	0.05550
3760.87382	0.05480
3759.58805	0.05452
3758.30228	0.05462
3757.01651	0.05487
3755.73074	0.05503
3754.44497	0.05492
3753.15921	0.05463
3751.87344	0.05456
3750.58767	0.05504
3749.30190	0.05601
3748.01613	0.05695
3746.73036	0.05693
3745.44459	0.05571
3744.15882	0.05417
3742.87305	0.05299
3741.58729	0.05208
3740.30152	0.05150
3739.01575	0.05154
3737.72998	0.05214
3736.44421	0.05301
3735.15844	0.05387
3733.87267	0.05445
3732.58690	0.05481
3731.30114	0.05530
3730.01537	0.05611
3728.72960	0.05694
3727.44383	0.05737
3726.15806	0.05722
3724.87229	0.05654
3723.58652	0.05574
3722.30075	0.05536
3721.01498	0.05563
3719.72922	0.05614
3718.44345	0.05628
3717.15768	0.05580
3715.87191	0.05495
3714.58614	0.05425
3713.30037	0.05401
3712.01460	0.05414
3710.72883	0.05420
3709.44307	0.05392
3708.15730	0.05352
3706.87153	0.05334
3705.58576	0.05330
3704.29999	0.05299
3703.01422	0.05229
3701.72845	0.05160
3700.44268	0.05123
3699.15691	0.05090
3697.87115	0.05032
3696.58538	0.04982
3695.29961	0.05011
3694.01384	0.05137
3692.72807	0.05302
3691.44230	0.05426
3690.15653	0.05474
3688.87076	0.05479
3687.58500	0.05480
3686.29923	0.05464
3685.01346	0.05398
3683.72769	0.05302
3682.44192	0.05219
3681.15615	0.05171
3679.87038	0.05158
3678.58461	0.05178
3677.29884	0.05239
3676.01308	0.05364
3674.72731	0.05554
3673.44154	0.05738
3672.15577	0.05834
3670.87000	0.05845
3669.58423	0.05826
3668.29846	0.05795
3667.01269	0.05739
3665.72693	0.05661
3664.44116	0.05576
3663.15539	0.05503
3661.86962	0.05459
3660.58385	0.05444
3659.29808	0.05438
3658.01231	0.05423
3656.72654	0.05404
3655.44077	0.05401
3654.15501	0.05415
3652.86924	0.05439
3651.58347	0.05480
3650.29770	0.05557
3649.01193	0.05662
3647.72616	0.05756
3646.44039	0.05802
3645.15462	0.05798
3643.86886	0.05777
3642.58309	0.05768
3641.29732	0.05762
3640.01155	0.05732
3638.72578	0.05681
3637.44001	0.05635
3636.15424	0.05607
3634.86847	0.05604
3633.58270	0.05639
3632.29694	0.05709
3631.01117	0.05785
3629.72540	0.05852
3628.43963	0.05923
3627.15386	0.05991
3625.86809	0.06018
3624.58232	0.05995
3623.29655	0.05950
3622.01079	0.05916
3620.72502	0.05914
3619.43925	0.05948
3618.15348	0.05988
3616.86771	0.05988
3615.58194	0.05933
3614.29617	0.05862
3613.01040	0.05831
3611.72463	0.05864
3610.43887	0.05940
3609.15310	0.06020
3607.86733	0.06071
3606.58156	0.06067
3605.29579	0.06007
3604.01002	0.05926
3602.72425	0.05877
3601.43848	0.05889
3600.15272	0.05951
3598.86695	0.06013
3597.58118	0.06029
3596.29541	0.06004
3595.00964	0.06000
3593.72387	0.06070
3592.43810	0.06199
3591.15233	0.06298
3589.86656	0.06281
3588.58080	0.06142
3587.29503	0.05954
3586.00926	0.05816
3584.72349	0.05780
3583.43772	0.05830
3582.15195	0.05895
3580.86618	0.05911
3579.58041	0.05871
3578.29464	0.05826
3577.00888	0.05826
3575.72311	0.05885
3574.43734	0.05984
3573.15157	0.06100
3571.86580	0.06207
3570.58003	0.06266
3569.29426	0.06257
3568.00849	0.06212
3566.72273	0.06198
3565.43696	0.06257
3564.15119	0.06363
3562.86542	0.06458
3561.57965	0.06502
3560.29388	0.06508
3559.00811	0.06516
3557.72234	0.06553
3556.43657	0.06615
3555.15081	0.06674
3553.86504	0.06698
3552.57927	0.06674
3551.29350	0.06629
3550.00773	0.06606
3548.72196	0.06633
3547.43619	0.06700
3546.15042	0.06773
3544.86466	0.06816
3543.57889	0.06803
3542.29312	0.06748
3541.00735	0.06698
3539.72158	0.06698
3538.43581	0.06742
3537.15004	0.06784
3535.86427	0.06788
3534.57850	0.06764
3533.29274	0.06735
3532.00697	0.06702
3530.72120	0.06645
3529.43543	0.06572
3528.14966	0.06527
3526.86389	0.06553
3525.57812	0.06634
3524.29235	0.06707
3523.00659	0.06728
3521.72082	0.06713
3520.43505	0.06710
3519.14928	0.06742
3517.86351	0.06798
3516.57774	0.06859
3515.29197	0.06920
3514.00620	0.06990
3512.72043	0.07054
3511.43467	0.07078
3510.14890	0.07034
3508.86313	0.06938
3507.57736	0.06836
3506.29159	0.06768
3505.00582	0.06752
3503.72005	0.06795
3502.43428	0.06890
3501.14852	0.07011
3499.86275	0.07113
3498.57698	0.07170
3497.29121	0.07193
3496.00544	0.07200
3494.71967	0.07185
3493.43390	0.07131
3492.14813	0.07059
3490.86236	0.07026
3489.57660	0.07072
3488.29083	0.07163
3487.00506	0.07234
3485.71929	0.07243
3484.43352	0.07194
3483.14775	0.07114
3481.86198	0.07037
3480.57621	0.06997
3479.29045	0.07017
3478.00468	0.07089
3476.71891	0.07179
3475.43314	0.07243
3474.14737	0.07262
3472.86160	0.07243
3471.57583	0.07212
3470.29006	0.07198
3469.00429	0.07211
3467.71853	0.07243
3466.43276	0.07284
3465.14699	0.07327
3463.86122	0.07368
3462.57545	0.07399
3461.28968	0.07409
3460.00391	0.07390
3458.71814	0.07345
3457.43238	0.07295
3456.14661	0.07271
3454.86084	0.07295
3453.57507	0.07366
3452.28930	0.07457
3451.00353	0.07531
3449.71776	0.07554
3448.43199	0.07511
3447.14622	0.07420
3445.86046	0.07338
3444.57469	0.07324
3443.28892	0.07394
3442.00315	0.07503
3440.71738	0.07585
3439.43161	0.07603
3438.14584	0.07576
3436.86007	0.07551
3435.57431	0.07560
3434.28854	0.07597
3433.00277	0.07633
3431.71700	0.07647
3430.43123	0.07643
3429.14546	0.07642
3427.85969	0.07657
3426.57392	0.07679
3425.28815	0.07692
3424.00239	0.07687
3422.71662	0.07676
3421.43085	0.07680
3420.14508	0.07707
3418.85931	0.07739
3417.57354	0.07740
3416.28777	0.07690
3415.00200	0.07610
3413.71624	0.07544
3412.43047	0.07533
3411.14470	0.07584
3409.85893	0.07673
3408.57316	0.07761
3407.28739	0.07809
3406.00162	0.07806
3404.71585	0.07767
3403.43008	0.07723
3402.14432	0.07694
3400.85855	0.07688
3399.57278	0.07707
3398.28701	0.07749
3397.00124	0.07801
3395.71547	0.07842
3394.42970	0.07854
3393.14393	0.07833
3391.85817	0.07803
3390.57240	0.07795
3389.28663	0.07819
3388.00086	0.07855
3386.71509	0.07871
3385.42932	0.07866
3384.14355	0.07877
3382.85778	0.07931
3381.57201	0.08011
3380.28625	0.08066
3379.00048	0.08057
3377.71471	0.07998
3376.42894	0.07934
3375.14317	0.07894
3373.85740	0.07873
3372.57163	0.07846
3371.28586	0.07805
3370.00010	0.07778
3368.71433	0.07796
3367.42856	0.07863
3366.14279	0.07952
3364.85702	0.08030
3363.57125	0.08077
3362.28548	0.08090
3360.99971	0.08075
3359.71394	0.08046
3358.42818	0.08018
3357.14241	0.07999
3355.85664	0.07984
3354.57087	0.07965
3353.28510	0.07941
3351.99933	0.07930
3350.71356	0.07947
3349.42779	0.07987
3348.14202	0.08026
3346.85626	0.08041
3345.57049	0.08038
3344.28472	0.08039
3342.99895	0.08062
3341.71318	0.08104
3340.42741	0.08152
3339.14164	0.08186
3337.85587	0.08194
3336.57011	0.08177
3335.28434	0.08155
3333.99857	0.08145
3332.71280	0.08143
3331.42703	0.08123
3330.14126	0.08068
3328.85549	0.07991
3327.56972	0.07927
3326.28395	0.07907
3324.99819	0.07934
3323.71242	0.07991
3322.42665	0.08059
3321.14088	0.08129
3319.85511	0.08187
3318.56934	0.08215
3317.28357	0.08199
3315.99780	0.08144
3314.71204	0.08073
3313.42627	0.08015
3312.14050	0.07985
3310.85473	0.07971
3309.56896	0.07955
3308.28319	0.07937
3306.99742	0.07935
3305.71165	0.07965
3304.42588	0.08012
3303.14012	0.08043
3301.85435	0.08035
3300.56858	0.07991
3299.28281	0.07946
3297.99704	0.07928
3296.71127	0.07938
3295.42550	0.07954
3294.13973	0.07961
3292.85397	0.07972
3291.56820	0.08002
3290.28243	0.08043
3288.99666	0.08072
3287.71089	0.08073
3286.42512	0.08054
3285.13935	0.08035
3283.85358	0.08028
3282.56781	0.08033
3281.28205	0.08036
3279.99628	0.08024
3278.71051	0.07994
3277.42474	0.07959
3276.13897	0.07929
3274.85320	0.07906
3273.56743	0.07883
3272.28166	0.07866
3270.99590	0.07867
3269.71013	0.07888
3268.42436	0.07913
3267.13859	0.07920
3265.85282	0.07900
3264.56705	0.07859
3263.28128	0.07812
3261.99551	0.07770
3260.70974	0.07739
3259.42398	0.07729
3258.13821	0.07746
3256.85244	0.07789
3255.56667	0.07839
3254.28090	0.07870
3252.99513	0.07867
3251.70936	0.07838
3250.42359	0.07810
3249.13783	0.07805
3247.85206	0.07826
3246.56629	0.07854
3245.28052	0.07860
3243.99475	0.07830
3242.70898	0.07770
3241.42321	0.07714
3240.13744	0.07699
3238.85167	0.07731
3237.56591	0.07772
3236.28014	0.07777
3234.99437	0.07733
3233.70860	0.07675
3232.42283	0.07646
3231.13706	0.07657
3229.85129	0.07680
3228.56552	0.07678
3227.27976	0.07637
3225.99399	0.07575
3224.70822	0.07523
3223.42245	0.07504
3222.13668	0.07520
3220.85091	0.07551
3219.56514	0.07570
3218.27937	0.07568
3216.99360	0.07556
3215.70784	0.07554
3214.42207	0.07562
3213.13630	0.07564
3211.85053	0.07552
3210.56476	0.07532
3209.27899	0.07505
3207.99322	0.07467
3206.70745	0.07425
3205.42169	0.07403
3204.13592	0.07419
3202.85015	0.07457
3201.56438	0.07483
3200.27861	0.07474
3198.99284	0.07440
3197.70707	0.07411
3196.42130	0.07411
3195.13553	0.07430
3193.84977	0.07437
3192.56400	0.07409
3191.27823	0.07365
3189.99246	0.07344
3188.70669	0.07359
3187.42092	0.07393
3186.13515	0.07412
3184.84938	0.07399
3183.56362	0.07358
3182.27785	0.07303
3180.99208	0.07247
3179.70631	0.07199
3178.42054	0.07172
3177.13477	0.07176
3175.84900	0.07206
3174.56323	0.07239
3173.27746	0.07252
3171.99170	0.07242
3170.70593	0.07230
3169.42016	0.07228
3168.13439	0.07227
3166.84862	0.07213
3165.56285	0.07187
3164.27708	0.07167
3162.99131	0.07167
3161.70555	0.07189
3160.41978	0.07217
3159.13401	0.07229
3157.84824	0.07206
3156.56247	0.07155
3155.27670	0.07106
3153.99093	0.07086
3152.70516	0.07084
3151.41939	0.07069
3150.13363	0.07035
3148.84786	0.07004
3147.56209	0.06990
3146.27632	0.06978
3144.99055	0.06949
3143.70478	0.06901
3142.41901	0.06850
3141.13324	0.06808
3139.84748	0.06780
3138.56171	0.06765
3137.27594	0.06760
3135.99017	0.06755
3134.70440	0.06743
3133.41863	0.06725
3132.13286	0.06714
3130.84709	0.06728
3129.56132	0.06767
3128.27556	0.06813
3126.98979	0.06837
3125.70402	0.06827
3124.41825	0.06791
3123.13248	0.06749
3121.84671	0.06707
3120.56094	0.06659
3119.27517	0.06609
3117.98940	0.06574
3116.70364	0.06568
3115.41787	0.06586
3114.13210	0.06617
3112.84633	0.06658
3111.56056	0.06714
3110.27479	0.06774
3108.98902	0.06810
3107.70325	0.06799
3106.41749	0.06737
3105.13172	0.06649
3103.84595	0.06577
3102.56018	0.06552
3101.27441	0.06570
3099.98864	0.06602
3098.70287	0.06628
3097.41710	0.06649
3096.13133	0.06671
3094.84557	0.06685
3093.55980	0.06673
3092.27403	0.06643
3090.98826	0.06619
3089.70249	0.06615
3088.41672	0.06617
3087.13095	0.06606
3085.84518	0.06575
3084.55942	0.06539
3083.27365	0.06516
3081.98788	0.06517
3080.70211	0.06539
3079.41634	0.06567
3078.13057	0.06587
3076.84480	0.06598
3075.55903	0.06616
3074.27326	0.06648
3072.98750	0.06675
3071.70173	0.06663
3070.41596	0.06601
3069.13019	0.06522
3067.84442	0.06464
3066.55865	0.06439
3065.27288	0.06429
3063.98711	0.06419
3062.70135	0.06411
3061.41558	0.06412
3060.12981	0.06417
3058.84404	0.06419
3057.55827	0.06417
3056.27250	0.06416
3054.98673	0.06414
3053.70096	0.06406
3052.41519	0.06395
3051.12943	0.06396
3049.84366	0.06421
3048.55789	0.06457
3047.27212	0.06477
3045.98635	0.06464
3044.70058	0.06430
3043.41481	0.06399
3042.12904	0.06378
3040.84328	0.06350
3039.55751	0.06303
3038.27174	0.06254
3036.98597	0.06226
3035.70020	0.06227
3034.41443	0.06235
3033.12866	0.06225
3031.84289	0.06195
3030.55712	0.06165
3029.27136	0.06154
3027.98559	0.06164
3026.69982	0.06183
3025.41405	0.06195
3024.12828	0.06192
3022.84251	0.06174
3021.55674	0.06151
3020.27097	0.06129
3018.98521	0.06105
3017.69944	0.06076
3016.41367	0.06044
3015.12790	0.06021
3013.84213	0.06013
3012.55636	0.06021
3011.27059	0.06038
3009.98482	0.06055
3008.69905	0.06060
3007.41329	0.06047
3006.12752	0.06021
3004.84175	0.05992
3003.55598	0.05969
3002.27021	0.05952
3000.98444	0.05937
2999.69867	0.05921
2998.41290	0.05906
2997.12714	0.05898
2995.84137	0.05903
2994.55560	0.05921
2993.26983	0.05931
2991.98406	0.05925
2990.69829	0.05914
2989.41252	0.05914
2988.12675	0.05932
2986.84098	0.05957
2985.55522	0.05987
2984.26945	0.06033
2982.98368	0.06105
2981.69791	0.06200
2980.41214	0.06302
2979.12637	0.06379
2977.84060	0.06408
2976.55483	0.06392
2975.26907	0.06370
2973.98330	0.06396
2972.69753	0.06495
2971.41176	0.06653
2970.12599	0.06829
2968.84022	0.06988
2967.55445	0.07113
2966.26868	0.07212
2964.98291	0.07304
2963.69715	0.07402
2962.41138	0.07501
2961.12561	0.07592
2959.83984	0.07680
2958.55407	0.07781
2957.26830	0.07903
2955.98253	0.08024
2954.69676	0.08116
2953.41100	0.08169
2952.12523	0.08195
2950.83946	0.08214
2949.55369	0.08236
2948.26792	0.08264
2946.98215	0.08295
2945.69638	0.08325
2944.41061	0.08349
2943.12484	0.08361
2941.83908	0.08363
2940.55331	0.08369
2939.26754	0.08399
2937.98177	0.08471
2936.69600	0.08582
2935.41023	0.08709
2934.12446	0.08826
2932.83869	0.08925
2931.55293	0.09016
2930.26716	0.09111
2928.98139	0.09212
2927.69562	0.09306
2926.40985	0.09386
2925.12408	0.09455
2923.83831	0.09514
2922.55254	0.09546
2921.26677	0.09542
2919.98101	0.09515
2918.69524	0.09487
2917.40947	0.09457
2916.12370	0.09408
2914.83793	0.09331
2913.55216	0.09234
2912.26639	0.09134
2910.98062	0.09039
2909.69486	0.08948
2908.40909	0.08852
2907.12332	0.08752
2905.83755	0.08661
2904.55178	0.08594
2903.26601	0.08550
2901.98024	0.08509
2900.69447	0.08453
2899.40870	0.08378
2898.12294	0.08292
2896.83717	0.08213
2895.55140	0.08153
2894.26563	0.08110
2892.97986	0.08067
2891.69409	0.08009
2890.40832	0.07935
2889.12255	0.07856
2887.83678	0.07778
2886.55102	0.07701
2885.26525	0.07629
2883.97948	0.07573
2882.69371	0.07537
2881.40794	0.07511
2880.12217	0.07487
2878.83640	0.07472
2877.55063	0.07487
2876.26487	0.07543
2874.97910	0.07622
2873.69333	0.07698
2872.40756	0.07755
2871.12179	0.07800
2869.83602	0.07843
2868.55025	0.07881
2867.26448	0.07901
2865.97871	0.07899
2864.69295	0.07881
2863.40718	0.07856
2862.12141	0.07832
2860.83564	0.07821
2859.54987	0.07835
2858.26410	0.07872
2856.97833	0.07916
2855.69256	0.07949
2854.40680	0.07972
2853.12103	0.07991
2851.83526	0.08003
2850.54949	0.07997
2849.26372	0.07960
2847.97795	0.07893
2846.69218	0.07805
2845.40641	0.07703
2844.12064	0.07592
2842.83488	0.07470
2841.54911	0.07337
2840.26334	0.07198
2838.97757	0.07069
2837.69180	0.06970
2836.40603	0.06911
2835.12026	0.06877
2833.83449	0.06829
2832.54873	0.06742
2831.26296	0.06626
2829.97719	0.06521
2828.69142	0.06456
2827.40565	0.06428
2826.11988	0.06404
2824.83411	0.06358
2823.54834	0.06284
2822.26257	0.06197
2820.97681	0.06119
2819.69104	0.06064
2818.40527	0.06029
2817.11950	0.06004
2815.83373	0.05985
2814.54796	0.05976
2813.26219	0.05980
2811.97642	0.05983
2810.69066	0.05968
2809.40489	0.05925
2808.11912	0.05870
2806.83335	0.05829
2805.54758	0.05811
2804.26181	0.05804
2802.97604	0.05795
2801.69027	0.05788
2800.40450	0.05789
2799.11874	0.05787
2797.83297	0.05767
2796.54720	0.05727
2795.26143	0.05681
2793.97566	0.05647
2792.68989	0.05627
2791.40412	0.05610
2790.11835	0.05588
2788.83259	0.05560
2787.54682	0.05536
2786.26105	0.05526
2784.97528	0.05532
2783.68951	0.05547
2782.40374	0.05561
2781.11797	0.05567
2779.83220	0.05567
2778.54643	0.05563
2777.26067	0.05553
2775.97490	0.05535
2774.68913	0.05516
2773.40336	0.05505
2772.11759	0.05501
2770.83182	0.05496
2769.54605	0.05483
2768.26028	0.05463
2766.97452	0.05445
2765.68875	0.05434
2764.40298	0.05426
2763.11721	0.05411
2761.83144	0.05385
2760.54567	0.05356
2759.25990	0.05340
2757.97413	0.05342
2756.68836	0.05360
2755.40260	0.05381
2754.11683	0.05390
2752.83106	0.05377
2751.54529	0.05355
2750.25952	0.05343
2748.97375	0.05343
2747.68798	0.05340
2746.40221	0.05325
2745.11645	0.05305
2743.83068	0.05295
2742.54491	0.05301
2741.25914	0.05316
2739.97337	0.05328
2738.68760	0.05334
2737.40183	0.05331
2736.11606	0.05318
2734.83029	0.05291
2733.54453	0.05249
2732.25876	0.05197
2730.97299	0.05157
2729.68722	0.05147
2728.40145	0.05174
2727.11568	0.05217
2725.82991	0.05244
2724.54414	0.05236
2723.25838	0.05201
2721.97261	0.05164
2720.68684	0.05143
2719.40107	0.05141
2718.11530	0.05143
2716.82953	0.05138
2715.54376	0.05120
2714.25799	0.05096
2712.97222	0.05078
2711.68646	0.05071
2710.40069	0.05071
2709.11492	0.05075
2707.82915	0.05078
2706.54338	0.05075
2705.25761	0.05066
2703.97184	0.05052
2702.68607	0.05036
2701.40031	0.05017
2700.11454	0.04994
2698.82877	0.04971
2697.54300	0.04953
2696.25723	0.04947
2694.97146	0.04951
2693.68569	0.04962
2692.39992	0.04975
2691.11415	0.04990
2689.82839	0.05005
2688.54262	0.05016
2687.25685	0.05018
2685.97108	0.05008
2684.68531	0.04990
2683.39954	0.04974
2682.11377	0.04969
2680.82800	0.04970
2679.54224	0.04974
2678.25647	0.04975
2676.97070	0.04975
2675.68493	0.04969
2674.39916	0.04952
2673.11339	0.04927
2671.82762	0.04904
2670.54185	0.04892
2669.25608	0.04890
2667.97032	0.04889
2666.68455	0.04888
2665.39878	0.04895
2664.11301	0.04914
2662.82724	0.04936
2661.54147	0.04945
2660.25570	0.04934
2658.96993	0.04906
2657.68417	0.04870
2656.39840	0.04841
2655.11263	0.04821
2653.82686	0.04804
2652.54109	0.04786
2651.25532	0.04773
2649.96955	0.04774
2648.68378	0.04782
2647.39801	0.04776
2646.11225	0.04744
2644.82648	0.04695
2643.54071	0.04650
2642.25494	0.04621
2640.96917	0.04608
2639.68340	0.04604
2638.39763	0.04601
2637.11186	0.04591
2635.82609	0.04575
2634.54033	0.04562
2633.25456	0.04559
2631.96879	0.04559
2630.68302	0.04553
2629.39725	0.04539
2628.11148	0.04524
2626.82571	0.04510
2625.53994	0.04493
2624.25418	0.04477
2622.96841	0.04476
2621.68264	0.04484
2620.39687	0.04480
2619.11110	0.04446
2617.82533	0.04390
2616.53956	0.04335
2615.25379	0.04292
2613.96802	0.04262
2612.68226	0.04247
2611.39649	0.04251
2610.11072	0.04263
2608.82495	0.04263
2607.53918	0.04238
2606.25341	0.04192
2604.96764	0.04140
2603.68187	0.04094
2602.39611	0.04063
2601.11034	0.04060
2599.82457	0.04096
2598.53880	0.04163
2597.25303	0.04236
2595.96726	0.04282
2594.68149	0.04280
2593.39572	0.04237
2592.10995	0.04171
2590.82419	0.04108
2589.53842	0.04072
2588.25265	0.04075
2586.96688	0.04104
2585.68111	0.04123
2584.39534	0.04106
2583.10957	0.04064
2581.82380	0.04029
2580.53804	0.04015
2579.25227	0.04003
2577.96650	0.03971
2576.68073	0.03919
2575.39496	0.03869
2574.10919	0.03840
2572.82342	0.03827
2571.53765	0.03813
2570.25188	0.03800
2568.96612	0.03805
2567.68035	0.03837
2566.39458	0.03883
2565.10881	0.03919
2563.82304	0.03928
2562.53727	0.03905
2561.25150	0.03863
2559.96573	0.03817
2558.67997	0.03777
2557.39420	0.03747
2556.10843	0.03736
2554.82266	0.03764
2553.53689	0.03832
2552.25112	0.03912
2550.96535	0.03968
2549.67958	0.03990
2548.39381	0.03997
2547.10805	0.04002
2545.82228	0.03990
2544.53651	0.03942
2543.25074	0.03866
2541.96497	0.03802
2540.67920	0.03776
2539.39343	0.03778
2538.10766	0.03779
2536.82190	0.03766
2535.53613	0.03749
2534.25036	0.03736
2532.96459	0.03726
2531.67882	0.03721
2530.39305	0.03734
2529.10728	0.03771
2527.82151	0.03818
2526.53574	0.03853
2525.24998	0.03862
2523.96421	0.03838
2522.67844	0.03791
2521.39267	0.03742
2520.10690	0.03718
2518.82113	0.03725
2517.53536	0.03735
2516.24959	0.03720
2514.96383	0.03681
2513.67806	0.03640
2512.39229	0.03612
2511.10652	0.03596
2509.82075	0.03593
2508.53498	0.03609
2507.24921	0.03648
2505.96344	0.03700
2504.67767	0.03746
2503.39191	0.03770
2502.10614	0.03764
2500.82037	0.03732
2499.53460	0.03684
2498.24883	0.03639
2496.96306	0.03622
2495.67729	0.03638
2494.39152	0.03671
2493.10576	0.03704
2491.81999	0.03728
2490.53422	0.03742
2489.24845	0.03740
2487.96268	0.03715
2486.67691	0.03668
2485.39114	0.03615
2484.10537	0.03574
2482.81960	0.03563
2481.53384	0.03576
2480.24807	0.03588
2478.96230	0.03576
2477.67653	0.03543
2476.39076	0.03519
2475.10499	0.03529
2473.81922	0.03574
2472.53345	0.03636
2471.24769	0.03691
2469.96192	0.03729
2468.67615	0.03753
2467.39038	0.03765
2466.10461	0.03761
2464.81884	0.03742
2463.53307	0.03718
2462.24730	0.03695
2460.96153	0.03672
2459.67577	0.03647
2458.39000	0.03631
2457.10423	0.03636
2455.81846	0.03662
2454.53269	0.03685
2453.24692	0.03679
2451.96115	0.03636
2450.67538	0.03574
2449.38962	0.03527
2448.10385	0.03513
2446.81808	0.03523
2445.53231	0.03533
2444.24654	0.03537
2442.96077	0.03539
2441.67500	0.03537
2440.38923	0.03516
2439.10346	0.03473
2437.81770	0.03425
2436.53193	0.03396
2435.24616	0.03395
2433.96039	0.03409
2432.67462	0.03418
2431.38885	0.03412
2430.10308	0.03400
2428.81731	0.03385
2427.53155	0.03368
2426.24578	0.03348
2424.96001	0.03342
2423.67424	0.03366
2422.38847	0.03411
2421.10270	0.03450
2419.81693	0.03457
2418.53116	0.03438
2417.24539	0.03417
2415.95963	0.03413
2414.67386	0.03425
2413.38809	0.03434
2412.10232	0.03427
2410.81655	0.03407
2409.53078	0.03386
2408.24501	0.03375
2406.95924	0.03373
2405.67347	0.03380
2404.38771	0.03400
2403.10194	0.03440
2401.81617	0.03500
2400.53040	0.03564
2399.24463	0.03593
2397.95886	0.03582
2396.67309	0.03534
2395.38732	0.03467
2394.10156	0.03410
2392.81579	0.03374
2391.53002	0.03354
2390.24425	0.03348
2388.95848	0.03360
2387.67271	0.03390
2386.38694	0.03429
2385.10117	0.03466
2383.81540	0.03498
2382.52964	0.03521
2381.24387	0.03534
2379.95810	0.03537
2378.67233	0.03534
2377.38656	0.03533
2376.10079	0.03537
2374.81502	0.03546
2373.52925	0.03556
2372.24349	0.03568
2370.95772	0.03587
2369.67195	0.03616
2368.38618	0.03648
2367.10041	0.03676
2365.81464	0.03700
2364.52887	0.03728
2363.24310	0.03762
2361.95733	0.03796
2360.67157	0.03825
2359.38580	0.03849
2358.10003	0.03870
2356.81426	0.03881
2355.52849	0.03870
2354.24272	0.03835
2352.95695	0.03790
2351.67118	0.03753
2350.38542	0.03732
2349.09965	0.03729
2347.81388	0.03737
2346.52811	0.03752
2345.24234	0.03765
2343.95657	0.03770
2342.67080	0.03760
2341.38503	0.03733
2340.09926	0.03698
2338.81350	0.03670
2337.52773	0.03665
2336.24196	0.03682
2334.95619	0.03710
2333.67042	0.03740
2332.38465	0.03762
2331.09888	0.03773
2329.81311	0.03781
2328.52735	0.03793
2327.24158	0.03805
2325.95581	0.03802
2324.67004	0.03769
2323.38427	0.03714
2322.09850	0.03660
2320.81273	0.03626
2319.52696	0.03613
2318.24119	0.03608
2316.95543	0.03593
2315.66966	0.03562
2314.38389	0.03522
2313.09812	0.03486
2311.81235	0.03464
2310.52658	0.03449
2309.24081	0.03423
2307.95504	0.03375
2306.66928	0.03312
2305.38351	0.03254
2304.09774	0.03219
2302.81197	0.03215
2301.52620	0.03240
2300.24043	0.03284
2298.95466	0.03329
2297.66889	0.03359
2296.38312	0.03370
2295.09736	0.03355
2293.81159	0.03309
2292.52582	0.03238
2291.24005	0.03171
2289.95428	0.03142
2288.66851	0.03151
2287.38274	0.03171
2286.09697	0.03167
2284.81121	0.03130
2283.52544	0.03072
2282.23967	0.03018
2280.95390	0.02980
2279.66813	0.02957
2278.38236	0.02937
2277.09659	0.02906
2275.81082	0.02859
2274.52505	0.02804
2273.23929	0.02762
2271.95352	0.02745
2270.66775	0.02749
2269.38198	0.02758
2268.09621	0.02769
2266.81044	0.02793
2265.52467	0.02836
2264.23890	0.02882
2262.95314	0.02907
2261.66737	0.02897
2260.38160	0.02855
2259.09583	0.02787
2257.81006	0.02698
2256.52429	0.02595
2255.23852	0.02497
2253.95275	0.02427
2252.66698	0.02404
2251.38122	0.02423
2250.09545	0.02453
2248.80968	0.02475
2247.52391	0.02531
2246.23814	0.02557
2244.95237	0.02528
2243.66660	0.02464
2242.38083	0.02412
2241.09507	0.02412
2239.80930	0.02456
2238.52353	0.02504
2237.23776	0.02521
2235.95199	0.02498
2234.66622	0.02443
2233.38045	0.02384
2232.09468	0.02354
2230.80891	0.02369
2229.52315	0.02397
2228.23738	0.02389
2226.95161	0.02334
2225.66584	0.02272
2224.38007	0.02247
2223.09430	0.02261
2221.80853	0.02291
2220.52276	0.02316
2219.23700	0.02317
2217.95123	0.02275
2216.66546	0.02199
2215.37969	0.02135
2214.09392	0.02127
2212.80815	0.02165
2211.52238	0.02195
2210.23661	0.02164
2208.95084	0.02067
2207.66508	0.01958
2206.37931	0.01904
2205.09354	0.01917
2203.80777	0.01952
2202.52200	0.01967
2201.23623	0.01969
2199.95046	0.01982
2198.66469	0.01997
2197.37893	0.01980
2196.09316	0.01903
2194.80739	0.01784
2193.52162	0.01686
2192.23585	0.01681
2190.95008	0.01777
2189.66431	0.01910
2188.37854	0.01995
2187.09277	0.01995
2185.80701	0.01937
2184.52124	0.01874
2183.23547	0.01833
2181.94970	0.01804
2180.66393	0.01762
2179.37816	0.01698
2178.09239	0.01608
2176.80662	0.01504
2175.52085	0.01438
2174.23509	0.01476
2172.94932	0.01620
2171.66355	0.01780
2170.37778	0.01850
2169.09201	0.01799
2167.80624	0.01679
2166.52047	0.01579
2165.23470	0.01562
2163.94894	0.01599
2162.66317	0.01574
2161.37740	0.01406
2160.09163	0.01171
2158.80586	0.01059
2157.52009	0.01162
2156.23432	0.01382
2154.94855	0.01562
2153.66278	0.01637
2152.37702	0.01642
2151.09125	0.01635
2149.80548	0.01630
2148.51971	0.01607
2147.23394	0.01562
2145.94817	0.01533
2144.66240	0.01562
2143.37663	0.01655
2142.09087	0.01776
2140.80510	0.01885
2139.51933	0.01957
2138.23356	0.01976
2136.94779	0.01926
2135.66202	0.01812
2134.37625	0.01684
2133.09048	0.01616
2131.80471	0.01654
2130.51895	0.01776
2129.23318	0.01923
2127.94741	0.02040
2126.66164	0.02113
2125.37587	0.02152
2124.09010	0.02169
2122.80433	0.02168
2121.51856	0.02158
2120.23280	0.02157
2118.94703	0.02178
2117.66126	0.02213
2116.37549	0.02239
2115.08972	0.02242
2113.80395	0.02222
2112.51818	0.02190
2111.23241	0.02162
2109.94664	0.02148
2108.66088	0.02141
2107.37511	0.02119
2106.08934	0.02078
2104.80357	0.02035
2103.51780	0.02011
2102.23203	0.02000
2100.94626	0.01982
2099.66049	0.01991
2098.37473	0.01966
2097.08896	0.01922
2095.80319	0.01895
2094.51742	0.01898
2093.23165	0.01931
2091.94588	0.01980
2090.66011	0.02016
2089.37434	0.02024
2088.08857	0.02016
2086.80281	0.02013
2085.51704	0.02024
2084.23127	0.02035
2082.94550	0.02029
2081.65973	0.02005
2080.37396	0.01979
2079.08819	0.01955
2077.80242	0.01921
2076.51666	0.01865
2075.23089	0.01799
2073.94512	0.01753
2072.65935	0.01750
2071.37358	0.01786
2070.08781	0.01844
2068.80204	0.01904
2067.51627	0.01942
2066.23050	0.01943
2064.94474	0.01906
2063.65897	0.01843
2062.37320	0.01772
2061.08743	0.01715
2059.80166	0.01688
2058.51589	0.01686
2057.23012	0.01688
2055.94435	0.01679
2054.65859	0.01659
2053.37282	0.01637
2052.08705	0.01614
2050.80128	0.01593
2049.51551	0.01576
2048.22974	0.01558
2046.94397	0.01533
2045.65820	0.01496
2044.37243	0.01443
2043.08667	0.01377
2041.80090	0.01325
2040.51513	0.01338
2039.22936	0.01446
2037.94359	0.01613
2036.65782	0.01750
2035.37205	0.01779
2034.08628	0.01678
2032.80052	0.01501
2031.51475	0.01336
2030.22898	0.01252
2028.94321	0.01255
2027.65744	0.01293
2026.37167	0.01315
2025.08590	0.01316
2023.80013	0.01328
2022.51436	0.01366
2021.22860	0.01402
2019.94283	0.01394
2018.65706	0.01339
2017.37129	0.01271
2016.08552	0.01228
2014.79975	0.01216
2013.51398	0.01217
2012.22821	0.01214
2010.94245	0.01222
2009.65668	0.01264
2008.37091	0.01339
2007.08514	0.01402
2005.79937	0.01398
2004.51360	0.01312
2003.22783	0.01185
2001.94206	0.01100
2000.65629	0.01119
1999.37053	0.01237
1998.08476	0.01380
1996.79899	0.01476
1995.51322	0.01501
1994.22745	0.01477
1992.94168	0.01433
1991.65591	0.01395
1990.37014	0.01379
1989.08438	0.01382
1987.79861	0.01382
1986.51284	0.01357
1985.22707	0.01316
1983.94130	0.01294
1982.65553	0.01314
1981.36976	0.01375
1980.08399	0.01450
1978.79822	0.01503
1977.51246	0.01507
1976.22669	0.01469
1974.94092	0.01424
1973.65515	0.01419
1972.36938	0.01469
1971.08361	0.01550
1969.79784	0.01613
1968.51207	0.01616
1967.22631	0.01556
1965.94054	0.01468
1964.65477	0.01396
1963.36900	0.01365
1962.08323	0.01379
1960.79746	0.01442
1959.51169	0.01551
1958.22592	0.01677
1956.94015	0.01774
1955.65439	0.01814
1954.36862	0.01799
1953.08285	0.01759
1951.79708	0.01728
1950.51131	0.01727
1949.22554	0.01754
1947.93977	0.01792
1946.65400	0.01818
1945.36823	0.01820
1944.08247	0.01804
1942.79670	0.01786
1941.51093	0.01779
1940.22516	0.01784
1938.93939	0.01792
1937.65362	0.01796
1936.36785	0.01802
1935.08208	0.01829
1933.79632	0.01889
1932.51055	0.01966
1931.22478	0.02017
1929.93901	0.02017
1928.65324	0.01979
1927.36747	0.01945
1926.08170	0.01939
1924.79593	0.01954
1923.51016	0.01970
1922.22440	0.01975
1920.93863	0.01969
1919.65286	0.01961
1918.36709	0.01964
1917.08132	0.01982
1915.79555	0.02010
1914.50978	0.02033
1913.22401	0.02049
1911.93825	0.02064
1910.65248	0.02077
1909.36671	0.02079
1908.08094	0.02065
1906.79517	0.02042
1905.50940	0.02027
1904.22363	0.02024
1902.93786	0.02022
1901.65209	0.02016
1900.36633	0.02022
1899.08056	0.02052
1897.79479	0.02095
1896.50902	0.02123
1895.22325	0.02120
1893.93748	0.02098
1892.65171	0.02078
1891.36594	0.02072
1890.08018	0.02076
1888.79441	0.02082
1887.50864	0.02087
1886.22287	0.02090
1884.93710	0.02088
1883.65133	0.02077
1882.36556	0.02061
1881.07979	0.02043
1879.79402	0.02030
1878.50826	0.02029
1877.22249	0.02043
1875.93672	0.02069
1874.65095	0.02095
1873.36518	0.02110
1872.07941	0.02111
1870.79364	0.02103
1869.50787	0.02097
1868.22211	0.02102
1866.93634	0.02120
1865.65057	0.02142
1864.36480	0.02158
1863.07903	0.02153
1861.79326	0.02124
1860.50749	0.02089
1859.22172	0.02069
1857.93595	0.02074
1856.65019	0.02091
1855.36442	0.02108
1854.07865	0.02125
1852.79288	0.02146
1851.50711	0.02166
1850.22134	0.02171
1848.93557	0.02160
1847.64980	0.02145
1846.36404	0.02128
1845.07827	0.02103
1843.79250	0.02076
1842.50673	0.02061
1841.22096	0.02070
1839.93519	0.02096
1838.64942	0.02124
1837.36365	0.02139
1836.07788	0.02139
1834.79212	0.02130
1833.50635	0.02120
1832.22058	0.02115
1830.93481	0.02117
1829.64904	0.02132
1828.36327	0.02158
1827.07750	0.02184
1825.79173	0.02204
1824.50597	0.02218
1823.22020	0.02226
1821.93443	0.02225
1820.64866	0.02213
1819.36289	0.02193
1818.07712	0.02167
1816.79135	0.02137
1815.50558	0.02112
1814.21981	0.02097
1812.93405	0.02095
1811.64828	0.02105
1810.36251	0.02121
1809.07674	0.02134
1807.79097	0.02139
1806.50520	0.02134
1805.21943	0.02128
1803.93366	0.02124
1802.64790	0.02120
1801.36213	0.02114
1800.07636	0.02105
1798.79059	0.02098
1797.50482	0.02097
1796.21905	0.02104
1794.93328	0.02115
1793.64751	0.02127
1792.36174	0.02142
1791.07598	0.02160
1789.79021	0.02176
1788.50444	0.02186
1787.21867	0.02191
1785.93290	0.02192
1784.64713	0.02190
1783.36136	0.02182
1782.07559	0.02169
1780.78983	0.02155
1779.50406	0.02149
1778.21829	0.02154
1776.93252	0.02167
1775.64675	0.02179
1774.36098	0.02182
1773.07521	0.02178
1771.78944	0.02180
1770.50367	0.02188
1769.21791	0.02196
1767.93214	0.02203
1766.64637	0.02213
1765.36060	0.02216
1764.07483	0.02205
1762.78906	0.02188
1761.50329	0.02182
1760.21752	0.02190
1758.93176	0.02200
1757.64599	0.02204
1756.36022	0.02209
1755.07445	0.02220
1753.78868	0.02229
1752.50291	0.02233
1751.21714	0.02233
1749.93137	0.02232
1748.64560	0.02225
1747.35984	0.02216
1746.07407	0.02217
1744.78830	0.02233
1743.50253	0.02256
1742.21676	0.02279
1740.93099	0.02295
1739.64522	0.02311
1738.35945	0.02333
1737.07369	0.02353
1735.78792	0.02361
1734.50215	0.02371
1733.21638	0.02394
1731.93061	0.02418
1730.64484	0.02423
1729.35907	0.02412
1728.07330	0.02406
1726.78753	0.02408
1725.50177	0.02414
1724.21600	0.02424
1722.93023	0.02443
1721.64446	0.02473
1720.35869	0.02504
1719.07292	0.02526
1717.78715	0.02544
1716.50138	0.02568
1715.21561	0.02594
1713.92985	0.02620
1712.64408	0.02651
1711.35831	0.02690
1710.07254	0.02738
1708.78677	0.02793
1707.50100	0.02849
1706.21523	0.02904
1704.92946	0.02962
1703.64370	0.03021
1702.35793	0.03067
1701.07216	0.03106
1699.78639	0.03161
1698.50062	0.03225
1697.21485	0.03271
1695.92908	0.03307
1694.64331	0.03362
1693.35754	0.03427
1692.07178	0.03480
1690.78601	0.03527
1689.50024	0.03586
1688.21447	0.03657
1686.92870	0.03718
1685.64293	0.03764
1684.35716	0.03816
1683.07139	0.03883
1681.78563	0.03941
1680.49986	0.03979
1679.21409	0.04013
1677.92832	0.04055
1676.64255	0.04103
1675.35678	0.04160
1674.07101	0.04229
1672.78524	0.04300
1671.49947	0.04361
1670.21371	0.04416
1668.92794	0.04477
1667.64217	0.04543
1666.35640	0.04605
1665.07063	0.04657
1663.78486	0.04705
1662.49909	0.04758
1661.21332	0.04812
1659.92756	0.04861
1658.64179	0.04910
1657.35602	0.04971
1656.07025	0.05034
1654.78448	0.05080
1653.49871	0.05116
1652.21294	0.05166
1650.92717	0.05223
1649.64140	0.05255
1648.35564	0.05258
1647.06987	0.05257
1645.78410	0.05268
1644.49833	0.05288
1643.21256	0.05303
1641.92679	0.05309
1640.64102	0.05314
1639.35525	0.05321
1638.06949	0.05319
1636.78372	0.05304
1635.49795	0.05285
1634.21218	0.05270
1632.92641	0.05250
1631.64064	0.05219
1630.35487	0.05180
1629.06910	0.05140
1627.78333	0.05104
1626.49757	0.05070
1625.21180	0.05033
1623.92603	0.04992
1622.64026	0.04956
1621.35449	0.04930
1620.06872	0.04904
1618.78295	0.04864
1617.49718	0.04814
1616.21142	0.04771
1614.92565	0.04741
1613.63988	0.04712
1612.35411	0.04676
1611.06834	0.04638
1609.78257	0.04603
1608.49680	0.04573
1607.21103	0.04548
1605.92526	0.04530
1604.63950	0.04519
1603.35373	0.04512
1602.06796	0.04508
1600.78219	0.04500
1599.49642	0.04485
1598.21065	0.04466
1596.92488	0.04448
1595.63911	0.04435
1594.35335	0.04433
1593.06758	0.04439
1591.78181	0.04450
1590.49604	0.04460
1589.21027	0.04464
1587.92450	0.04464
1586.63873	0.04463
1585.35296	0.04466
1584.06719	0.04474
1582.78143	0.04487
1581.49566	0.04506
1580.20989	0.04527
1578.92412	0.04543
1577.63835	0.04548
1576.35258	0.04556
1575.06681	0.04582
1573.78104	0.04619
1572.49528	0.04646
1571.20951	0.04663
1569.92374	0.04684
1568.63797	0.04712
1567.35220	0.04737
1566.06643	0.04752
1564.78066	0.04769
1563.49489	0.04799
1562.20912	0.04831
1560.92336	0.04852
1559.63759	0.04866
1558.35182	0.04888
1557.06605	0.04909
1555.78028	0.04912
1554.49451	0.04900
1553.20874	0.04894
1551.92297	0.04895
1550.63721	0.04895
1549.35144	0.04894
1548.06567	0.04894
1546.77990	0.04893
1545.49413	0.04891
1544.20836	0.04890
1542.92259	0.04886
1541.63682	0.04868
1540.35105	0.04841
1539.06529	0.04821
1537.77952	0.04814
1536.49375	0.04805
1535.20798	0.04781
1533.92221	0.04752
1532.63644	0.04731
1531.35067	0.04720
1530.06490	0.04713
1528.77914	0.04711
1527.49337	0.04718
1526.20760	0.04730
1524.92183	0.04744
1523.63606	0.04750
1522.35029	0.04746
1521.06452	0.04750
1519.77875	0.04767
1518.49298	0.04787
1517.20722	0.04808
1515.92145	0.04836
1514.63568	0.04872
1513.34991	0.04907
1512.06414	0.04947
1510.77837	0.04997
1509.49260	0.05048
1508.20683	0.05087
1506.92107	0.05117
1505.63530	0.05156
1504.34953	0.05200
1503.06376	0.05236
1501.77799	0.05260
1500.49222	0.05282
1499.20645	0.05309
1497.92068	0.05336
1496.63491	0.05361
1495.34915	0.05386
1494.06338	0.05407
1492.77761	0.05414
1491.49184	0.05417
1490.20607	0.05433
1488.92030	0.05469
1487.63453	0.05518
1486.34876	0.05570
1485.06299	0.05619
1483.77723	0.05668
1482.49146	0.05722
1481.20569	0.05784
1479.91992	0.05852
1478.63415	0.05923
1477.34838	0.06000
1476.06261	0.06082
1474.77684	0.06162
1473.49108	0.06231
1472.20531	0.06294
1470.91954	0.06360
1469.63377	0.06430
1468.34800	0.06502
1467.06223	0.06572
1465.77646	0.06638
1464.49069	0.06702
1463.20492	0.06764
1461.91916	0.06821
1460.63339	0.06873
1459.34762	0.06920
1458.06185	0.06968
1456.77608	0.07028
1455.49031	0.07099
1454.20454	0.07157
1452.91877	0.07188
1451.63301	0.07201
1450.34724	0.07210
1449.06147	0.07218
1447.77570	0.07226
1446.48993	0.07235
1445.20416	0.07240
1443.91839	0.07234
1442.63262	0.07219
1441.34685	0.07199
1440.06109	0.07175
1438.77532	0.07143
1437.48955	0.07110
1436.20378	0.07087
1434.91801	0.07078
1433.63224	0.07077
1432.34647	0.07082
1431.06070	0.07097
1429.77494	0.07125
1428.48917	0.07162
1427.20340	0.07204
1425.91763	0.07250
1424.63186	0.07305
1423.34609	0.07369
1422.06032	0.07435
1420.77455	0.07491
1419.48878	0.07538
1418.20302	0.07580
1416.91725	0.07614
1415.63148	0.07638
1414.34571	0.07655
1413.05994	0.07671
1411.77417	0.07683
1410.48840	0.07685
1409.20263	0.07673
1407.91687	0.07648
1406.63110	0.07614
1405.34533	0.07577
1404.05956	0.07540
1402.77379	0.07501
1401.48802	0.07453
1400.20225	0.07392
1398.91648	0.07323
1397.63071	0.07244
1396.34495	0.07154
1395.05918	0.07054
1393.77341	0.06955
1392.48764	0.06865
1391.20187	0.06783
1389.91610	0.06706
1388.63033	0.06630
1387.34456	0.06561
1386.05880	0.06500
1384.77303	0.06446
1383.48726	0.06393
1382.20149	0.06342
1380.91572	0.06294
1379.62995	0.06244
1378.34418	0.06185
1377.05841	0.06110
1375.77264	0.06017
1374.48688	0.05910
1373.20111	0.05799
1371.91534	0.05686
1370.62957	0.05571
1369.34380	0.05453
1368.05803	0.05340
1366.77226	0.05240
1365.48649	0.05152
1364.20073	0.05070
1362.91496	0.04987
1361.62919	0.04901
1360.34342	0.04814
1359.05765	0.04730
1357.77188	0.04650
1356.48611	0.04572
1355.20034	0.04501
1353.91457	0.04437
1352.62881	0.04382
1351.34304	0.04334
1350.05727	0.04292
1348.77150	0.04252
1347.48573	0.04214
1346.19996	0.04176
1344.91419	0.04136
1343.62842	0.04098
1342.34266	0.04062
1341.05689	0.04031
1339.77112	0.04004
1338.48535	0.03980
1337.19958	0.03956
1335.91381	0.03932
1334.62804	0.03906
1333.34227	0.03877
1332.05650	0.03845
1330.77074	0.03810
1329.48497	0.03776
1328.19920	0.03747
1326.91343	0.03724
1325.62766	0.03705
1324.34189	0.03686
1323.05612	0.03666
1321.77035	0.03643
1320.48459	0.03619
1319.19882	0.03596
1317.91305	0.03575
1316.62728	0.03556
1315.34151	0.03536
1314.05574	0.03515
1312.76997	0.03493
1311.48420	0.03472
1310.19843	0.03456
1308.91267	0.03442
1307.62690	0.03430
1306.34113	0.03416
1305.05536	0.03398
1303.76959	0.03378
1302.48382	0.03358
1301.19805	0.03342
1299.91228	0.03329
1298.62652	0.03317
1297.34075	0.03303
1296.05498	0.03290
1294.76921	0.03278
1293.48344	0.03268
1292.19767	0.03261
1290.91190	0.03252
1289.62613	0.03239
1288.34036	0.03223
1287.05460	0.03207
1285.76883	0.03197
1284.48306	0.03190
1283.19729	0.03182
1281.91152	0.03169
1280.62575	0.03152
1279.33998	0.03135
1278.05421	0.03126
1276.76845	0.03124
1275.48268	0.03126
1274.19691	0.03126
1272.91114	0.03122
1271.62537	0.03116
1270.33960	0.03108
1269.05383	0.03100
1267.76806	0.03092
1266.48229	0.03087
1265.19653	0.03086
1263.91076	0.03089
1262.62499	0.03091
1261.33922	0.03090
1260.05345	0.03089
1258.76768	0.03091
1257.48191	0.03103
1256.19614	0.03120
1254.91037	0.03138
1253.62461	0.03149
1252.33884	0.03152
1251.05307	0.03150
1249.76730	0.03146
1248.48153	0.03142
1247.19576	0.03142
1245.90999	0.03145
1244.62422	0.03151
1243.33846	0.03158
1242.05269	0.03161
1240.76692	0.03160
1239.48115	0.03158
1238.19538	0.03158
1236.90961	0.03162
1235.62384	0.03167
1234.33807	0.03169
1233.05230	0.03168
1231.76654	0.03166
1230.48077	0.03161
1229.19500	0.03154
1227.90923	0.03147
1226.62346	0.03140
1225.33769	0.03133
1224.05192	0.03125
1222.76615	0.03118
1221.48039	0.03113
1220.19462	0.03112
1218.90885	0.03115
1217.62308	0.03121
1216.33731	0.03128
1215.05154	0.03137
1213.76577	0.03143
1212.48000	0.03144
1211.19423	0.03142
1209.90847	0.03141
1208.62270	0.03148
1207.33693	0.03163
1206.05116	0.03185
1204.76539	0.03209
1203.47962	0.03231
1202.19385	0.03248
1200.90808	0.03258
1199.62232	0.03259
1198.33655	0.03264
1197.05078	0.03268
1195.76501	0.03272
1194.47924	0.03278
1193.19347	0.03282
1191.90770	0.03282
1190.62193	0.03280
1189.33616	0.03282
1188.05040	0.03292
1186.76463	0.03308
1185.47886	0.03323
1184.19309	0.03337
1182.90732	0.03353
1181.62155	0.03376
1180.33578	0.03401
1179.05001	0.03425
1177.76425	0.03442
1176.47848	0.03458
1175.19271	0.03477
1173.90694	0.03503
1172.62117	0.03535
1171.33540	0.03566
1170.04963	0.03594
1168.76386	0.03619
1167.47809	0.03644
1166.19233	0.03674
1164.90656	0.03704
1163.62079	0.03727
1162.33502	0.03739
1161.04925	0.03746
1159.76348	0.03754
1158.47771	0.03763
1157.19194	0.03768
1155.90618	0.03770
1154.62041	0.03774
1153.33464	0.03785
1152.04887	0.03807
1150.76310	0.03840
1149.47733	0.03878
1148.19156	0.03914
1146.90579	0.03946
1145.62002	0.03976
1144.33426	0.04003
1143.04849	0.04029
1141.76272	0.04056
1140.47695	0.04088
1139.19118	0.04129
1137.90541	0.04183
1136.61964	0.04250
1135.33387	0.04330
1134.04811	0.04418
1132.76234	0.04507
1131.47657	0.04596
1130.19080	0.04692
1128.90503	0.04802
1127.61926	0.04931
1126.33349	0.05077
1125.04772	0.05235
1123.76195	0.05401
1122.47619	0.05576
1121.19042	0.05756
1119.90465	0.05938
1118.61888	0.06117
1117.33311	0.06297
1116.04734	0.06481
1114.76157	0.06672
1113.47580	0.06870
1112.19004	0.07071
1110.90427	0.07271
1109.61850	0.07464
1108.33273	0.07647
1107.04696	0.07821
1105.76119	0.07991
1104.47542	0.08159
1103.18965	0.08322
1101.90388	0.08478
1100.61812	0.08624
1099.33235	0.08760
1098.04658	0.08884
1096.76081	0.09000
1095.47504	0.09111
1094.18927	0.09222
1092.90350	0.09329
1091.61773	0.09426
1090.33197	0.09509
1089.04620	0.09584
1087.76043	0.09661
1086.47466	0.09745
1085.18889	0.09830
1083.90312	0.09913
1082.61735	0.09997
1081.33158	0.10086
1080.04581	0.10179
1078.76005	0.10273
1077.47428	0.10373
1076.18851	0.10481
1074.90274	0.10601
1073.61697	0.10728
1072.33120	0.10858
1071.04543	0.10986
1069.75966	0.11114
1068.47390	0.11247
1067.18813	0.11394
1065.90236	0.11555
1064.61659	0.11724
1063.33082	0.11889
1062.04505	0.12045
1060.75928	0.12195
1059.47351	0.12348
1058.18774	0.12510
1056.90198	0.12676
1055.61621	0.12839
1054.33044	0.12998
1053.04467	0.13160
1051.75890	0.13328
1050.47313	0.13500
1049.18736	0.13666
1047.90159	0.13825
1046.61583	0.13985
1045.33006	0.14157
1044.04429	0.14341
1042.75852	0.14531
1041.47275	0.14719
1040.18698	0.14900
1038.90121	0.15078
1037.61544	0.15252
1036.32967	0.15423
1035.04391	0.15596
1033.75814	0.15774
1032.47237	0.15951
1031.18660	0.16118
1029.90083	0.16266
1028.61506	0.16392
1027.32929	0.16503
1026.04352	0.16601
1024.75775	0.16683
1023.47199	0.16747
1022.18622	0.16793
1020.90045	0.16823
1019.61468	0.16839
1018.32891	0.16845
1017.04314	0.16842
1015.75737	0.16827
1014.47160	0.16795
1013.18584	0.16741
1011.90007	0.16662
1010.61430	0.16559
1009.32853	0.16439
1008.04276	0.16306
1006.75699	0.16163
1005.47122	0.16006
1004.18545	0.15833
1002.89968	0.15643
1001.61392	0.15440
1000.32815	0.15219
999.04238	0.14979
997.75661	0.14725
996.47084	0.14464
995.18507	0.14202
993.89930	0.13933
992.61353	0.13656
991.32777	0.13374
990.04200	0.13100
988.75623	0.12844
987.47046	0.12603
986.18469	0.12365
984.89892	0.12128
983.61315	0.11903
982.32738	0.11696
981.04161	0.11501
979.75585	0.11305
978.47008	0.11102
977.18431	0.10897
975.89854	0.10699
974.61277	0.10518
973.32700	0.10357
972.04123	0.10218
970.75546	0.10099
969.46970	0.09999
968.18393	0.09918
966.89816	0.09852
965.61239	0.09798
964.32662	0.09757
963.04085	0.09734
961.75508	0.09726
960.46931	0.09713
959.18354	0.09673
957.89778	0.09595
956.61201	0.09487
955.32624	0.09366
954.04047	0.09243
952.75470	0.09119
951.46893	0.08992
950.18316	0.08861
948.89739	0.08727
947.61163	0.08592
946.32586	0.08459
945.04009	0.08334
943.75432	0.08220
942.46855	0.08110
941.18278	0.07998
939.89701	0.07886
938.61124	0.07785
937.32547	0.07698
936.03971	0.07616
934.75394	0.07530
933.46817	0.07439
932.18240	0.07345
930.89663	0.07254
929.61086	0.07169
928.32509	0.07091
927.03932	0.07020
925.75356	0.06953
924.46779	0.06888
923.18202	0.06823
921.89625	0.06758
920.61048	0.06698
919.32471	0.06646
918.03894	0.06598
916.75317	0.06547
915.46740	0.06485
914.18164	0.06419
912.89587	0.06356
911.61010	0.06299
910.32433	0.06241
909.03856	0.06178
907.75279	0.06108
906.46702	0.06041
905.18125	0.05980
903.89549	0.05925
902.60972	0.05872
901.32395	0.05817
900.03818	0.05753
898.75241	0.05687
897.46664	0.05630
896.18087	0.05597
894.89510	0.05579
893.60933	0.05551
892.32357	0.05497
891.03780	0.05422
889.75203	0.05347
888.46626	0.05298
887.18049	0.05288
885.89472	0.05320
884.60895	0.05391
883.32318	0.05493
882.03742	0.05612
880.75165	0.05732
879.46588	0.05837
878.18011	0.05917
876.89434	0.05982
875.60857	0.06047
874.32280	0.06119
873.03703	0.06182
871.75126	0.06215
870.46550	0.06208
869.17973	0.06166
867.89396	0.06095
866.60819	0.05996
865.32242	0.05872
864.03665	0.05733
862.75088	0.05591
861.46511	0.05453
860.17935	0.05323
858.89358	0.05207
857.60781	0.05112
856.32204	0.05038
855.03627	0.04977
853.75050	0.04920
852.46473	0.04861
851.17896	0.04803
849.89319	0.04748
848.60743	0.04697
847.32166	0.04652
846.03589	0.04611
844.75012	0.04576
843.46435	0.04545
842.17858	0.04514
840.89281	0.04481
839.60704	0.04449
838.32128	0.04418
837.03551	0.04386
835.74974	0.04351
834.46397	0.04316
833.17820	0.04287
831.89243	0.04270
830.60666	0.04258
829.32089	0.04242
828.03512	0.04221
826.74936	0.04196
825.46359	0.04173
824.17782	0.04151
822.89205	0.04132
821.60628	0.04120
820.32051	0.04121
819.03474	0.04134
817.74897	0.04148
816.46321	0.04151
815.17744	0.04140
813.89167	0.04124
812.60590	0.04110
811.32013	0.04102
810.03436	0.04107
808.74859	0.04130
807.46282	0.04169
806.17705	0.04218
804.89129	0.04266
803.60552	0.04311
802.31975	0.04354
801.03398	0.04396
799.74821	0.04438
798.46244	0.04474
797.17667	0.04500
795.89090	0.04511
794.60513	0.04509
793.31937	0.04499
792.03360	0.04491
790.74783	0.04490
789.46206	0.04493
788.17629	0.04494
786.89052	0.04489
785.60475	0.04479
784.31898	0.04475
783.03322	0.04482
781.74745	0.04496
780.46168	0.04506
779.17591	0.04503
777.89014	0.04487
776.60437	0.04464
775.31860	0.04437
774.03283	0.04407
772.74706	0.04383
771.46130	0.04370
770.17553	0.04365
768.88976	0.04358
767.60399	0.04345
766.31822	0.04332
765.03245	0.04325
763.74668	0.04324
762.46091	0.04326
761.17515	0.04325
759.88938	0.04321
758.60361	0.04313
757.31784	0.04299
756.03207	0.04279
754.74630	0.04258
753.46053	0.04240
752.17476	0.04225
750.88899	0.04212
749.60323	0.04205
748.31746	0.04206
747.03169	0.04209
745.74592	0.04202
744.46015	0.04178
743.17438	0.04142
741.88861	0.04108
740.60284	0.04085
739.31708	0.04077
738.03131	0.04075
736.74554	0.04070
735.45977	0.04058
734.17400	0.04042
732.88823	0.04023
731.60246	0.04002
730.31669	0.03982
729.03092	0.03968
727.74516	0.03965
726.45939	0.03974
725.17362	0.03990
723.88785	0.04015
722.60208	0.04018
721.31631	0.04011
720.03054	0.04008
718.74477	0.04003
717.45901	0.03988
716.17324	0.03963
714.88747	0.03935
713.60170	0.03912
712.31593	0.03898
711.03016	0.03889
709.74439	0.03878
708.45862	0.03864
707.17285	0.03846
705.88709	0.03829
704.60132	0.03816
703.31555	0.03807
702.02978	0.03803
700.74401	0.03808
699.45824	0.03821
698.17247	0.03836
696.88670	0.03847
695.60094	0.03849
694.31517	0.03843
693.02940	0.03833
691.74363	0.03818
690.45786	0.03800
689.17209	0.03781
687.88632	0.03764
686.60055	0.03749
685.31478	0.03734
684.02902	0.03723
682.74325	0.03715
681.45748	0.03708
680.17171	0.03697
678.88594	0.03681
677.60017	0.03662
676.31440	0.03646
675.02863	0.03638
673.74287	0.03636
672.45710	0.03636
671.17133	0.03636
669.88556	0.03633
668.59979	0.03625
667.31402	0.03613
666.02825	0.03595
664.74248	0.03576
663.45671	0.03558
662.17095	0.03543
660.88518	0.03530
659.59941	0.03518
658.31364	0.03509
657.02787	0.03506
655.74210	0.03508
654.45633	0.03511
653.17056	0.03513
651.88480	0.03513
650.59903	0.03515
649.31326	0.03519
648.02749	0.03523
646.74172	0.03524
645.45595	0.03520
644.17018	0.03514
642.88441	0.03511
641.59864	0.03509
640.31288	0.03504
639.02711	0.03493
637.74134	0.03482
636.45557	0.03478
635.16980	0.03481
633.88403	0.03485
632.59826	0.03483
631.31249	0.03477
630.02673	0.03496
628.74096	0.03527
627.45519	0.03465
626.16942	0.03522
624.88365	0.03673
623.59788	0.03830
622.31211	0.03949
621.02634	0.04027
619.74057	0.04091
618.45481	0.04145
617.16904	0.04158
615.88327	0.04105
614.59750	0.04011
613.31173	0.03948
612.02596	0.04003
610.74019	0.04242
609.45442	0.04670
608.16866	0.05216
606.88289	0.05772
605.59712	0.06248
604.31135	0.06589
603.02558	0.06774
601.73981	0.06815
600.45404	0.06758
599.16827	0.06663
597.88250	0.06573
596.59674	0.06490
595.31097	0.06399
594.02520	0.06291
592.73943	0.06177
591.45366	0.06079
590.16789	0.06013
588.88212	0.05984
587.59635	0.05988
586.31059	0.06018
585.02482	0.06072
583.73905	0.06150
582.45328	0.06253
581.16751	0.06370
579.88174	0.06483
578.59597	0.06582
577.31020	0.06671
576.02443	0.06761
574.73867	0.06855
573.45290	0.06949
572.16713	0.07046
570.88136	0.07157
569.59559	0.07295
568.30982	0.07468
567.02405	0.07662
565.73828	0.07848
564.45251	0.07992
563.16675	0.08080
561.88098	0.08119
560.59521	0.08118
559.30944	0.08071
558.02367	0.07962
556.73790	0.07787
555.45213	0.07560
554.16636	0.07310
552.88060	0.07062
551.59483	0.06834
550.30906	0.06635
549.02329	0.06464
547.73752	0.06314
546.45175	0.06180
545.16598	0.06061
543.88021	0.05959
542.59444	0.05873
541.30868	0.05804
540.02291	0.05753
538.73714	0.05710
537.45137	0.05665
536.16560	0.05613
534.87983	0.05560
533.59406	0.05517
532.30829	0.05482
531.02253	0.05449
529.73676	0.05413
528.45099	0.05377
527.16522	0.05345
525.87945	0.05317
524.59368	0.05289
523.30791	0.05259
522.02214	0.05225
520.73637	0.05187
519.45061	0.05147
518.16484	0.05104
516.87907	0.05058
515.59330	0.05010
514.30753	0.04963
513.02176	0.04922
511.73599	0.04891
510.45022	0.04871
509.16446	0.04856
507.87869	0.04838
506.59292	0.04814
505.30715	0.04789
504.02138	0.04770
502.73561	0.04761
501.44984	0.04759
500.16407	0.04756
498.87830	0.04749
497.59254	0.04737
496.30677	0.04718
495.02100	0.04689
493.73523	0.04656
492.44946	0.04630
491.16369	0.04619
489.87792	0.04618
488.59215	0.04619
487.30639	0.04618
486.02062	0.04623
484.73485	0.04647
483.44908	0.04690
482.16331	0.04744
480.87754	0.04803
479.59177	0.04866
478.30600	0.04935
477.02023	0.05007
475.73447	0.05074
474.44870	0.05133
473.16293	0.05181
471.87716	0.05221
470.59139	0.05256
469.30562	0.05290
468.01985	0.05323
466.73408	0.05352
465.44832	0.05369
464.16255	0.05371
462.87678	0.05356
461.59101	0.05325
460.30524	0.05279
459.01947	0.05220
457.73370	0.05158
456.44793	0.05102
455.16216	0.05057
453.87640	0.05019
452.59063	0.04982
451.30486	0.04943
450.01909	0.04903
448.73332	0.04867
447.44755	0.04833
446.16178	0.04793
444.87601	0.04746
443.59025	0.04697
442.30448	0.04658
441.01871	0.04632
439.73294	0.04616
438.44717	0.04602
437.16140	0.04591
435.87563	0.04586
434.58986	0.04589
433.30409	0.04596
432.01833	0.04602
430.73256	0.04604
429.44679	0.04600
428.16102	0.04588
426.87525	0.04571
425.58948	0.04549
424.30371	0.04522
423.01794	0.04491
421.73218	0.04454
420.44641	0.04413
419.16064	0.04368
417.87487	0.04322
416.58910	0.04272
415.30333	0.04219
414.01756	0.04165
412.73179	0.04113
411.44602	0.04060
410.16026	0.04006
408.87449	0.03952
407.58872	0.03900
406.30295	0.03854
405.01718	0.03817
403.73141	0.03794
402.44564	0.03787
401.15987	0.03796
399.87411	0.03816
