3997.45528	0.02758
3996.16951	0.02793
3994.88374	0.02801
3993.59798	0.02767
3992.31221	0.02688
3991.02644	0.02583
3989.74067	0.02492
3988.45490	0.02453
3987.16913	0.02475
3985.88336	0.02538
3984.59759	0.02611
3983.31183	0.02670
3982.02606	0.02701
3980.74029	0.02708
3979.45452	0.02724
3978.16875	0.02782
3976.88298	0.02870
3975.59721	0.02929
3974.31144	0.02913
3973.02567	0.02842
3971.73991	0.02779
3970.45414	0.02761
3969.16837	0.02777
3967.88260	0.02793
3966.59683	0.02793
3965.31106	0.02782
3964.02529	0.02761
3962.73952	0.02709
3961.45376	0.02603
3960.16799	0.02466
3958.88222	0.02373
3957.59645	0.02389
3956.31068	0.02506
3955.02491	0.02646
3953.73914	0.02740
3952.45337	0.02777
3951.16760	0.02800
3949.88184	0.02839
3948.59607	0.02883
3947.31030	0.02891
3946.02453	0.02842
3944.73876	0.02756
3943.45299	0.02671
3942.16722	0.02617
3940.88145	0.02604
3939.59569	0.02625
3938.30992	0.02651
3937.02415	0.02651
3935.73838	0.02609
3934.45261	0.02535
3933.16684	0.02459
3931.88107	0.02414
3930.59530	0.02424
3929.30953	0.02492
3928.02377	0.02603
3926.73800	0.02715
3925.45223	0.02783
3924.16646	0.02780
3922.88069	0.02728
3921.59492	0.02676
3920.30915	0.02667
3919.02338	0.02705
3917.73762	0.02763
3916.45185	0.02795
3915.16608	0.02773
3913.88031	0.02706
3912.59454	0.02630
3911.30877	0.02581
3910.02300	0.02569
3908.73723	0.02590
3907.45146	0.02639
3906.16570	0.02702
3904.87993	0.02746
3903.59416	0.02730
3902.30839	0.02643
3901.02262	0.02528
3899.73685	0.02450
3898.45108	0.02436
3897.16531	0.02466
3895.87955	0.02505
3894.59378	0.02545
3893.30801	0.02583
3892.02224	0.02609
3890.73647	0.02614
3889.45070	0.02612
3888.16493	0.02626
3886.87916	0.02662
3885.59339	0.02697
3884.30763	0.02705
3883.02186	0.02677
3881.73609	0.02635
3880.45032	0.02603
3879.16455	0.02594
3877.87878	0.02601
3876.59301	0.02613
3875.30724	0.02611
3874.02148	0.02592
3872.73571	0.02571
3871.44994	0.02580
3870.16417	0.02624
3868.87840	0.02674
3867.59263	0.02688
3866.30686	0.02643
3865.02109	0.02549
3863.73532	0.02438
3862.44956	0.02359
3861.16379	0.02344
3859.87802	0.02386
3858.59225	0.02452
3857.30648	0.02517
3856.02071	0.02577
3854.73494	0.02622
3853.44917	0.02635
3852.16341	0.02614
3850.87764	0.02580
3849.59187	0.02564
3848.30610	0.02579
3847.02033	0.02626
3845.73456	0.02697
3844.44879	0.02774
3843.16302	0.02824
3841.87725	0.02809
3840.59149	0.02716
3839.30572	0.02576
3838.01995	0.02450
3836.73418	0.02384
3835.44841	0.02383
3834.16264	0.02415
3832.87687	0.02442
3831.59110	0.02446
3830.30534	0.02440
3829.01957	0.02441
3827.73380	0.02457
3826.44803	0.02479
3825.16226	0.02491
3823.87649	0.02489
3822.59072	0.02484
3821.30495	0.02497
3820.01918	0.02539
3818.73342	0.02590
3817.44765	0.02614
3816.16188	0.02590
3814.87611	0.02536
3813.59034	0.02494
3812.30457	0.02503
3811.01880	0.02560
3809.73303	0.02620
3808.44726	0.02631
3807.16150	0.02577
3805.87573	0.02500
3804.58996	0.02462
3803.30419	0.02489
3802.01842	0.02555
3800.73265	0.02620
3799.44688	0.02664
3798.16111	0.02691
3796.87535	0.02702
3795.58958	0.02691
3794.30381	0.02656
3793.01804	0.02620
3791.73227	0.02598
3790.44650	0.02583
3789.16073	0.02551
3787.87496	0.02499
3786.58919	0.02453
3785.30343	0.02443
3784.01766	0.02467
3782.73189	0.02499
3781.44612	0.02520
3780.16035	0.02525
3778.87458	0.02509
3777.58881	0.02471
3776.30304	0.02421
3775.01728	0.02390
3773.73151	0.02393
3772.44574	0.02425
3771.15997	0.02473
3769.87420	0.02531
3768.58843	0.02587
3767.30266	0.02622
3766.01689	0.02625
3764.73112	0.02599
3763.44536	0.02555
3762.15959	0.02498
3760.87382	0.02440
3759.58805	0.02399
3758.30228	0.02393
3757.01651	0.02423
3755.73074	0.02481
3754.44497	0.02543
3753.15921	0.02575
3751.87344	0.02548
3750.58767	0.02473
3749.30190	0.02391
3748.01613	0.02345
3746.73036	0.02339
3745.44459	0.02355
3744.15882	0.02376
3742.87305	0.02406
3741.58729	0.02452
3740.30152	0.02498
3739.01575	0.02504
3737.72998	0.02449
3736.44421	0.02365
3735.15844	0.02311
3733.87267	0.02313
3732.58690	0.02347
3731.30114	0.02370
3730.01537	0.02369
3728.72960	0.02354
3727.44383	0.02340
3726.15806	0.02336
3724.87229	0.02347
3723.58652	0.02362
3722.30075	0.02360
3721.01498	0.02338
3719.72922	0.02327
3718.44345	0.02366
3717.15768	0.02451
3715.87191	0.02528
3714.58614	0.02540
3713.30037	0.02483
3712.01460	0.02407
3710.72883	0.02369
3709.44307	0.02390
3708.15730	0.02449
3706.87153	0.02505
3705.58576	0.02522
3704.29999	0.02489
3703.01422	0.02418
3701.72845	0.02341
3700.44268	0.02286
3699.15691	0.02270
3697.87115	0.02287
3696.58538	0.02318
3695.29961	0.02340
3694.01384	0.02349
3692.72807	0.02355
3691.44230	0.02372
3690.15653	0.02405
3688.87076	0.02453
3687.58500	0.02498
3686.29923	0.02505
3685.01346	0.02452
3683.72769	0.02368
3682.44192	0.02324
3681.15615	0.02373
3679.87038	0.02497
3678.58461	0.02628
3677.29884	0.02701
3676.01308	0.02694
3674.72731	0.02627
3673.44154	0.02548
3672.15577	0.02498
3670.87000	0.02480
3669.58423	0.02466
3668.29846	0.02439
3667.01269	0.02411
3665.72693	0.02404
3664.44116	0.02414
3663.15539	0.02423
3661.86962	0.02432
3660.58385	0.02461
3659.29808	0.02507
3658.01231	0.02532
3656.72654	0.02505
3655.44077	0.02444
3654.15501	0.02402
3652.86924	0.02400
3651.58347	0.02412
3650.29770	0.02409
3649.01193	0.02403
3647.72616	0.02426
3646.44039	0.02483
3645.15462	0.02553
3643.86886	0.02607
3642.58309	0.02626
3641.29732	0.02605
3640.01155	0.02560
3638.72578	0.02523
3637.44001	0.02523
3636.15424	0.02560
3634.86847	0.02621
3633.58270	0.02691
3632.29694	0.02750
3631.01117	0.02770
3629.72540	0.02730
3628.43963	0.02643
3627.15386	0.02552
3625.86809	0.02509
3624.58232	0.02536
3623.29655	0.02609
3622.01079	0.02679
3620.72502	0.02724
3619.43925	0.02757
3618.15348	0.02793
3616.86771	0.02821
3615.58194	0.02829
3614.29617	0.02827
3613.01040	0.02837
3611.72463	0.02851
3610.43887	0.02838
3609.15310	0.02782
3607.86733	0.02712
3606.58156	0.02670
3605.29579	0.02669
3604.01002	0.02696
3602.72425	0.02740
3601.43848	0.02793
3600.15272	0.02842
3598.86695	0.02882
3597.58118	0.02916
3596.29541	0.02946
3595.00964	0.02959
3593.72387	0.02948
3592.43810	0.02928
3591.15233	0.02926
3589.86656	0.02951
3588.58080	0.02982
3587.29503	0.02982
3586.00926	0.02934
3584.72349	0.02866
3583.43772	0.02831
3582.15195	0.02851
3580.86618	0.02892
3579.58041	0.02900
3578.29464	0.02861
3577.00888	0.02816
3575.72311	0.02805
3574.43734	0.02829
3573.15157	0.02860
3571.86580	0.02883
3570.58003	0.02908
3569.29426	0.02940
3568.00849	0.02969
3566.72273	0.02978
3565.43696	0.02974
3564.15119	0.02970
3562.86542	0.02977
3561.57965	0.02988
3560.29388	0.03001
3559.00811	0.03022
3557.72234	0.03060
3556.43657	0.03113
3555.15081	0.03161
3553.86504	0.03179
3552.57927	0.03157
3551.29350	0.03113
3550.00773	0.03090
3548.72196	0.03131
3547.43619	0.03235
3546.15042	0.03356
3544.86466	0.03440
3543.57889	0.03466
3542.29312	0.03460
3541.00735	0.03460
3539.72158	0.03484
3538.43581	0.03516
3537.15004	0.03529
3535.86427	0.03510
3534.57850	0.03475
3533.29274	0.03451
3532.00697	0.03449
3530.72120	0.03456
3529.43543	0.03455
3528.14966	0.03453
3526.86389	0.03471
3525.57812	0.03520
3524.29235	0.03579
3523.00659	0.03620
3521.72082	0.03639
3520.43505	0.03654
3519.14928	0.03675
3517.86351	0.03698
3516.57774	0.03715
3515.29197	0.03728
3514.00620	0.03739
3512.72043	0.03740
3511.43467	0.03721
3510.14890	0.03682
3508.86313	0.03640
3507.57736	0.03611
3506.29159	0.03596
3505.00582	0.03591
3503.72005	0.03603
3502.43428	0.03640
3501.14852	0.03696
3499.86275	0.03742
3498.57698	0.03751
3497.29121	0.03721
3496.00544	0.03674
3494.71967	0.03637
3493.43390	0.03634
3492.14813	0.03673
3490.86236	0.03740
3489.57660	0.03805
3488.29083	0.03838
3487.00506	0.03826
3485.71929	0.03786
3484.43352	0.03752
3483.14775	0.03752
3481.86198	0.03787
3480.57621	0.03834
3479.29045	0.03874
3478.00468	0.03911
3476.71891	0.03958
3475.43314	0.04015
3474.14737	0.04055
3472.86160	0.04057
3471.57583	0.04031
3470.29006	0.04010
3469.00429	0.04013
3467.71853	0.04034
3466.43276	0.04053
3465.14699	0.04059
3463.86122	0.04054
3462.57545	0.04043
3461.28968	0.04036
3460.00391	0.04045
3458.71814	0.04072
3457.43238	0.04100
3456.14661	0.04109
3454.86084	0.04095
3453.57507	0.04072
3452.28930	0.04060
3451.00353	0.04067
3449.71776	0.04093
3448.43199	0.04131
3447.14622	0.04168
3445.86046	0.04186
3444.57469	0.04177
3443.28892	0.04152
3442.00315	0.04134
3440.71738	0.04133
3439.43161	0.04142
3438.14584	0.04155
3436.86007	0.04177
3435.57431	0.04215
3434.28854	0.04253
3433.00277	0.04260
3431.71700	0.04230
3430.43123	0.04188
3429.14546	0.04173
3427.85969	0.04199
3426.57392	0.04249
3425.28815	0.04297
3424.00239	0.04336
3422.71662	0.04365
3421.43085	0.04377
3420.14508	0.04362
3418.85931	0.04327
3417.57354	0.04308
3416.28777	0.04335
3415.00200	0.04395
3413.71624	0.04442
3412.43047	0.04436
3411.14470	0.04388
3409.85893	0.04352
3408.57316	0.04370
3407.28739	0.04434
3406.00162	0.04496
3404.71585	0.04521
3403.43008	0.04515
3402.14432	0.04510
3400.85855	0.04534
3399.57278	0.04581
3398.28701	0.04620
3397.00124	0.04626
3395.71547	0.04601
3394.42970	0.04571
3393.14393	0.04562
3391.85817	0.04571
3390.57240	0.04572
3389.28663	0.04551
3388.00086	0.04521
3386.71509	0.04499
3385.42932	0.04482
3384.14355	0.04459
3382.85778	0.04438
3381.57201	0.04441
3380.28625	0.04473
3379.00048	0.04510
3377.71471	0.04533
3376.42894	0.04544
3375.14317	0.04555
3373.85740	0.04573
3372.57163	0.04595
3371.28586	0.04623
3370.00010	0.04668
3368.71433	0.04730
3367.42856	0.04791
3366.14279	0.04823
3364.85702	0.04805
3363.57125	0.04747
3362.28548	0.04675
3360.99971	0.04614
3359.71394	0.04574
3358.42818	0.04558
3357.14241	0.04568
3355.85664	0.04603
3354.57087	0.04654
3353.28510	0.04700
3351.99933	0.04722
3350.71356	0.04717
3349.42779	0.04700
3348.14202	0.04690
3346.85626	0.04689
3345.57049	0.04684
3344.28472	0.04667
3342.99895	0.04642
3341.71318	0.04624
3340.42741	0.04622
3339.14164	0.04631
3337.85587	0.04646
3336.57011	0.04665
3335.28434	0.04686
3333.99857	0.04697
3332.71280	0.04689
3331.42703	0.04673
3330.14126	0.04676
3328.85549	0.04708
3327.56972	0.04755
3326.28395	0.04789
3324.99819	0.04798
3323.71242	0.04795
3322.42665	0.04799
3321.14088	0.04807
3319.85511	0.04802
3318.56934	0.04770
3317.28357	0.04726
3315.99780	0.04701
3314.71204	0.04722
3313.42627	0.04782
3312.14050	0.04851
3310.85473	0.04890
3309.56896	0.04877
3308.28319	0.04820
3306.99742	0.04751
3305.71165	0.04705
3304.42588	0.04703
3303.14012	0.04736
3301.85435	0.04772
3300.56858	0.04782
3299.28281	0.04762
3297.99704	0.04723
3296.71127	0.04681
3295.42550	0.04645
3294.13973	0.04627
3292.85397	0.04633
3291.56820	0.04656
3290.28243	0.04681
3288.99666	0.04693
3287.71089	0.04688
3286.42512	0.04675
3285.13935	0.04669
3283.85358	0.04689
3282.56781	0.04735
3281.28205	0.04787
3279.99628	0.04820
3278.71051	0.04825
3277.42474	0.04814
3276.13897	0.04803
3274.85320	0.04790
3273.56743	0.04763
3272.28166	0.04719
3270.99590	0.04673
3269.71013	0.04647
3268.42436	0.04644
3267.13859	0.04651
3265.85282	0.04655
3264.56705	0.04661
3263.28128	0.04680
3261.99551	0.04712
3260.70974	0.04742
3259.42398	0.04751
3258.13821	0.04734
3256.85244	0.04697
3255.56667	0.04654
3254.28090	0.04612
3252.99513	0.04568
3251.70936	0.04514
3250.42359	0.04457
3249.13783	0.04419
3247.85206	0.04418
3246.56629	0.04448
3245.28052	0.04486
3243.99475	0.04512
3242.70898	0.04533
3241.42321	0.04566
3240.13744	0.04615
3238.85167	0.04661
3237.56591	0.04682
3236.28014	0.04668
3234.99437	0.04625
3233.70860	0.04573
3232.42283	0.04536
3231.13706	0.04525
3229.85129	0.04532
3228.56552	0.04540
3227.27976	0.04542
3225.99399	0.04543
3224.70822	0.04546
3223.42245	0.04548
3222.13668	0.04541
3220.85091	0.04530
3219.56514	0.04519
3218.27937	0.04508
3216.99360	0.04490
3215.70784	0.04465
3214.42207	0.04446
3213.13630	0.04432
3211.85053	0.04409
3210.56476	0.04367
3209.27899	0.04321
3207.99322	0.04303
3206.70745	0.04325
3205.42169	0.04359
3204.13592	0.04365
3202.85015	0.04325
3201.56438	0.04269
3200.27861	0.04238
3198.99284	0.04252
3197.70707	0.04297
3196.42130	0.04347
3195.13553	0.04387
3193.84977	0.04415
3192.56400	0.04428
3191.27823	0.04425
3189.99246	0.04402
3188.70669	0.04368
3187.42092	0.04336
3186.13515	0.04311
3184.84938	0.04290
3183.56362	0.04265
3182.27785	0.04241
3180.99208	0.04231
3179.70631	0.04232
3178.42054	0.04228
3177.13477	0.04214
3175.84900	0.04202
3174.56323	0.04202
3173.27746	0.04203
3171.99170	0.04188
3170.70593	0.04159
3169.42016	0.04133
3168.13439	0.04119
3166.84862	0.04111
3165.56285	0.04099
3164.27708	0.04090
3162.99131	0.04094
3161.70555	0.04108
3160.41978	0.04122
3159.13401	0.04131
3157.84824	0.04134
3156.56247	0.04129
3155.27670	0.04108
3153.99093	0.04065
3152.70516	0.04003
3151.41939	0.03943
3150.13363	0.03915
3148.84786	0.03939
3147.56209	0.04009
3146.27632	0.04090
3144.99055	0.04149
3143.70478	0.04170
3142.41901	0.04147
3141.13324	0.04085
3139.84748	0.04006
3138.56171	0.03943
3137.27594	0.03916
3135.99017	0.03917
3134.70440	0.03929
3133.41863	0.03941
3132.13286	0.03951
3130.84709	0.03960
3129.56132	0.03963
3128.27556	0.03961
3126.98979	0.03959
3125.70402	0.03956
3124.41825	0.03946
3123.13248	0.03925
3121.84671	0.03899
3120.56094	0.03879
3119.27517	0.03865
3117.98940	0.03852
3116.70364	0.03835
3115.41787	0.03820
3114.13210	0.03815
3112.84633	0.03823
3111.56056	0.03839
3110.27479	0.03855
3108.98902	0.03856
3107.70325	0.03829
3106.41749	0.03774
3105.13172	0.03719
3103.84595	0.03701
3102.56018	0.03728
3101.27441	0.03774
3099.98864	0.03807
3098.70287	0.03820
3097.41710	0.03830
3096.13133	0.03846
3094.84557	0.03862
3093.55980	0.03869
3092.27403	0.03870
3090.98826	0.03869
3089.70249	0.03866
3088.41672	0.03862
3087.13095	0.03859
3085.84518	0.03862
3084.55942	0.03870
3083.27365	0.03882
3081.98788	0.03898
3080.70211	0.03917
3079.41634	0.03925
3078.13057	0.03908
3076.84480	0.03868
3075.55903	0.03828
3074.27326	0.03806
3072.98750	0.03802
3071.70173	0.03804
3070.41596	0.03802
3069.13019	0.03796
3067.84442	0.03794
3066.55865	0.03801
3065.27288	0.03821
3063.98711	0.03847
3062.70135	0.03870
3061.41558	0.03873
3060.12981	0.03849
3058.84404	0.03814
3057.55827	0.03791
3056.27250	0.03796
3054.98673	0.03818
3053.70096	0.03831
3052.41519	0.03820
3051.12943	0.03786
3049.84366	0.03740
3048.55789	0.03695
3047.27212	0.03664
3045.98635	0.03645
3044.70058	0.03628
3043.41481	0.03604
3042.12904	0.03580
3040.84328	0.03574
3039.55751	0.03595
3038.27174	0.03638
3036.98597	0.03687
3035.70020	0.03730
3034.41443	0.03755
3033.12866	0.03753
3031.84289	0.03718
3030.55712	0.03660
3029.27136	0.03600
3027.98559	0.03554
3026.69982	0.03528
3025.41405	0.03520
3024.12828	0.03524
3022.84251	0.03536
3021.55674	0.03552
3020.27097	0.03564
3018.98521	0.03563
3017.69944	0.03541
3016.41367	0.03497
3015.12790	0.03441
3013.84213	0.03387
3012.55636	0.03358
3011.27059	0.03360
3009.98482	0.03380
3008.69905	0.03393
3007.41329	0.03386
3006.12752	0.03378
3004.84175	0.03389
3003.55598	0.03421
3002.27021	0.03451
3000.98444	0.03461
2999.69867	0.03447
2998.41290	0.03417
2997.12714	0.03387
2995.84137	0.03376
2994.55560	0.03392
2993.26983	0.03424
2991.98406	0.03445
2990.69829	0.03439
2989.41252	0.03419
2988.12675	0.03406
2986.84098	0.03406
2985.55522	0.03405
2984.26945	0.03389
2982.98368	0.03361
2981.69791	0.03342
2980.41214	0.03345
2979.12637	0.03365
2977.84060	0.03382
2976.55483	0.03383
2975.26907	0.03365
2973.98330	0.03340
2972.69753	0.03323
2971.41176	0.03327
2970.12599	0.03348
2968.84022	0.03370
2967.55445	0.03383
2966.26868	0.03392
2964.98291	0.03407
2963.69715	0.03424
2962.41138	0.03434
2961.12561	0.03440
2959.83984	0.03454
2958.55407	0.03477
2957.26830	0.03495
2955.98253	0.03505
2954.69676	0.03515
2953.41100	0.03528
2952.12523	0.03529
2950.83946	0.03504
2949.55369	0.03466
2948.26792	0.03444
2946.98215	0.03457
2945.69638	0.03491
2944.41061	0.03524
2943.12484	0.03539
2941.83908	0.03529
2940.55331	0.03494
2939.26754	0.03444
2937.98177	0.03403
2936.69600	0.03383
2935.41023	0.03368
2934.12446	0.03330
2932.83869	0.03263
2931.55293	0.03179
2930.26716	0.03091
2928.98139	0.03004
2927.69562	0.02924
2926.40985	0.02857
2925.12408	0.02795
2923.83831	0.02722
2922.55254	0.02625
2921.26677	0.02506
2919.98101	0.02391
2918.69524	0.02310
2917.40947	0.02293
2916.12370	0.02349
2914.83793	0.02469
2913.55216	0.02623
2912.26639	0.02781
2910.98062	0.02922
2909.69486	0.03035
2908.40909	0.03115
2907.12332	0.03169
2905.83755	0.03205
2904.55178	0.03228
2903.26601	0.03239
2901.98024	0.03246
2900.69447	0.03262
2899.40870	0.03292
2898.12294	0.03327
2896.83717	0.03356
2895.55140	0.03373
2894.26563	0.03380
2892.97986	0.03380
2891.69409	0.03378
2890.40832	0.03377
2889.12255	0.03376
2887.83678	0.03372
2886.55102	0.03366
2885.26525	0.03362
2883.97948	0.03368
2882.69371	0.03385
2881.40794	0.03404
2880.12217	0.03414
2878.83640	0.03418
2877.55063	0.03425
2876.26487	0.03434
2874.97910	0.03437
2873.69333	0.03429
2872.40756	0.03418
2871.12179	0.03406
2869.83602	0.03387
2868.55025	0.03358
2867.26448	0.03333
2865.97871	0.03320
2864.69295	0.03311
2863.40718	0.03288
2862.12141	0.03250
2860.83564	0.03211
2859.54987	0.03173
2858.26410	0.03114
2856.97833	0.03012
2855.69256	0.02871
2854.40680	0.02721
2853.12103	0.02592
2851.83526	0.02495
2850.54949	0.02440
2849.26372	0.02440
2847.97795	0.02503
2846.69218	0.02621
2845.40641	0.02766
2844.12064	0.02905
2842.83488	0.03016
2841.54911	0.03086
2840.26334	0.03118
2838.97757	0.03123
2837.69180	0.03121
2836.40603	0.03122
2835.12026	0.03122
2833.83449	0.03116
2832.54873	0.03101
2831.26296	0.03083
2829.97719	0.03071
2828.69142	0.03072
2827.40565	0.03084
2826.11988	0.03094
2824.83411	0.03093
2823.54834	0.03077
2822.26257	0.03051
2820.97681	0.03026
2819.69104	0.03008
2818.40527	0.03000
2817.11950	0.02998
2815.83373	0.02998
2814.54796	0.02998
2813.26219	0.03001
2811.97642	0.03010
2810.69066	0.03023
2809.40489	0.03030
2808.11912	0.03030
2806.83335	0.03032
2805.54758	0.03047
2804.26181	0.03069
2802.97604	0.03073
2801.69027	0.03047
2800.40450	0.03003
2799.11874	0.02961
2797.83297	0.02928
2796.54720	0.02904
2795.26143	0.02896
2793.97566	0.02910
2792.68989	0.02939
2791.40412	0.02961
2790.11835	0.02963
2788.83259	0.02945
2787.54682	0.02916
2786.26105	0.02886
2784.97528	0.02855
2783.68951	0.02826
2782.40374	0.02807
2781.11797	0.02806
2779.83220	0.02824
2778.54643	0.02851
2777.26067	0.02881
2775.97490	0.02906
2774.68913	0.02919
2773.40336	0.02917
2772.11759	0.02902
2770.83182	0.02881
2769.54605	0.02862
2768.26028	0.02846
2766.97452	0.02841
2765.68875	0.02854
2764.40298	0.02879
2763.11721	0.02896
2761.83144	0.02884
2760.54567	0.02847
2759.25990	0.02808
2757.97413	0.02786
2756.68836	0.02787
2755.40260	0.02809
2754.11683	0.02842
2752.83106	0.02870
2751.54529	0.02873
2750.25952	0.02853
2748.97375	0.02831
2747.68798	0.02827
2746.40221	0.02838
2745.11645	0.02850
2743.83068	0.02850
2742.54491	0.02840
2741.25914	0.02823
2739.97337	0.02797
2738.68760	0.02769
2737.40183	0.02750
2736.11606	0.02751
2734.83029	0.02767
2733.54453	0.02788
2732.25876	0.02809
2730.97299	0.02817
2729.68722	0.02804
2728.40145	0.02771
2727.11568	0.02738
2725.82991	0.02726
2724.54414	0.02731
2723.25838	0.02736
2721.97261	0.02730
2720.68684	0.02718
2719.40107	0.02708
2718.11530	0.02698
2716.82953	0.02682
2715.54376	0.02663
2714.25799	0.02654
2712.97222	0.02659
2711.68646	0.02672
2710.40069	0.02685
2709.11492	0.02697
2707.82915	0.02707
2706.54338	0.02710
2705.25761	0.02703
2703.97184	0.02689
2702.68607	0.02673
2701.40031	0.02652
2700.11454	0.02627
2698.82877	0.02604
2697.54300	0.02595
2696.25723	0.02601
2694.97146	0.02612
2693.68569	0.02615
2692.39992	0.02614
2691.11415	0.02621
2689.82839	0.02639
2688.54262	0.02660
2687.25685	0.02666
2685.97108	0.02650
2684.68531	0.02621
2683.39954	0.02589
2682.11377	0.02565
2680.82800	0.02552
2679.54224	0.02555
2678.25647	0.02569
2676.97070	0.02589
2675.68493	0.02611
2674.39916	0.02630
2673.11339	0.02640
2671.82762	0.02635
2670.54185	0.02614
2669.25608	0.02592
2667.97032	0.02585
2666.68455	0.02600
2665.39878	0.02626
2664.11301	0.02644
2662.82724	0.02644
2661.54147	0.02629
2660.25570	0.02611
2658.96993	0.02598
2657.68417	0.02589
2656.39840	0.02583
2655.11263	0.02582
2653.82686	0.02584
2652.54109	0.02576
2651.25532	0.02552
2649.96955	0.02522
2648.68378	0.02500
2647.39801	0.02493
2646.11225	0.02491
2644.82648	0.02491
2643.54071	0.02497
2642.25494	0.02510
2640.96917	0.02521
2639.68340	0.02517
2638.39763	0.02496
2637.11186	0.02468
2635.82609	0.02442
2634.54033	0.02419
2633.25456	0.02396
2631.96879	0.02373
2630.68302	0.02350
2629.39725	0.02323
2628.11148	0.02293
2626.82571	0.02265
2625.53994	0.02252
2624.25418	0.02263
2622.96841	0.02295
2621.68264	0.02330
2620.39687	0.02346
2619.11110	0.02331
2617.82533	0.02293
2616.53956	0.02258
2615.25379	0.02244
2613.96802	0.02249
2612.68226	0.02256
2611.39649	0.02251
2610.11072	0.02234
2608.82495	0.02216
2607.53918	0.02209
2606.25341	0.02223
2604.96764	0.02251
2603.68187	0.02277
2602.39611	0.02286
2601.11034	0.02274
2599.82457	0.02251
2598.53880	0.02226
2597.25303	0.02207
2595.96726	0.02195
2594.68149	0.02184
2593.39572	0.02169
2592.10995	0.02154
2590.82419	0.02148
2589.53842	0.02149
2588.25265	0.02147
2586.96688	0.02136
2585.68111	0.02130
2584.39534	0.02144
2583.10957	0.02172
2581.82380	0.02186
2580.53804	0.02171
2579.25227	0.02137
2577.96650	0.02112
2576.68073	0.02113
2575.39496	0.02132
2574.10919	0.02146
2572.82342	0.02144
2571.53765	0.02128
2570.25188	0.02100
2568.96612	0.02063
2567.68035	0.02027
2566.39458	0.02010
2565.10881	0.02019
2563.82304	0.02041
2562.53727	0.02060
2561.25150	0.02075
2559.96573	0.02094
2558.67997	0.02118
2557.39420	0.02139
2556.10843	0.02152
2554.82266	0.02157
2553.53689	0.02156
2552.25112	0.02142
2550.96535	0.02108
2549.67958	0.02055
2548.39381	0.01998
2547.10805	0.01961
2545.82228	0.01954
2544.53651	0.01968
2543.25074	0.01982
2541.96497	0.01986
2540.67920	0.01990
2539.39343	0.02006
2538.10766	0.02023
2536.82190	0.02019
2535.53613	0.01988
2534.25036	0.01952
2532.96459	0.01934
2531.67882	0.01936
2530.39305	0.01951
2529.10728	0.01978
2527.82151	0.02024
2526.53574	0.02081
2525.24998	0.02120
2523.96421	0.02117
2522.67844	0.02076
2521.39267	0.02025
2520.10690	0.01992
2518.82113	0.01985
2517.53536	0.01994
2516.24959	0.02008
2514.96383	0.02012
2513.67806	0.02002
2512.39229	0.01982
2511.10652	0.01967
2509.82075	0.01968
2508.53498	0.01984
2507.24921	0.02001
2505.96344	0.01999
2504.67767	0.01969
2503.39191	0.01923
2502.10614	0.01888
2500.82037	0.01887
2499.53460	0.01916
2498.24883	0.01948
2496.96306	0.01960
2495.67729	0.01958
2494.39152	0.01962
2493.10576	0.01985
2491.81999	0.02013
2490.53422	0.02026
2489.24845	0.02012
2487.96268	0.01975
2486.67691	0.01932
2485.39114	0.01897
2484.10537	0.01869
2482.81960	0.01843
2481.53384	0.01824
2480.24807	0.01816
2478.96230	0.01821
2477.67653	0.01833
2476.39076	0.01848
2475.10499	0.01862
2473.81922	0.01865
2472.53345	0.01858
2471.24769	0.01848
2469.96192	0.01841
2468.67615	0.01835
2467.39038	0.01830
2466.10461	0.01829
2464.81884	0.01832
2463.53307	0.01843
2462.24730	0.01865
2460.96153	0.01892
2459.67577	0.01909
2458.39000	0.01906
2457.10423	0.01902
2455.81846	0.01919
2454.53269	0.01950
2453.24692	0.01959
2451.96115	0.01926
2450.67538	0.01875
2449.38962	0.01844
2448.10385	0.01838
2446.81808	0.01826
2445.53231	0.01796
2444.24654	0.01766
2442.96077	0.01762
2441.67500	0.01783
2440.38923	0.01808
2439.10346	0.01820
2437.81770	0.01818
2436.53193	0.01813
2435.24616	0.01816
2433.96039	0.01831
2432.67462	0.01850
2431.38885	0.01869
2430.10308	0.01888
2428.81731	0.01904
2427.53155	0.01911
2426.24578	0.01904
2424.96001	0.01887
2423.67424	0.01874
2422.38847	0.01877
2421.10270	0.01896
2419.81693	0.01912
2418.53116	0.01910
2417.24539	0.01885
2415.95963	0.01852
2414.67386	0.01824
2413.38809	0.01803
2412.10232	0.01786
2410.81655	0.01769
2409.53078	0.01756
2408.24501	0.01748
2406.95924	0.01745
2405.67347	0.01747
2404.38771	0.01759
2403.10194	0.01785
2401.81617	0.01821
2400.53040	0.01852
2399.24463	0.01875
2397.95886	0.01894
2396.67309	0.01905
2395.38732	0.01899
2394.10156	0.01879
2392.81579	0.01860
2391.53002	0.01857
2390.24425	0.01873
2388.95848	0.01894
2387.67271	0.01902
2386.38694	0.01888
2385.10117	0.01857
2383.81540	0.01824
2382.52964	0.01804
2381.24387	0.01806
2379.95810	0.01828
2378.67233	0.01857
2377.38656	0.01883
2376.10079	0.01896
2374.81502	0.01903
2373.52925	0.01914
2372.24349	0.01939
2370.95772	0.01979
2369.67195	0.02025
2368.38618	0.02061
2367.10041	0.02076
2365.81464	0.02070
2364.52887	0.02052
2363.24310	0.02042
2361.95733	0.02056
2360.67157	0.02087
2359.38580	0.02113
2358.10003	0.02113
2356.81426	0.02088
2355.52849	0.02056
2354.24272	0.02028
2352.95695	0.02004
2351.67118	0.01984
2350.38542	0.01971
2349.09965	0.01971
2347.81388	0.01980
2346.52811	0.01988
2345.24234	0.01990
2343.95657	0.01985
2342.67080	0.01983
2341.38503	0.01991
2340.09926	0.02017
2338.81350	0.02057
2337.52773	0.02097
2336.24196	0.02118
2334.95619	0.02111
2333.67042	0.02081
2332.38465	0.02042
2331.09888	0.02005
2329.81311	0.01984
2328.52735	0.01996
2327.24158	0.02047
2325.95581	0.02115
2324.67004	0.02165
2323.38427	0.02171
2322.09850	0.02133
2320.81273	0.02072
2319.52696	0.02013
2318.24119	0.01969
2316.95543	0.01942
2315.66966	0.01920
2314.38389	0.01888
2313.09812	0.01840
2311.81235	0.01792
2310.52658	0.01763
2309.24081	0.01765
2307.95504	0.01783
2306.66928	0.01794
2305.38351	0.01785
2304.09774	0.01764
2302.81197	0.01746
2301.52620	0.01737
2300.24043	0.01730
2298.95466	0.01721
2297.66889	0.01715
2296.38312	0.01725
2295.09736	0.01751
2293.81159	0.01781
2292.52582	0.01796
2291.24005	0.01788
2289.95428	0.01760
2288.66851	0.01720
2287.38274	0.01685
2286.09697	0.01671
2284.81121	0.01690
2283.52544	0.01734
2282.23967	0.01771
2280.95390	0.01770
2279.66813	0.01725
2278.38236	0.01656
2277.09659	0.01582
2275.81082	0.01515
2274.52505	0.01462
2273.23929	0.01432
2271.95352	0.01427
2270.66775	0.01441
2269.38198	0.01460
2268.09621	0.01468
2266.81044	0.01457
2265.52467	0.01436
2264.23890	0.01430
2262.95314	0.01464
2261.66737	0.01532
2260.38160	0.01600
2259.09583	0.01627
2257.81006	0.01598
2256.52429	0.01532
2255.23852	0.01459
2253.95275	0.01407
2252.66698	0.01392
2251.38122	0.01415
2250.09545	0.01451
2248.80968	0.01458
2247.52391	0.01409
2246.23814	0.01310
2244.95237	0.01217
2243.66660	0.01184
2242.38083	0.01214
2241.09507	0.01262
2239.80930	0.01275
2238.52353	0.01244
2237.23776	0.01210
2235.95199	0.01215
2234.66622	0.01258
2233.38045	0.01291
2232.09468	0.01274
2230.80891	0.01198
2229.52315	0.01090
2228.23738	0.00979
2226.95161	0.00893
2225.66584	0.00848
2224.38007	0.00846
2223.09430	0.00882
2221.80853	0.00938
2220.52276	0.00992
2219.23700	0.01016
2217.95123	0.01000
2216.66546	0.00975
2215.37969	0.00985
2214.09392	0.01042
2212.80815	0.01117
2211.52238	0.01168
2210.23661	0.01192
2208.95084	0.01209
2207.66508	0.01221
2206.37931	0.01202
2205.09354	0.01142
2203.80777	0.01081
2202.52200	0.01069
2201.23623	0.01101
2199.95046	0.01124
2198.66469	0.01100
2197.37893	0.01040
2196.09316	0.00975
2194.80739	0.00918
2193.52162	0.00878
2192.23585	0.00884
2190.95008	0.00955
2189.66431	0.01063
2188.37854	0.01144
2187.09277	0.01159
2185.80701	0.01121
2184.52124	0.01068
2183.23547	0.01011
2181.94970	0.00950
2180.66393	0.00897
2179.37816	0.00888
2178.09239	0.00939
2176.80662	0.01031
2175.52085	0.01116
2174.23509	0.01150
2172.94932	0.01128
2171.66355	0.01080
2170.37778	0.01034
2169.09201	0.00977
2167.80624	0.00879
2166.52047	0.00748
2165.23470	0.00631
2163.94894	0.00556
2162.66317	0.00496
2161.37740	0.00410
2160.09163	0.00302
2158.80586	0.00218
2157.52009	0.00195
2156.23432	0.00229
2154.94855	0.00286
2153.66278	0.00333
2152.37702	0.00367
2151.09125	0.00418
2149.80548	0.00518
2148.51971	0.00665
2147.23394	0.00819
2145.94817	0.00931
2144.66240	0.00984
2143.37663	0.00987
2142.09087	0.00954
2140.80510	0.00905
2139.51933	0.00863
2138.23356	0.00839
2136.94779	0.00818
2135.66202	0.00782
2134.37625	0.00744
2133.09048	0.00738
2131.80471	0.00777
2130.51895	0.00838
2129.23318	0.00890
2127.94741	0.00919
2126.66164	0.00932
2125.37587	0.00937
2124.09010	0.00941
2122.80433	0.00949
2121.51856	0.00970
2120.23280	0.00999
2118.94703	0.01023
2117.66126	0.01027
2116.37549	0.01016
2115.08972	0.01009
2113.80395	0.01018
2112.51818	0.01033
2111.23241	0.01036
2109.94664	0.01021
2108.66088	0.00998
2107.37511	0.00978
2106.08934	0.00962
2104.80357	0.00960
2103.51780	0.00978
2102.23203	0.01000
2100.94626	0.00992
2099.66049	0.00986
2098.37473	0.00926
2097.08896	0.00860
2095.80319	0.00841
2094.51742	0.00875
2093.23165	0.00939
2091.94588	0.00999
2090.66011	0.01034
2089.37434	0.01037
2088.08857	0.01022
2086.80281	0.00999
2085.51704	0.00967
2084.23127	0.00923
2082.94550	0.00872
2081.65973	0.00835
2080.37396	0.00834
2079.08819	0.00872
2077.80242	0.00921
2076.51666	0.00942
2075.23089	0.00916
2073.94512	0.00862
2072.65935	0.00815
2071.37358	0.00797
2070.08781	0.00802
2068.80204	0.00815
2067.51627	0.00824
2066.23050	0.00832
2064.94474	0.00844
2063.65897	0.00858
2062.37320	0.00868
2061.08743	0.00870
2059.80166	0.00865
2058.51589	0.00844
2057.23012	0.00796
2055.94435	0.00723
2054.65859	0.00648
2053.37282	0.00595
2052.08705	0.00571
2050.80128	0.00558
2049.51551	0.00533
2048.22974	0.00494
2046.94397	0.00464
2045.65820	0.00472
2044.37243	0.00519
2043.08667	0.00570
2041.80090	0.00592
2040.51513	0.00574
2039.22936	0.00531
2037.94359	0.00485
2036.65782	0.00453
2035.37205	0.00444
2034.08628	0.00451
2032.80052	0.00448
2031.51475	0.00414
2030.22898	0.00360
2028.94321	0.00329
2027.65744	0.00364
2026.37167	0.00466
2025.08590	0.00586
2023.80013	0.00660
2022.51436	0.00653
2021.22860	0.00583
2019.94283	0.00502
2018.65706	0.00444
2017.37129	0.00404
2016.08552	0.00368
2014.79975	0.00351
2013.51398	0.00389
2012.22821	0.00501
2010.94245	0.00653
2009.65668	0.00776
2008.37091	0.00813
2007.08514	0.00766
2005.79937	0.00693
2004.51360	0.00654
2003.22783	0.00655
2001.94206	0.00658
2000.65629	0.00636
1999.37053	0.00601
1998.08476	0.00578
1996.79899	0.00577
1995.51322	0.00602
1994.22745	0.00661
1992.94168	0.00754
1991.65591	0.00854
1990.37014	0.00917
1989.08438	0.00922
1987.79861	0.00875
1986.51284	0.00806
1985.22707	0.00750
1983.94130	0.00739
1982.65553	0.00788
1981.36976	0.00877
1980.08399	0.00959
1978.79822	0.01003
1977.51246	0.01010
1976.22669	0.01007
1974.94092	0.01003
1973.65515	0.00984
1972.36938	0.00941
1971.08361	0.00888
1969.79784	0.00856
1968.51207	0.00866
1967.22631	0.00903
1965.94054	0.00930
1964.65477	0.00916
1963.36900	0.00858
1962.08323	0.00783
1960.79746	0.00720
1959.51169	0.00694
1958.22592	0.00708
1956.94015	0.00750
1955.65439	0.00800
1954.36862	0.00838
1953.08285	0.00856
1951.79708	0.00850
1950.51131	0.00827
1949.22554	0.00805
1947.93977	0.00799
1946.65400	0.00803
1945.36823	0.00804
1944.08247	0.00795
1942.79670	0.00789
1941.51093	0.00797
1940.22516	0.00824
1938.93939	0.00873
1937.65362	0.00946
1936.36785	0.01028
1935.08208	0.01091
1933.79632	0.01112
1932.51055	0.01101
1931.22478	0.01087
1929.93901	0.01089
1928.65324	0.01099
1927.36747	0.01098
1926.08170	0.01073
1924.79593	0.01036
1923.51016	0.01014
1922.22440	0.01026
1920.93863	0.01061
1919.65286	0.01085
1918.36709	0.01077
1917.08132	0.01047
1915.79555	0.01024
1914.50978	0.01019
1913.22401	0.01027
1911.93825	0.01040
1910.65248	0.01061
1909.36671	0.01093
1908.08094	0.01125
1906.79517	0.01138
1905.50940	0.01123
1904.22363	0.01087
1902.93786	0.01050
1901.65209	0.01027
1900.36633	0.01027
1899.08056	0.01047
1897.79479	0.01075
1896.50902	0.01100
1895.22325	0.01115
1893.93748	0.01118
1892.65171	0.01106
1891.36594	0.01081
1890.08018	0.01058
1888.79441	0.01050
1887.50864	0.01056
1886.22287	0.01058
1884.93710	0.01038
1883.65133	0.01000
1882.36556	0.00970
1881.07979	0.00967
1879.79402	0.00987
1878.50826	0.01011
1877.22249	0.01022
1875.93672	0.01017
1874.65095	0.01006
1873.36518	0.01000
1872.07941	0.01006
1870.79364	0.01026
1869.50787	0.01050
1868.22211	0.01064
1866.93634	0.01061
1865.65057	0.01052
1864.36480	0.01055
1863.07903	0.01074
1861.79326	0.01095
1860.50749	0.01101
1859.22172	0.01088
1857.93595	0.01063
1856.65019	0.01038
1855.36442	0.01025
1854.07865	0.01030
1852.79288	0.01053
1851.50711	0.01085
1850.22134	0.01113
1848.93557	0.01125
1847.64980	0.01124
1846.36404	0.01122
1845.07827	0.01127
1843.79250	0.01137
1842.50673	0.01140
1841.22096	0.01127
1839.93519	0.01101
1838.64942	0.01071
1837.36365	0.01049
1836.07788	0.01041
1834.79212	0.01049
1833.50635	0.01071
1832.22058	0.01097
1830.93481	0.01111
1829.64904	0.01105
1828.36327	0.01087
1827.07750	0.01075
1825.79173	0.01085
1824.50597	0.01115
1823.22020	0.01148
1821.93443	0.01168
1820.64866	0.01170
1819.36289	0.01157
1818.07712	0.01137
1816.79135	0.01116
1815.50558	0.01095
1814.21981	0.01079
1812.93405	0.01073
1811.64828	0.01080
1810.36251	0.01096
1809.07674	0.01107
1807.79097	0.01106
1806.50520	0.01100
1805.21943	0.01096
1803.93366	0.01097
1802.64790	0.01097
1801.36213	0.01091
1800.07636	0.01078
1798.79059	0.01068
1797.50482	0.01069
1796.21905	0.01086
1794.93328	0.01109
1793.64751	0.01131
1792.36174	0.01142
1791.07598	0.01142
1789.79021	0.01132
1788.50444	0.01119
1787.21867	0.01110
1785.93290	0.01111
1784.64713	0.01118
1783.36136	0.01127
1782.07559	0.01133
1780.78983	0.01137
1779.50406	0.01140
1778.21829	0.01139
1776.93252	0.01139
1775.64675	0.01140
1774.36098	0.01144
1773.07521	0.01144
1771.78944	0.01135
1770.50367	0.01122
1769.21791	0.01112
1767.93214	0.01107
1766.64637	0.01104
1765.36060	0.01097
1764.07483	0.01088
1762.78906	0.01079
1761.50329	0.01075
1760.21752	0.01073
1758.93176	0.01070
1757.64599	0.01063
1756.36022	0.01055
1755.07445	0.01045
1753.78868	0.01031
1752.50291	0.01009
1751.21714	0.00977
1749.93137	0.00941
1748.64560	0.00908
1747.35984	0.00882
1746.07407	0.00857
1744.78830	0.00829
1743.50253	0.00802
1742.21676	0.00783
1740.93099	0.00773
1739.64522	0.00771
1738.35945	0.00777
1737.07369	0.00794
1735.78792	0.00820
1734.50215	0.00846
1733.21638	0.00861
1731.93061	0.00865
1730.64484	0.00865
1729.35907	0.00870
1728.07330	0.00885
1726.78753	0.00905
1725.50177	0.00928
1724.21600	0.00951
1722.93023	0.00974
1721.64446	0.00998
1720.35869	0.01024
1719.07292	0.01053
1717.78715	0.01083
1716.50138	0.01112
1715.21561	0.01141
1713.92985	0.01172
1712.64408	0.01206
1711.35831	0.01242
1710.07254	0.01276
1708.78677	0.01310
1707.50100	0.01346
1706.21523	0.01386
1704.92946	0.01432
1703.64370	0.01486
1702.35793	0.01549
1701.07216	0.01617
1699.78639	0.01684
1698.50062	0.01749
1697.21485	0.01811
1695.92908	0.01869
1694.64331	0.01920
1693.35754	0.01970
1692.07178	0.02025
1690.78601	0.02092
1689.50024	0.02168
1688.21447	0.02250
1686.92870	0.02334
1685.64293	0.02415
1684.35716	0.02486
1683.07139	0.02544
1681.78563	0.02596
1680.49986	0.02649
1679.21409	0.02710
1677.92832	0.02779
1676.64255	0.02849
1675.35678	0.02913
1674.07101	0.02968
1672.78524	0.03021
1671.49947	0.03080
1670.21371	0.03146
1668.92794	0.03214
1667.64217	0.03275
1666.35640	0.03330
1665.07063	0.03381
1663.78486	0.03430
1662.49909	0.03476
1661.21332	0.03519
1659.92756	0.03559
1658.64179	0.03604
1657.35602	0.03658
1656.07025	0.03722
1654.78448	0.03789
1653.49871	0.03841
1652.21294	0.03867
1650.92717	0.03871
1649.64140	0.03874
1648.35564	0.03889
1647.06987	0.03914
1645.78410	0.03933
1644.49833	0.03939
1643.21256	0.03933
1641.92679	0.03922
1640.64102	0.03913
1639.35525	0.03911
1638.06949	0.03910
1636.78372	0.03901
1635.49795	0.03876
1634.21218	0.03836
1632.92641	0.03793
1631.64064	0.03755
1630.35487	0.03721
1629.06910	0.03684
1627.78333	0.03638
1626.49757	0.03585
1625.21180	0.03532
1623.92603	0.03482
1622.64026	0.03434
1621.35449	0.03389
1620.06872	0.03349
1618.78295	0.03315
1617.49718	0.03282
1616.21142	0.03245
1614.92565	0.03204
1613.63988	0.03162
1612.35411	0.03126
1611.06834	0.03098
1609.78257	0.03075
1608.49680	0.03055
1607.21103	0.03035
1605.92526	0.03016
1604.63950	0.02997
1603.35373	0.02980
1602.06796	0.02966
1600.78219	0.02959
1599.49642	0.02961
1598.21065	0.02971
1596.92488	0.02984
1595.63911	0.02995
1594.35335	0.03003
1593.06758	0.03014
1591.78181	0.03029
1590.49604	0.03045
1589.21027	0.03059
1587.92450	0.03073
1586.63873	0.03092
1585.35296	0.03121
1584.06719	0.03158
1582.78143	0.03197
1581.49566	0.03236
1580.20989	0.03277
1578.92412	0.03320
1577.63835	0.03362
1576.35258	0.03397
1575.06681	0.03425
1573.78104	0.03450
1572.49528	0.03483
1571.20951	0.03524
1569.92374	0.03567
1568.63797	0.03603
1567.35220	0.03631
1566.06643	0.03653
1564.78066	0.03678
1563.49489	0.03715
1562.20912	0.03767
1560.92336	0.03827
1559.63759	0.03881
1558.35182	0.03914
1557.06605	0.03925
1555.78028	0.03925
1554.49451	0.03923
1553.20874	0.03922
1551.92297	0.03921
1550.63721	0.03920
1549.35144	0.03920
1548.06567	0.03924
1546.77990	0.03931
1545.49413	0.03935
1544.20836	0.03932
1542.92259	0.03925
1541.63682	0.03919
1540.35105	0.03913
1539.06529	0.03903
1537.77952	0.03887
1536.49375	0.03872
1535.20798	0.03866
1533.92221	0.03868
1532.63644	0.03871
1531.35067	0.03873
1530.06490	0.03876
1528.77914	0.03887
1527.49337	0.03907
1526.20760	0.03930
1524.92183	0.03953
1523.63606	0.03974
1522.35029	0.03997
1521.06452	0.04021
1519.77875	0.04048
1518.49298	0.04077
1517.20722	0.04111
1515.92145	0.04146
1514.63568	0.04181
1513.34991	0.04216
1512.06414	0.04256
1510.77837	0.04306
1509.49260	0.04367
1508.20683	0.04434
1506.92107	0.04497
1505.63530	0.04549
1504.34953	0.04587
1503.06376	0.04617
1501.77799	0.04646
1500.49222	0.04678
1499.20645	0.04710
1497.92068	0.04737
1496.63491	0.04759
1495.34915	0.04777
1494.06338	0.04798
1492.77761	0.04823
1491.49184	0.04854
1490.20607	0.04887
1488.92030	0.04919
1487.63453	0.04951
1486.34876	0.04987
1485.06299	0.05030
1483.77723	0.05084
1482.49146	0.05144
1481.20569	0.05206
1479.91992	0.05267
1478.63415	0.05324
1477.34838	0.05378
1476.06261	0.05432
1474.77684	0.05484
1473.49108	0.05531
1472.20531	0.05568
1470.91954	0.05594
1469.63377	0.05610
1468.34800	0.05624
1467.06223	0.05643
1465.77646	0.05670
1464.49069	0.05704
1463.20492	0.05741
1461.91916	0.05784
1460.63339	0.05836
1459.34762	0.05901
1458.06185	0.05973
1456.77608	0.06040
1455.49031	0.06095
1454.20454	0.06137
1452.91877	0.06173
1451.63301	0.06203
1450.34724	0.06227
1449.06147	0.06244
1447.77570	0.06255
1446.48993	0.06263
1445.20416	0.06270
1443.91839	0.06273
1442.63262	0.06274
1441.34685	0.06272
1440.06109	0.06272
1438.77532	0.06276
1437.48955	0.06281
1436.20378	0.06284
1434.91801	0.06288
1433.63224	0.06300
1432.34647	0.06326
1431.06070	0.06368
1429.77494	0.06425
1428.48917	0.06492
1427.20340	0.06567
1425.91763	0.06649
1424.63186	0.06735
1423.34609	0.06824
1422.06032	0.06910
1420.77455	0.06989
1419.48878	0.07057
1418.20302	0.07115
1416.91725	0.07163
1415.63148	0.07205
1414.34571	0.07241
1413.05994	0.07268
1411.77417	0.07283
1410.48840	0.07283
1409.20263	0.07268
1407.91687	0.07243
1406.63110	0.07206
1405.34533	0.07155
1404.05956	0.07091
1402.77379	0.07016
1401.48802	0.06936
1400.20225	0.06849
1398.91648	0.06752
1397.63071	0.06640
1396.34495	0.06516
1395.05918	0.06386
1393.77341	0.06255
1392.48764	0.06127
1391.20187	0.06002
1389.91610	0.05882
1388.63033	0.05762
1387.34456	0.05640
1386.05880	0.05518
1384.77303	0.05395
1383.48726	0.05273
1382.20149	0.05148
1380.91572	0.05018
1379.62995	0.04888
1378.34418	0.04761
1377.05841	0.04642
1375.77264	0.04526
1374.48688	0.04411
1373.20111	0.04291
1371.91534	0.04168
1370.62957	0.04047
1369.34380	0.03932
1368.05803	0.03827
1366.77226	0.03729
1365.48649	0.03636
1364.20073	0.03547
1362.91496	0.03461
1361.62919	0.03378
1360.34342	0.03301
1359.05765	0.03232
1357.77188	0.03171
1356.48611	0.03116
1355.20034	0.03065
1353.91457	0.03017
1352.62881	0.02973
1351.34304	0.02934
1350.05727	0.02900
1348.77150	0.02870
1347.48573	0.02843
1346.19996	0.02817
1344.91419	0.02793
1343.62842	0.02770
1342.34266	0.02746
1341.05689	0.02716
1339.77112	0.02683
1338.48535	0.02652
1337.19958	0.02628
1335.91381	0.02607
1334.62804	0.02585
1333.34227	0.02558
1332.05650	0.02531
1330.77074	0.02506
1329.48497	0.02482
1328.19920	0.02456
1326.91343	0.02428
1325.62766	0.02399
1324.34189	0.02376
1323.05612	0.02358
1321.77035	0.02344
1320.48459	0.02330
1319.19882	0.02311
1317.91305	0.02291
1316.62728	0.02270
1315.34151	0.02250
1314.05574	0.02230
1312.76997	0.02205
1311.48420	0.02175
1310.19843	0.02146
1308.91267	0.02123
1307.62690	0.02108
1306.34113	0.02098
1305.05536	0.02085
1303.76959	0.02066
1302.48382	0.02042
1301.19805	0.02019
1299.91228	0.01998
1298.62652	0.01979
1297.34075	0.01963
1296.05498	0.01951
1294.76921	0.01942
1293.48344	0.01934
1292.19767	0.01925
1290.91190	0.01916
1289.62613	0.01909
1288.34036	0.01903
1287.05460	0.01899
1285.76883	0.01895
1284.48306	0.01891
1283.19729	0.01887
1281.91152	0.01881
1280.62575	0.01871
1279.33998	0.01859
1278.05421	0.01848
1276.76845	0.01840
1275.48268	0.01835
1274.19691	0.01828
1272.91114	0.01817
1271.62537	0.01802
1270.33960	0.01786
1269.05383	0.01771
1267.76806	0.01763
1266.48229	0.01759
1265.19653	0.01757
1263.91076	0.01752
1262.62499	0.01741
1261.33922	0.01729
1260.05345	0.01723
1258.76768	0.01723
1257.48191	0.01726
1256.19614	0.01729
1254.91037	0.01729
1253.62461	0.01728
1252.33884	0.01729
1251.05307	0.01730
1249.76730	0.01731
1248.48153	0.01731
1247.19576	0.01731
1245.90999	0.01732
1244.62422	0.01731
1243.33846	0.01728
1242.05269	0.01721
1240.76692	0.01712
1239.48115	0.01703
1238.19538	0.01694
1236.90961	0.01684
1235.62384	0.01673
1234.33807	0.01661
1233.05230	0.01652
1231.76654	0.01645
1230.48077	0.01636
1229.19500	0.01622
1227.90923	0.01602
1226.62346	0.01582
1225.33769	0.01565
1224.05192	0.01552
1222.76615	0.01541
1221.48039	0.01530
1220.19462	0.01518
1218.90885	0.01506
1217.62308	0.01490
1216.33731	0.01472
1215.05154	0.01454
1213.76577	0.01439
1212.48000	0.01430
1211.19423	0.01426
1209.90847	0.01422
1208.62270	0.01417
1207.33693	0.01412
1206.05116	0.01408
1204.76539	0.01405
1203.47962	0.01401
1202.19385	0.01395
1200.90808	0.01382
1199.62232	0.01364
1198.33655	0.01355
1197.05078	0.01348
1195.76501	0.01339
1194.47924	0.01331
1193.19347	0.01326
1191.90770	0.01324
1190.62193	0.01317
1189.33616	0.01302
1188.05040	0.01280
1186.76463	0.01257
1185.47886	0.01240
1184.19309	0.01230
1182.90732	0.01220
1181.62155	0.01207
1180.33578	0.01191
1179.05001	0.01176
1177.76425	0.01169
1176.47848	0.01170
1175.19271	0.01176
1173.90694	0.01182
1172.62117	0.01184
1171.33540	0.01183
1170.04963	0.01181
1168.76386	0.01185
1167.47809	0.01197
1166.19233	0.01217
1164.90656	0.01236
1163.62079	0.01249
1162.33502	0.01254
1161.04925	0.01254
1159.76348	0.01254
1158.47771	0.01256
1157.19194	0.01261
1155.90618	0.01269
1154.62041	0.01278
1153.33464	0.01285
1152.04887	0.01290
1150.76310	0.01300
1149.47733	0.01315
1148.19156	0.01335
1146.90579	0.01358
1145.62002	0.01384
1144.33426	0.01416
1143.04849	0.01455
1141.76272	0.01498
1140.47695	0.01548
1139.19118	0.01609
1137.90541	0.01681
1136.61964	0.01759
1135.33387	0.01838
1134.04811	0.01923
1132.76234	0.02018
1131.47657	0.02127
1130.19080	0.02250
1128.90503	0.02387
1127.61926	0.02540
1126.33349	0.02712
1125.04772	0.02900
1123.76195	0.03099
1122.47619	0.03302
1121.19042	0.03509
1119.90465	0.03722
1118.61888	0.03943
1117.33311	0.04171
1116.04734	0.04401
1114.76157	0.04627
1113.47580	0.04845
1112.19004	0.05052
1110.90427	0.05247
1109.61850	0.05434
1108.33273	0.05617
1107.04696	0.05802
1105.76119	0.05988
1104.47542	0.06173
1103.18965	0.06349
1101.90388	0.06509
1100.61812	0.06659
1099.33235	0.06808
1098.04658	0.06961
1096.76081	0.07114
1095.47504	0.07260
1094.18927	0.07395
1092.90350	0.07520
1091.61773	0.07634
1090.33197	0.07736
1089.04620	0.07828
1087.76043	0.07919
1086.47466	0.08022
1085.18889	0.08141
1083.90312	0.08266
1082.61735	0.08389
1081.33158	0.08509
1080.04581	0.08637
1078.76005	0.08779
1077.47428	0.08933
1076.18851	0.09097
1074.90274	0.09269
1073.61697	0.09446
1072.33120	0.09629
1071.04543	0.09813
1069.75966	0.10001
1068.47390	0.10195
1067.18813	0.10397
1065.90236	0.10605
1064.61659	0.10815
1063.33082	0.11019
1062.04505	0.11213
1060.75928	0.11397
1059.47351	0.11580
1058.18774	0.11766
1056.90198	0.11950
1055.61621	0.12128
1054.33044	0.12302
1053.04467	0.12479
1051.75890	0.12662
1050.47313	0.12852
1049.18736	0.13044
1047.90159	0.13238
1046.61583	0.13435
1045.33006	0.13635
1044.04429	0.13834
1042.75852	0.14031
1041.47275	0.14227
1040.18698	0.14420
1038.90121	0.14609
1037.61544	0.14795
1036.32967	0.14982
1035.04391	0.15172
1033.75814	0.15357
1032.47237	0.15530
1031.18660	0.15688
1029.90083	0.15832
1028.61506	0.15961
1027.32929	0.16072
1026.04352	0.16162
1024.75775	0.16233
1023.47199	0.16285
1022.18622	0.16318
1020.90045	0.16330
1019.61468	0.16321
1018.32891	0.16288
1017.04314	0.16234
1015.75737	0.16158
1014.47160	0.16057
1013.18584	0.15925
1011.90007	0.15759
1010.61430	0.15558
1009.32853	0.15327
1008.04276	0.15071
1006.75699	0.14794
1005.47122	0.14498
1004.18545	0.14184
1002.89968	0.13854
1001.61392	0.13509
1000.32815	0.13147
999.04238	0.12770
997.75661	0.12383
996.47084	0.11992
995.18507	0.11602
993.89930	0.11216
992.61353	0.10835
991.32777	0.10462
990.04200	0.10099
988.75623	0.09749
987.47046	0.09412
986.18469	0.09089
984.89892	0.08777
983.61315	0.08478
982.32738	0.08192
981.04161	0.07921
979.75585	0.07667
978.47008	0.07435
977.18431	0.07225
975.89854	0.07037
974.61277	0.06871
973.32700	0.06727
972.04123	0.06609
970.75546	0.06520
969.46970	0.06462
968.18393	0.06437
966.89816	0.06441
965.61239	0.06467
964.32662	0.06505
963.04085	0.06541
961.75508	0.06565
960.46931	0.06567
959.18354	0.06541
957.89778	0.06481
956.61201	0.06386
955.32624	0.06265
954.04047	0.06133
952.75470	0.06000
951.46893	0.05870
950.18316	0.05741
948.89739	0.05611
947.61163	0.05485
946.32586	0.05365
945.04009	0.05251
943.75432	0.05140
942.46855	0.05031
941.18278	0.04921
939.89701	0.04808
938.61124	0.04694
937.32547	0.04587
936.03971	0.04488
934.75394	0.04397
933.46817	0.04310
932.18240	0.04230
930.89663	0.04161
929.61086	0.04101
928.32509	0.04046
927.03932	0.03990
925.75356	0.03934
924.46779	0.03879
923.18202	0.03826
921.89625	0.03775
920.61048	0.03727
919.32471	0.03682
918.03894	0.03643
916.75317	0.03610
915.46740	0.03576
914.18164	0.03535
912.89587	0.03484
911.61010	0.03429
910.32433	0.03382
909.03856	0.03348
907.75279	0.03322
906.46702	0.03299
905.18125	0.03272
903.89549	0.03239
902.60972	0.03201
901.32395	0.03162
900.03818	0.03127
898.75241	0.03096
897.46664	0.03068
896.18087	0.03038
894.89510	0.03008
893.60933	0.02987
892.32357	0.02980
891.03780	0.02984
889.75203	0.02994
888.46626	0.03011
887.18049	0.03046
885.89472	0.03109
884.60895	0.03206
883.32318	0.03336
882.03742	0.03490
880.75165	0.03650
879.46588	0.03792
878.18011	0.03910
876.89434	0.04017
875.60857	0.04134
874.32280	0.04261
873.03703	0.04378
871.75126	0.04456
870.46550	0.04477
869.17973	0.04437
867.89396	0.04344
866.60819	0.04212
865.32242	0.04062
864.03665	0.03906
862.75088	0.03753
861.46511	0.03609
860.17935	0.03481
858.89358	0.03370
857.60781	0.03274
856.32204	0.03192
855.03627	0.03124
853.75050	0.03073
852.46473	0.03033
851.17896	0.03000
849.89319	0.02969
848.60743	0.02938
847.32166	0.02910
846.03589	0.02886
844.75012	0.02869
843.46435	0.02854
842.17858	0.02834
840.89281	0.02805
839.60704	0.02772
838.32128	0.02739
837.03551	0.02713
835.74974	0.02695
834.46397	0.02680
833.17820	0.02665
831.89243	0.02647
830.60666	0.02632
829.32089	0.02627
828.03512	0.02637
826.74936	0.02651
825.46359	0.02657
824.17782	0.02645
822.89205	0.02615
821.60628	0.02577
820.32051	0.02546
819.03474	0.02531
817.74897	0.02531
816.46321	0.02537
815.17744	0.02540
813.89167	0.02538
812.60590	0.02529
811.32013	0.02516
810.03436	0.02504
808.74859	0.02496
807.46282	0.02492
806.17705	0.02489
804.89129	0.02483
803.60552	0.02473
802.31975	0.02465
801.03398	0.02460
799.74821	0.02457
798.46244	0.02457
797.17667	0.02460
795.89090	0.02464
794.60513	0.02463
793.31937	0.02453
792.03360	0.02443
790.74783	0.02442
789.46206	0.02447
788.17629	0.02451
786.89052	0.02452
785.60475	0.02452
784.31898	0.02452
783.03322	0.02448
781.74745	0.02442
780.46168	0.02441
779.17591	0.02446
777.89014	0.02451
776.60437	0.02451
775.31860	0.02443
774.03283	0.02433
772.74706	0.02425
771.46130	0.02423
770.17553	0.02428
768.88976	0.02436
767.60399	0.02444
766.31822	0.02446
765.03245	0.02441
763.74668	0.02433
762.46091	0.02429
761.17515	0.02435
759.88938	0.02450
758.60361	0.02464
757.31784	0.02466
756.03207	0.02458
754.74630	0.02451
753.46053	0.02453
752.17476	0.02461
750.88899	0.02466
749.60323	0.02465
748.31746	0.02462
747.03169	0.02459
745.74592	0.02455
744.46015	0.02444
743.17438	0.02425
741.88861	0.02406
740.60284	0.02395
739.31708	0.02395
738.03131	0.02399
736.74554	0.02397
735.45977	0.02389
734.17400	0.02386
732.88823	0.02395
731.60246	0.02412
730.31669	0.02427
729.03092	0.02434
727.74516	0.02436
726.45939	0.02437
725.17362	0.02438
723.88785	0.02438
722.60208	0.02432
721.31631	0.02421
720.03054	0.02406
718.74477	0.02389
717.45901	0.02375
716.17324	0.02369
714.88747	0.02373
713.60170	0.02383
712.31593	0.02394
711.03016	0.02399
709.74439	0.02398
708.45862	0.02392
707.17285	0.02387
705.88709	0.02385
704.60132	0.02387
703.31555	0.02392
702.02978	0.02399
700.74401	0.02403
699.45824	0.02403
698.17247	0.02400
696.88670	0.02398
695.60094	0.02399
694.31517	0.02401
693.02940	0.02403
691.74363	0.02405
690.45786	0.02407
689.17209	0.02410
687.88632	0.02416
686.60055	0.02422
685.31478	0.02421
684.02902	0.02411
682.74325	0.02396
681.45748	0.02380
680.17171	0.02370
678.88594	0.02363
677.60017	0.02357
676.31440	0.02354
675.02863	0.02355
673.74287	0.02360
672.45710	0.02369
671.17133	0.02382
669.88556	0.02398
668.59979	0.02415
667.31402	0.02425
666.02825	0.02423
664.74248	0.02412
663.45671	0.02397
662.17095	0.02382
660.88518	0.02366
659.59941	0.02346
658.31364	0.02320
657.02787	0.02292
655.74210	0.02269
654.45633	0.02255
653.17056	0.02249
651.88480	0.02250
650.59903	0.02255
649.31326	0.02259
648.02749	0.02257
646.74172	0.02249
645.45595	0.02235
644.17018	0.02221
642.88441	0.02212
641.59864	0.02208
640.31288	0.02208
639.02711	0.02211
637.74134	0.02216
636.45557	0.02221
635.16980	0.02225
633.88403	0.02229
632.59826	0.02235
631.31249	0.02258
630.02673	0.02330
628.74096	0.02426
627.45519	0.02403
626.16942	0.02502
624.88365	0.02713
623.59788	0.02985
622.31211	0.03282
621.02634	0.03515
619.74057	0.03633
618.45481	0.03720
617.16904	0.03902
615.88327	0.04190
614.59750	0.04460
613.31173	0.04598
612.02596	0.04654
610.74019	0.04816
609.45442	0.05200
608.16866	0.05698
606.88289	0.06136
605.59712	0.06464
604.31135	0.06722
603.02558	0.06897
601.73981	0.06931
600.45404	0.06804
599.16827	0.06579
597.88250	0.06342
596.59674	0.06144
595.31097	0.05988
594.02520	0.05853
592.73943	0.05727
591.45366	0.05620
590.16789	0.05544
588.88212	0.05509
587.59635	0.05517
586.31059	0.05569
585.02482	0.05663
583.73905	0.05791
582.45328	0.05940
581.16751	0.06103
579.88174	0.06269
578.59597	0.06432
577.31020	0.06588
576.02443	0.06736
574.73867	0.06879
573.45290	0.07023
572.16713	0.07180
570.88136	0.07362
569.59559	0.07572
568.30982	0.07805
567.02405	0.08049
565.73828	0.08284
564.45251	0.08475
563.16675	0.08585
561.88098	0.08600
560.59521	0.08529
559.30944	0.08384
558.02367	0.08168
556.73790	0.07882
555.45213	0.07538
554.16636	0.07165
552.88060	0.06793
551.59483	0.06439
550.30906	0.06106
549.02329	0.05795
547.73752	0.05513
546.45175	0.05270
545.16598	0.05071
543.88021	0.04908
542.59444	0.04766
541.30868	0.04633
540.02291	0.04502
538.73714	0.04374
537.45137	0.04251
536.16560	0.04135
534.87983	0.04030
533.59406	0.03938
532.30829	0.03858
531.02253	0.03785
529.73676	0.03712
528.45099	0.03633
527.16522	0.03549
525.87945	0.03468
524.59368	0.03401
523.30791	0.03352
522.02214	0.03312
520.73637	0.03268
519.45061	0.03213
518.16484	0.03151
516.87907	0.03090
515.59330	0.03035
514.30753	0.02984
513.02176	0.02937
511.73599	0.02894
510.45022	0.02855
509.16446	0.02817
507.87869	0.02780
506.59292	0.02746
505.30715	0.02716
504.02138	0.02691
502.73561	0.02666
501.44984	0.02638
500.16407	0.02604
498.87830	0.02567
497.59254	0.02529
496.30677	0.02497
495.02100	0.02475
493.73523	0.02460
492.44946	0.02446
491.16369	0.02429
489.87792	0.02408
488.59215	0.02388
487.30639	0.02373
486.02062	0.02366
484.73485	0.02360
483.44908	0.02354
482.16331	0.02350
480.87754	0.02355
479.59177	0.02371
478.30600	0.02396
477.02023	0.02423
475.73447	0.02448
474.44870	0.02471
473.16293	0.02488
471.87716	0.02497
470.59139	0.02495
469.30562	0.02479
468.01985	0.02450
466.73408	0.02411
465.44832	0.02363
464.16255	0.02315
462.87678	0.02275
461.59101	0.02247
460.30524	0.02229
459.01947	0.02215
457.73370	0.02199
456.44793	0.02182
455.16216	0.02160
453.87640	0.02134
452.59063	0.02105
451.30486	0.02078
450.01909	0.02055
448.73332	0.02037
447.44755	0.02023
446.16178	0.02011
444.87601	0.01997
443.59025	0.01979
442.30448	0.01959
441.01871	0.01943
439.73294	0.01933
438.44717	0.01928
437.16140	0.01922
435.87563	0.01913
434.58986	0.01901
433.30409	0.01886
432.01833	0.01869
430.73256	0.01850
429.44679	0.01830
428.16102	0.01811
426.87525	0.01795
425.58948	0.01781
424.30371	0.01767
423.01794	0.01752
421.73218	0.01736
420.44641	0.01723
419.16064	0.01712
417.87487	0.01702
416.58910	0.01691
415.30333	0.01680
414.01756	0.01669
412.73179	0.01655
411.44602	0.01634
410.16026	0.01611
408.87449	0.01598
407.58872	0.01602
406.30295	0.01614
405.01718	0.01622
403.73141	0.01617
402.44564	0.01603
401.15987	0.01594
399.87411	0.01594
