3997.45528	0.08147
3996.16951	0.07928
3994.88374	0.07806
3993.59798	0.07835
3992.31221	0.07965
3991.02644	0.08064
3989.74067	0.08050
3988.45490	0.07949
3987.16913	0.07853
3985.88336	0.07833
3984.59759	0.07900
3983.31183	0.08007
3982.02606	0.08086
3980.74029	0.08090
3979.45452	0.08019
3978.16875	0.07920
3976.88298	0.07842
3975.59721	0.07803
3974.31144	0.07797
3973.02567	0.07815
3971.73991	0.07854
3970.45414	0.07899
3969.16837	0.07924
3967.88260	0.07925
3966.59683	0.07930
3965.31106	0.07964
3964.02529	0.08018
3962.73952	0.08050
3961.45376	0.08032
3960.16799	0.07970
3958.88222	0.07892
3957.59645	0.07826
3956.31068	0.07788
3955.02491	0.07788
3953.73914	0.07829
3952.45337	0.07910
3951.16760	0.08010
3949.88184	0.08088
3948.59607	0.08095
3947.31030	0.08022
3946.02453	0.07932
3944.73876	0.07907
3943.45299	0.07961
3942.16722	0.08030
3940.88145	0.08050
3939.59569	0.08015
3938.30992	0.07950
3937.02415	0.07878
3935.73838	0.07814
3934.45261	0.07766
3933.16684	0.07734
3931.88107	0.07722
3930.59530	0.07751
3929.30953	0.07853
3928.02377	0.08019
3926.73800	0.08191
3925.45223	0.08289
3924.16646	0.08270
3922.88069	0.08164
3921.59492	0.08040
3920.30915	0.07945
3919.02338	0.07891
3917.73762	0.07867
3916.45185	0.07857
3915.16608	0.07841
3913.88031	0.07805
3912.59454	0.07748
3911.30877	0.07694
3910.02300	0.07680
3908.73723	0.07718
3907.45146	0.07781
3906.16570	0.07823
3904.87993	0.07805
3903.59416	0.07737
3902.30839	0.07681
3901.02262	0.07695
3899.73685	0.07764
3898.45108	0.07819
3897.16531	0.07823
3895.87955	0.07799
3894.59378	0.07781
3893.30801	0.07760
3892.02224	0.07698
3890.73647	0.07591
3889.45070	0.07507
3888.16493	0.07536
3886.87916	0.07675
3885.59339	0.07836
3884.30763	0.07948
3883.02186	0.08006
3881.73609	0.08016
3880.45032	0.07952
3879.16455	0.07815
3877.87878	0.07655
3876.59301	0.07522
3875.30724	0.07429
3874.02148	0.07383
3872.73571	0.07404
3871.44994	0.07484
3870.16417	0.07557
3868.87840	0.07588
3867.59263	0.07631
3866.30686	0.07718
3865.02109	0.07788
3863.73532	0.07771
3862.44956	0.07683
3861.16379	0.07593
3859.87802	0.07540
3858.59225	0.07507
3857.30648	0.07457
3856.02071	0.07385
3854.73494	0.07309
3853.44917	0.07249
3852.16341	0.07227
3850.87764	0.07260
3849.59187	0.07323
3848.30610	0.07374
3847.02033	0.07396
3845.73456	0.07408
3844.44879	0.07425
3843.16302	0.07436
3841.87725	0.07423
3840.59149	0.07395
3839.30572	0.07372
3838.01995	0.07366
3836.73418	0.07387
3835.44841	0.07453
3834.16264	0.07550
3832.87687	0.07605
3831.59110	0.07553
3830.30534	0.07424
3829.01957	0.07314
3827.73380	0.07288
3826.44803	0.07314
3825.16226	0.07333
3823.87649	0.07338
3822.59072	0.07346
3821.30495	0.07341
3820.01918	0.07313
3818.73342	0.07314
3817.44765	0.07388
3816.16188	0.07491
3814.87611	0.07547
3813.59034	0.07540
3812.30457	0.07493
3811.01880	0.07436
3809.73303	0.07419
3808.44726	0.07479
3807.16150	0.07573
3805.87573	0.07628
3804.58996	0.07638
3803.30419	0.07635
3802.01842	0.07600
3800.73265	0.07500
3799.44688	0.07374
3798.16111	0.07299
3796.87535	0.07279
3795.58958	0.07254
3794.30381	0.07196
3793.01804	0.07126
3791.73227	0.07069
3790.44650	0.07017
3789.16073	0.06953
3787.87496	0.06884
3786.58919	0.06851
3785.30343	0.06886
3784.01766	0.06973
3782.73189	0.07060
3781.44612	0.07107
3780.16035	0.07110
3778.87458	0.07087
3777.58881	0.07069
3776.30304	0.07079
3775.01728	0.07124
3773.73151	0.07200
3772.44574	0.07280
3771.15997	0.07320
3769.87420	0.07287
3768.58843	0.07209
3767.30266	0.07157
3766.01689	0.07166
3764.73112	0.07210
3763.44536	0.07250
3762.15959	0.07273
3760.87382	0.07276
3759.58805	0.07248
3758.30228	0.07195
3757.01651	0.07146
3755.73074	0.07157
3754.44497	0.07258
3753.15921	0.07393
3751.87344	0.07443
3750.58767	0.07341
3749.30190	0.07132
3748.01613	0.06937
3746.73036	0.06877
3745.44459	0.06950
3744.15882	0.07041
3742.87305	0.07089
3741.58729	0.07129
3740.30152	0.07175
3739.01575	0.07205
3737.72998	0.07223
3736.44421	0.07234
3735.15844	0.07228
3733.87267	0.07202
3732.58690	0.07171
3731.30114	0.07141
3730.01537	0.07111
3728.72960	0.07083
3727.44383	0.07033
3726.15806	0.06938
3724.87229	0.06824
3723.58652	0.06739
3722.30075	0.06715
3721.01498	0.06754
3719.72922	0.06829
3718.44345	0.06895
3717.15768	0.06914
3715.87191	0.06891
3714.58614	0.06865
3713.30037	0.06851
3712.01460	0.06842
3710.72883	0.06845
3709.44307	0.06876
3708.15730	0.06933
3706.87153	0.06982
3705.58576	0.07003
3704.29999	0.06985
3703.01422	0.06923
3701.72845	0.06841
3700.44268	0.06783
3699.15691	0.06769
3697.87115	0.06790
3696.58538	0.06818
3695.29961	0.06829
3694.01384	0.06824
3692.72807	0.06840
3691.44230	0.06884
3690.15653	0.06936
3688.87076	0.06966
3687.58500	0.06950
3686.29923	0.06894
3685.01346	0.06855
3683.72769	0.06861
3682.44192	0.06898
3681.15615	0.06956
3679.87038	0.07004
3678.58461	0.07016
3677.29884	0.07003
3676.01308	0.06974
3674.72731	0.06945
3673.44154	0.06950
3672.15577	0.06981
3670.87000	0.06971
3669.58423	0.06888
3668.29846	0.06801
3667.01269	0.06783
3665.72693	0.06815
3664.44116	0.06845
3663.15539	0.06865
3661.86962	0.06902
3660.58385	0.06970
3659.29808	0.07060
3658.01231	0.07143
3656.72654	0.07185
3655.44077	0.07173
3654.15501	0.07142
3652.86924	0.07135
3651.58347	0.07155
3650.29770	0.07176
3649.01193	0.07184
3647.72616	0.07185
3646.44039	0.07178
3645.15462	0.07161
3643.86886	0.07145
3642.58309	0.07148
3641.29732	0.07180
3640.01155	0.07240
3638.72578	0.07314
3637.44001	0.07372
3636.15424	0.07378
3634.86847	0.07319
3633.58270	0.07234
3632.29694	0.07203
3631.01117	0.07272
3629.72540	0.07404
3628.43963	0.07522
3627.15386	0.07611
3625.86809	0.07704
3624.58232	0.07814
3623.29655	0.07915
3622.01079	0.08004
3620.72502	0.08069
3619.43925	0.08074
3618.15348	0.07984
3616.86771	0.07833
3615.58194	0.07702
3614.29617	0.07645
3613.01040	0.07649
3611.72463	0.07673
3610.43887	0.07710
3609.15310	0.07781
3607.86733	0.07894
3606.58156	0.08015
3605.29579	0.08084
3604.01002	0.08066
3602.72425	0.07983
3601.43848	0.07907
3600.15272	0.07884
3598.86695	0.07905
3597.58118	0.07940
3596.29541	0.07988
3595.00964	0.08058
3593.72387	0.08130
3592.43810	0.08173
3591.15233	0.08173
3589.86656	0.08146
3588.58080	0.08134
3587.29503	0.08168
3586.00926	0.08247
3584.72349	0.08340
3583.43772	0.08436
3582.15195	0.08536
3580.86618	0.08632
3579.58041	0.08715
3578.29464	0.08770
3577.00888	0.08786
3575.72311	0.08766
3574.43734	0.08725
3573.15157	0.08698
3571.86580	0.08722
3570.58003	0.08798
3569.29426	0.08877
3568.00849	0.08902
3566.72273	0.08859
3565.43696	0.08796
3564.15119	0.08771
3562.86542	0.08801
3561.57965	0.08846
3560.29388	0.08860
3559.00811	0.08839
3557.72234	0.08825
3556.43657	0.08853
3555.15081	0.08914
3553.86504	0.08966
3552.57927	0.08983
3551.29350	0.08968
3550.00773	0.08948
3548.72196	0.08947
3547.43619	0.08976
3546.15042	0.09028
3544.86466	0.09091
3543.57889	0.09156
3542.29312	0.09223
3541.00735	0.09296
3539.72158	0.09377
3538.43581	0.09449
3537.15004	0.09488
3535.86427	0.09487
3534.57850	0.09475
3533.29274	0.09490
3532.00697	0.09545
3530.72120	0.09607
3529.43543	0.09632
3528.14966	0.09597
3526.86389	0.09521
3525.57812	0.09457
3524.29235	0.09449
3523.00659	0.09493
3521.72082	0.09550
3520.43505	0.09582
3519.14928	0.09587
3517.86351	0.09592
3516.57774	0.09625
3515.29197	0.09680
3514.00620	0.09725
3512.72043	0.09728
3511.43467	0.09691
3510.14890	0.09638
3508.86313	0.09598
3507.57736	0.09588
3506.29159	0.09609
3505.00582	0.09652
3503.72005	0.09713
3502.43428	0.09794
3501.14852	0.09886
3499.86275	0.09963
3498.57698	0.10010
3497.29121	0.10046
3496.00544	0.10100
3494.71967	0.10168
3493.43390	0.10206
3492.14813	0.10178
3490.86236	0.10097
3489.57660	0.10013
3488.29083	0.09980
3487.00506	0.10015
3485.71929	0.10104
3484.43352	0.10221
3483.14775	0.10339
3481.86198	0.10429
3480.57621	0.10469
3479.29045	0.10463
3478.00468	0.10430
3476.71891	0.10379
3475.43314	0.10314
3474.14737	0.10241
3472.86160	0.10183
3471.57583	0.10174
3470.29006	0.10232
3469.00429	0.10349
3467.71853	0.10490
3466.43276	0.10609
3465.14699	0.10675
3463.86122	0.10692
3462.57545	0.10700
3461.28968	0.10725
3460.00391	0.10742
3458.71814	0.10699
3457.43238	0.10593
3456.14661	0.10494
3454.86084	0.10482
3453.57507	0.10569
3452.28930	0.10695
3451.00353	0.10782
3449.71776	0.10795
3448.43199	0.10758
3447.14622	0.10717
3445.86046	0.10700
3444.57469	0.10704
3443.28892	0.10714
3442.00315	0.10722
3440.71738	0.10730
3439.43161	0.10745
3438.14584	0.10764
3436.86007	0.10781
3435.57431	0.10796
3434.28854	0.10817
3433.00277	0.10843
3431.71700	0.10852
3430.43123	0.10829
3429.14546	0.10794
3427.85969	0.10795
3426.57392	0.10862
3425.28815	0.10972
3424.00239	0.11075
3422.71662	0.11134
3421.43085	0.11154
3420.14508	0.11159
3418.85931	0.11169
3417.57354	0.11184
3416.28777	0.11186
3415.00200	0.11156
3413.71624	0.11091
3412.43047	0.11011
3411.14470	0.10942
3409.85893	0.10902
3408.57316	0.10890
3407.28739	0.10907
3406.00162	0.10958
3404.71585	0.11044
3403.43008	0.11144
3402.14432	0.11225
3400.85855	0.11256
3399.57278	0.11230
3398.28701	0.11188
3397.00124	0.11173
3395.71547	0.11197
3394.42970	0.11243
3393.14393	0.11278
3391.85817	0.11289
3390.57240	0.11287
3389.28663	0.11288
3388.00086	0.11299
3386.71509	0.11324
3385.42932	0.11363
3384.14355	0.11414
3382.85778	0.11455
3381.57201	0.11458
3380.28625	0.11411
3379.00048	0.11335
3377.71471	0.11268
3376.42894	0.11236
3375.14317	0.11237
3373.85740	0.11252
3372.57163	0.11266
3371.28586	0.11271
3370.00010	0.11265
3368.71433	0.11254
3367.42856	0.11251
3366.14279	0.11271
3364.85702	0.11305
3363.57125	0.11338
3362.28548	0.11367
3360.99971	0.11403
3359.71394	0.11456
3358.42818	0.11515
3357.14241	0.11559
3355.85664	0.11578
3354.57087	0.11574
3353.28510	0.11559
3351.99933	0.11540
3350.71356	0.11521
3349.42779	0.11498
3348.14202	0.11468
3346.85626	0.11424
3345.57049	0.11361
3344.28472	0.11285
3342.99895	0.11222
3341.71318	0.11202
3340.42741	0.11233
3339.14164	0.11291
3337.85587	0.11347
3336.57011	0.11378
3335.28434	0.11372
3333.99857	0.11329
3332.71280	0.11268
3331.42703	0.11225
3330.14126	0.11226
3328.85549	0.11265
3327.56972	0.11300
3326.28395	0.11299
3324.99819	0.11272
3323.71242	0.11261
3322.42665	0.11294
3321.14088	0.11355
3319.85511	0.11393
3318.56934	0.11372
3317.28357	0.11295
3315.99780	0.11212
3314.71204	0.11180
3313.42627	0.11218
3312.14050	0.11297
3310.85473	0.11365
3309.56896	0.11388
3308.28319	0.11366
3306.99742	0.11330
3305.71165	0.11307
3304.42588	0.11297
3303.14012	0.11278
3301.85435	0.11244
3300.56858	0.11215
3299.28281	0.11214
3297.99704	0.11236
3296.71127	0.11259
3295.42550	0.11267
3294.13973	0.11257
3292.85397	0.11228
3291.56820	0.11186
3290.28243	0.11146
3288.99666	0.11136
3287.71089	0.11165
3286.42512	0.11212
3285.13935	0.11244
3283.85358	0.11244
3282.56781	0.11233
3281.28205	0.11238
3279.99628	0.11268
3278.71051	0.11304
3277.42474	0.11318
3276.13897	0.11301
3274.85320	0.11266
3273.56743	0.11232
3272.28166	0.11209
3270.99590	0.11197
3269.71013	0.11187
3268.42436	0.11172
3267.13859	0.11147
3265.85282	0.11116
3264.56705	0.11090
3263.28128	0.11079
3261.99551	0.11078
3260.70974	0.11075
3259.42398	0.11064
3258.13821	0.11054
3256.85244	0.11053
3255.56667	0.11062
3254.28090	0.11072
3252.99513	0.11078
3251.70936	0.11083
3250.42359	0.11093
3249.13783	0.11101
3247.85206	0.11089
3246.56629	0.11053
3245.28052	0.11015
3243.99475	0.11006
3242.70898	0.11036
3241.42321	0.11083
3240.13744	0.11103
3238.85167	0.11065
3237.56591	0.10976
3236.28014	0.10872
3234.99437	0.10789
3233.70860	0.10743
3232.42283	0.10735
3231.13706	0.10758
3229.85129	0.10807
3228.56552	0.10865
3227.27976	0.10917
3225.99399	0.10949
3224.70822	0.10956
3223.42245	0.10953
3222.13668	0.10958
3220.85091	0.10971
3219.56514	0.10975
3218.27937	0.10953
3216.99360	0.10909
3215.70784	0.10861
3214.42207	0.10824
3213.13630	0.10809
3211.85053	0.10816
3210.56476	0.10830
3209.27899	0.10826
3207.99322	0.10793
3206.70745	0.10738
3205.42169	0.10679
3204.13592	0.10623
3202.85015	0.10580
3201.56438	0.10571
3200.27861	0.10604
3198.99284	0.10659
3197.70707	0.10701
3196.42130	0.10714
3195.13553	0.10704
3193.84977	0.10672
3192.56400	0.10611
3191.27823	0.10525
3189.99246	0.10437
3188.70669	0.10377
3187.42092	0.10366
3186.13515	0.10408
3184.84938	0.10486
3183.56362	0.10565
3182.27785	0.10608
3180.99208	0.10608
3179.70631	0.10583
3178.42054	0.10560
3177.13477	0.10549
3175.84900	0.10544
3174.56323	0.10534
3173.27746	0.10505
3171.99170	0.10458
3170.70593	0.10409
3169.42016	0.10383
3168.13439	0.10384
3166.84862	0.10387
3165.56285	0.10365
3164.27708	0.10314
3162.99131	0.10263
3161.70555	0.10244
3160.41978	0.10265
3159.13401	0.10306
3157.84824	0.10340
3156.56247	0.10344
3155.27670	0.10317
3153.99093	0.10272
3152.70516	0.10224
3151.41939	0.10189
3150.13363	0.10178
3148.84786	0.10198
3147.56209	0.10233
3146.27632	0.10246
3144.99055	0.10210
3143.70478	0.10133
3142.41901	0.10053
3141.13324	0.09999
3139.84748	0.09972
3138.56171	0.09960
3137.27594	0.09960
3135.99017	0.09978
3134.70440	0.10007
3133.41863	0.10027
3132.13286	0.10017
3130.84709	0.09977
3129.56132	0.09923
3128.27556	0.09876
3126.98979	0.09852
3125.70402	0.09854
3124.41825	0.09879
3123.13248	0.09908
3121.84671	0.09925
3120.56094	0.09921
3119.27517	0.09892
3117.98940	0.09840
3116.70364	0.09774
3115.41787	0.09713
3114.13210	0.09685
3112.84633	0.09702
3111.56056	0.09750
3110.27479	0.09788
3108.98902	0.09785
3107.70325	0.09737
3106.41749	0.09667
3105.13172	0.09604
3103.84595	0.09572
3102.56018	0.09577
3101.27441	0.09594
3099.98864	0.09595
3098.70287	0.09574
3097.41710	0.09553
3096.13133	0.09548
3094.84557	0.09555
3093.55980	0.09552
3092.27403	0.09531
3090.98826	0.09505
3089.70249	0.09484
3088.41672	0.09464
3087.13095	0.09434
3085.84518	0.09398
3084.55942	0.09379
3083.27365	0.09389
3081.98788	0.09417
3080.70211	0.09434
3079.41634	0.09421
3078.13057	0.09390
3076.84480	0.09372
3075.55903	0.09382
3074.27326	0.09407
3072.98750	0.09423
3071.70173	0.09415
3070.41596	0.09388
3069.13019	0.09349
3067.84442	0.09305
3066.55865	0.09258
3065.27288	0.09216
3063.98711	0.09193
3062.70135	0.09204
3061.41558	0.09250
3060.12981	0.09312
3058.84404	0.09356
3057.55827	0.09351
3056.27250	0.09293
3054.98673	0.09202
3053.70096	0.09117
3052.41519	0.09068
3051.12943	0.09061
3049.84366	0.09082
3048.55789	0.09115
3047.27212	0.09154
3045.98635	0.09194
3044.70058	0.09220
3043.41481	0.09214
3042.12904	0.09172
3040.84328	0.09117
3039.55751	0.09078
3038.27174	0.09059
3036.98597	0.09038
3035.70020	0.09000
3034.41443	0.08955
3033.12866	0.08926
3031.84289	0.08920
3030.55712	0.08924
3029.27136	0.08917
3027.98559	0.08899
3026.69982	0.08888
3025.41405	0.08898
3024.12828	0.08923
3022.84251	0.08941
3021.55674	0.08934
3020.27097	0.08896
3018.98521	0.08827
3017.69944	0.08744
3016.41367	0.08676
3015.12790	0.08647
3013.84213	0.08657
3012.55636	0.08686
3011.27059	0.08715
3009.98482	0.08732
3008.69905	0.08726
3007.41329	0.08696
3006.12752	0.08658
3004.84175	0.08634
3003.55598	0.08636
3002.27021	0.08656
3000.98444	0.08670
2999.69867	0.08651
2998.41290	0.08596
2997.12714	0.08533
2995.84137	0.08494
2994.55560	0.08493
2993.26983	0.08519
2991.98406	0.08559
2990.69829	0.08604
2989.41252	0.08641
2988.12675	0.08661
2986.84098	0.08659
2985.55522	0.08648
2984.26945	0.08652
2982.98368	0.08685
2981.69791	0.08742
2980.41214	0.08808
2979.12637	0.08876
2977.84060	0.08952
2976.55483	0.09040
2975.26907	0.09130
2973.98330	0.09216
2972.69753	0.09302
2971.41176	0.09409
2970.12599	0.09554
2968.84022	0.09733
2967.55445	0.09918
2966.26868	0.10082
2964.98291	0.10220
2963.69715	0.10352
2962.41138	0.10495
2961.12561	0.10648
2959.83984	0.10790
2958.55407	0.10906
2957.26830	0.11007
2955.98253	0.11114
2954.69676	0.11228
2953.41100	0.11323
2952.12523	0.11373
2950.83946	0.11376
2949.55369	0.11360
2948.26792	0.11346
2946.98215	0.11340
2945.69638	0.11334
2944.41061	0.11321
2943.12484	0.11301
2941.83908	0.11287
2940.55331	0.11299
2939.26754	0.11350
2937.98177	0.11437
2936.69600	0.11545
2935.41023	0.11667
2934.12446	0.11799
2932.83869	0.11933
2931.55293	0.12053
2930.26716	0.12152
2928.98139	0.12243
2927.69562	0.12343
2926.40985	0.12441
2925.12408	0.12512
2923.83831	0.12542
2922.55254	0.12533
2921.26677	0.12492
2919.98101	0.12425
2918.69524	0.12343
2917.40947	0.12258
2916.12370	0.12173
2914.83793	0.12083
2913.55216	0.11978
2912.26639	0.11849
2910.98062	0.11703
2909.69486	0.11556
2908.40909	0.11429
2907.12332	0.11330
2905.83755	0.11250
2904.55178	0.11177
2903.26601	0.11099
2901.98024	0.11010
2900.69447	0.10910
2899.40870	0.10802
2898.12294	0.10686
2896.83717	0.10567
2895.55140	0.10450
2894.26563	0.10336
2892.97986	0.10216
2891.69409	0.10095
2890.40832	0.09993
2889.12255	0.09930
2887.83678	0.09902
2886.55102	0.09886
2885.26525	0.09861
2883.97948	0.09819
2882.69371	0.09768
2881.40794	0.09726
2880.12217	0.09716
2878.83640	0.09750
2877.55063	0.09817
2876.26487	0.09891
2874.97910	0.09949
2873.69333	0.09988
2872.40756	0.10019
2871.12179	0.10055
2869.83602	0.10096
2868.55025	0.10133
2867.26448	0.10154
2865.97871	0.10154
2864.69295	0.10141
2863.40718	0.10136
2862.12141	0.10156
2860.83564	0.10191
2859.54987	0.10213
2858.26410	0.10207
2856.97833	0.10184
2855.69256	0.10167
2854.40680	0.10162
2853.12103	0.10145
2851.83526	0.10086
2850.54949	0.09977
2849.26372	0.09840
2847.97795	0.09708
2846.69218	0.09594
2845.40641	0.09490
2844.12064	0.09383
2842.83488	0.09269
2841.54911	0.09149
2840.26334	0.09020
2838.97757	0.08877
2837.69180	0.08725
2836.40603	0.08577
2835.12026	0.08449
2833.83449	0.08350
2832.54873	0.08277
2831.26296	0.08213
2829.97719	0.08143
2828.69142	0.08061
2827.40565	0.07978
2826.11988	0.07910
2824.83411	0.07861
2823.54834	0.07823
2822.26257	0.07785
2820.97681	0.07741
2819.69104	0.07698
2818.40527	0.07668
2817.11950	0.07649
2815.83373	0.07628
2814.54796	0.07591
2813.26219	0.07542
2811.97642	0.07492
2810.69066	0.07451
2809.40489	0.07421
2808.11912	0.07396
2806.83335	0.07369
2805.54758	0.07340
2804.26181	0.07317
2802.97604	0.07302
2801.69027	0.07289
2800.40450	0.07272
2799.11874	0.07253
2797.83297	0.07236
2796.54720	0.07225
2795.26143	0.07218
2793.97566	0.07208
2792.68989	0.07183
2791.40412	0.07140
2790.11835	0.07091
2788.83259	0.07053
2787.54682	0.07031
2786.26105	0.07019
2784.97528	0.07008
2783.68951	0.06997
2782.40374	0.06987
2781.11797	0.06969
2779.83220	0.06940
2778.54643	0.06910
2777.26067	0.06904
2775.97490	0.06927
2774.68913	0.06959
2773.40336	0.06971
2772.11759	0.06959
2770.83182	0.06938
2769.54605	0.06918
2768.26028	0.06894
2766.97452	0.06854
2765.68875	0.06800
2764.40298	0.06749
2763.11721	0.06721
2761.83144	0.06723
2760.54567	0.06737
2759.25990	0.06741
2757.97413	0.06726
2756.68836	0.06697
2755.40260	0.06661
2754.11683	0.06626
2752.83106	0.06597
2751.54529	0.06583
2750.25952	0.06589
2748.97375	0.06612
2747.68798	0.06639
2746.40221	0.06647
2745.11645	0.06625
2743.83068	0.06583
2742.54491	0.06555
2741.25914	0.06558
2739.97337	0.06582
2738.68760	0.06598
2737.40183	0.06589
2736.11606	0.06564
2734.83029	0.06534
2733.54453	0.06510
2732.25876	0.06502
2730.97299	0.06512
2729.68722	0.06533
2728.40145	0.06550
2727.11568	0.06552
2725.82991	0.06538
2724.54414	0.06513
2723.25838	0.06475
2721.97261	0.06425
2720.68684	0.06372
2719.40107	0.06330
2718.11530	0.06313
2716.82953	0.06320
2715.54376	0.06334
2714.25799	0.06337
2712.97222	0.06315
2711.68646	0.06271
2710.40069	0.06226
2709.11492	0.06203
2707.82915	0.06212
2706.54338	0.06241
2705.25761	0.06273
2703.97184	0.06301
2702.68607	0.06317
2701.40031	0.06311
2700.11454	0.06277
2698.82877	0.06223
2697.54300	0.06174
2696.25723	0.06147
2694.97146	0.06140
2693.68569	0.06142
2692.39992	0.06143
2691.11415	0.06143
2689.82839	0.06145
2688.54262	0.06145
2687.25685	0.06136
2685.97108	0.06120
2684.68531	0.06103
2683.39954	0.06094
2682.11377	0.06089
2680.82800	0.06077
2679.54224	0.06054
2678.25647	0.06030
2676.97070	0.06017
2675.68493	0.06021
2674.39916	0.06033
2673.11339	0.06042
2671.82762	0.06041
2670.54185	0.06035
2669.25608	0.06024
2667.97032	0.06009
2666.68455	0.05987
2665.39878	0.05964
2664.11301	0.05947
2662.82724	0.05941
2661.54147	0.05948
2660.25570	0.05967
2658.96993	0.05989
2657.68417	0.06001
2656.39840	0.05994
2655.11263	0.05975
2653.82686	0.05954
2652.54109	0.05939
2651.25532	0.05933
2649.96955	0.05933
2648.68378	0.05933
2647.39801	0.05925
2646.11225	0.05904
2644.82648	0.05866
2643.54071	0.05821
2642.25494	0.05784
2640.96917	0.05769
2639.68340	0.05767
2638.39763	0.05760
2637.11186	0.05738
2635.82609	0.05710
2634.54033	0.05689
2633.25456	0.05672
2631.96879	0.05653
2630.68302	0.05636
2629.39725	0.05629
2628.11148	0.05624
2626.82571	0.05597
2625.53994	0.05536
2624.25418	0.05461
2622.96841	0.05409
2621.68264	0.05401
2620.39687	0.05423
2619.11110	0.05442
2617.82533	0.05438
2616.53956	0.05412
2615.25379	0.05382
2613.96802	0.05362
2612.68226	0.05353
2611.39649	0.05341
2610.11072	0.05312
2608.82495	0.05265
2607.53918	0.05212
2606.25341	0.05170
2604.96764	0.05143
2603.68187	0.05128
2602.39611	0.05120
2601.11034	0.05114
2599.82457	0.05114
2598.53880	0.05123
2597.25303	0.05137
2595.96726	0.05142
2594.68149	0.05130
2593.39572	0.05112
2592.10995	0.05115
2590.82419	0.05141
2589.53842	0.05157
2588.25265	0.05124
2586.96688	0.05044
2585.68111	0.04955
2584.39534	0.04898
2583.10957	0.04885
2581.82380	0.04897
2580.53804	0.04913
2579.25227	0.04928
2577.96650	0.04948
2576.68073	0.04969
2575.39496	0.04976
2574.10919	0.04950
2572.82342	0.04899
2571.53765	0.04854
2570.25188	0.04838
2568.96612	0.04853
2567.68035	0.04883
2566.39458	0.04911
2565.10881	0.04924
2563.82304	0.04912
2562.53727	0.04877
2561.25150	0.04840
2559.96573	0.04820
2558.67997	0.04811
2557.39420	0.04788
2556.10843	0.04746
2554.82266	0.04710
2553.53689	0.04705
2552.25112	0.04730
2550.96535	0.04759
2549.67958	0.04780
2548.39381	0.04788
2547.10805	0.04785
2545.82228	0.04776
2544.53651	0.04769
2543.25074	0.04769
2541.96497	0.04763
2540.67920	0.04737
2539.39343	0.04692
2538.10766	0.04641
2536.82190	0.04601
2535.53613	0.04583
2534.25036	0.04585
2532.96459	0.04596
2531.67882	0.04606
2530.39305	0.04609
2529.10728	0.04597
2527.82151	0.04568
2526.53574	0.04533
2525.24998	0.04509
2523.96421	0.04501
2522.67844	0.04498
2521.39267	0.04486
2520.10690	0.04469
2518.82113	0.04461
2517.53536	0.04473
2516.24959	0.04494
2514.96383	0.04499
2513.67806	0.04481
2512.39229	0.04459
2511.10652	0.04458
2509.82075	0.04481
2508.53498	0.04506
2507.24921	0.04516
2505.96344	0.04507
2504.67767	0.04483
2503.39191	0.04454
2502.10614	0.04427
2500.82037	0.04404
2499.53460	0.04389
2498.24883	0.04398
2496.96306	0.04433
2495.67729	0.04470
2494.39152	0.04475
2493.10576	0.04444
2491.81999	0.04399
2490.53422	0.04362
2489.24845	0.04337
2487.96268	0.04325
2486.67691	0.04333
2485.39114	0.04357
2484.10537	0.04377
2482.81960	0.04385
2481.53384	0.04393
2480.24807	0.04413
2478.96230	0.04434
2477.67653	0.04441
2476.39076	0.04432
2475.10499	0.04427
2473.81922	0.04440
2472.53345	0.04474
2471.24769	0.04513
2469.96192	0.04539
2468.67615	0.04535
2467.39038	0.04506
2466.10461	0.04464
2464.81884	0.04420
2463.53307	0.04380
2462.24730	0.04349
2460.96153	0.04336
2459.67577	0.04343
2458.39000	0.04365
2457.10423	0.04392
2455.81846	0.04404
2454.53269	0.04389
2453.24692	0.04350
2451.96115	0.04307
2450.67538	0.04277
2449.38962	0.04263
2448.10385	0.04262
2446.81808	0.04268
2445.53231	0.04271
2444.24654	0.04260
2442.96077	0.04226
2441.67500	0.04178
2440.38923	0.04134
2439.10346	0.04112
2437.81770	0.04117
2436.53193	0.04137
2435.24616	0.04152
2433.96039	0.04152
2432.67462	0.04139
2431.38885	0.04123
2430.10308	0.04104
2428.81731	0.04074
2427.53155	0.04034
2426.24578	0.04005
2424.96001	0.04010
2423.67424	0.04054
2422.38847	0.04121
2421.10270	0.04182
2419.81693	0.04213
2418.53116	0.04206
2417.24539	0.04179
2415.95963	0.04156
2414.67386	0.04141
2413.38809	0.04116
2412.10232	0.04069
2410.81655	0.04020
2409.53078	0.03989
2408.24501	0.03984
2406.95924	0.03992
2405.67347	0.03997
2404.38771	0.03987
2403.10194	0.03963
2401.81617	0.03946
2400.53040	0.03953
2399.24463	0.03975
2397.95886	0.03993
2396.67309	0.03999
2395.38732	0.04006
2394.10156	0.04023
2392.81579	0.04047
2391.53002	0.04064
2390.24425	0.04066
2388.95848	0.04063
2387.67271	0.04067
2386.38694	0.04081
2385.10117	0.04094
2383.81540	0.04095
2382.52964	0.04087
2381.24387	0.04080
2379.95810	0.04086
2378.67233	0.04104
2377.38656	0.04137
2376.10079	0.04177
2374.81502	0.04210
2373.52925	0.04257
2372.24349	0.04307
2370.95772	0.04383
2369.67195	0.04419
2368.38618	0.04417
2367.10041	0.04409
2365.81464	0.04438
2364.52887	0.04435
2363.24310	0.04421
2361.95733	0.04420
2360.67157	0.04456
2359.38580	0.04427
2358.10003	0.04370
2356.81426	0.04309
2355.52849	0.04244
2354.24272	0.04191
2352.95695	0.04131
2351.67118	0.04139
2350.38542	0.04238
2349.09965	0.04318
2347.81388	0.04295
2346.52811	0.04317
2345.24234	0.04400
2343.95657	0.04427
2342.67080	0.04318
2341.38503	0.04270
2340.09926	0.04361
2338.81350	0.04376
2337.52773	0.04286
2336.24196	0.04326
2334.95619	0.04460
2333.67042	0.04436
2332.38465	0.04249
2331.09888	0.04316
2329.81311	0.04423
2328.52735	0.04248
2327.24158	0.04334
2325.95581	0.04559
2324.67004	0.04469
2323.38427	0.04428
2322.09850	0.04503
2320.81273	0.04308
2319.52696	0.04254
2318.24119	0.04300
2316.95543	0.04174
2315.66966	0.04149
2314.38389	0.04146
2313.09812	0.04048
2311.81235	0.04050
2310.52658	0.04030
2309.24081	0.04032
2307.95504	0.04091
2306.66928	0.04078
2305.38351	0.04075
2304.09774	0.04055
2302.81197	0.04012
2301.52620	0.03989
2300.24043	0.03950
2298.95466	0.03933
2297.66889	0.03930
2296.38312	0.03943
2295.09736	0.03968
2293.81159	0.03976
2292.52582	0.03965
2291.24005	0.03926
2289.95428	0.03875
2288.66851	0.03823
2287.38274	0.03777
2286.09697	0.03744
2284.81121	0.03727
2283.52544	0.03733
2282.23967	0.03752
2280.95390	0.03764
2279.66813	0.03744
2278.38236	0.03688
2277.09659	0.03618
2275.81082	0.03564
2274.52505	0.03540
2273.23929	0.03533
2271.95352	0.03515
2270.66775	0.03468
2269.38198	0.03396
2268.09621	0.03326
2266.81044	0.03285
2265.52467	0.03268
2264.23890	0.03246
2262.95314	0.03212
2261.66737	0.03195
2260.38160	0.03209
2259.09583	0.03231
2257.81006	0.03222
2256.52429	0.03168
2255.23852	0.03094
2253.95275	0.03044
2252.66698	0.03026
2251.38122	0.03029
2250.09545	0.03058
2248.80968	0.03124
2247.52391	0.03218
2246.23814	0.03262
2244.95237	0.03223
2243.66660	0.03135
2242.38083	0.03053
2241.09507	0.03001
2239.80930	0.02977
2238.52353	0.02987
2237.23776	0.03037
2235.95199	0.03111
2234.66622	0.03156
2233.38045	0.03123
2232.09468	0.03010
2230.80891	0.02866
2229.52315	0.02749
2228.23738	0.02692
2226.95161	0.02689
2225.66584	0.02708
2224.38007	0.02719
2223.09430	0.02722
2221.80853	0.02739
2220.52276	0.02780
2219.23700	0.02830
2217.95123	0.02868
2216.66546	0.02887
2215.37969	0.02877
2214.09392	0.02822
2212.80815	0.02729
2211.52238	0.02644
2210.23661	0.02618
2208.95084	0.02651
2207.66508	0.02681
2206.37931	0.02652
2205.09354	0.02583
2203.80777	0.02541
2202.52200	0.02553
2201.23623	0.02581
2199.95046	0.02581
2198.66469	0.02561
2197.37893	0.02552
2196.09316	0.02560
2194.80739	0.02568
2193.52162	0.02566
2192.23585	0.02564
2190.95008	0.02558
2189.66431	0.02534
2188.37854	0.02490
2187.09277	0.02442
2185.80701	0.02396
2184.52124	0.02335
2183.23547	0.02252
2181.94970	0.02186
2180.66393	0.02205
2179.37816	0.02321
2178.09239	0.02452
2176.80662	0.02487
2175.52085	0.02381
2174.23509	0.02201
2172.94932	0.02059
2171.66355	0.02029
2170.37778	0.02104
2169.09201	0.02219
2167.80624	0.02296
2166.52047	0.02283
2165.23470	0.02182
2163.94894	0.02022
2162.66317	0.01828
2161.37740	0.01600
2160.09163	0.01355
2158.80586	0.01153
2157.52009	0.01061
2156.23432	0.01090
2154.94855	0.01188
2153.66278	0.01293
2152.37702	0.01382
2151.09125	0.01458
2149.80548	0.01525
2148.51971	0.01591
2147.23394	0.01673
2145.94817	0.01781
2144.66240	0.01895
2143.37663	0.01982
2142.09087	0.02042
2140.80510	0.02106
2139.51933	0.02179
2138.23356	0.02229
2136.94779	0.02230
2135.66202	0.02200
2134.37625	0.02174
2133.09048	0.02167
2131.80471	0.02168
2130.51895	0.02172
2129.23318	0.02180
2127.94741	0.02194
2126.66164	0.02214
2125.37587	0.02252
2124.09010	0.02317
2122.80433	0.02402
2121.51856	0.02477
2120.23280	0.02514
2118.94703	0.02510
2117.66126	0.02490
2116.37549	0.02480
2115.08972	0.02485
2113.80395	0.02493
2112.51818	0.02495
2111.23241	0.02496
2109.94664	0.02505
2108.66088	0.02514
2107.37511	0.02511
2106.08934	0.02498
2104.80357	0.02488
2103.51780	0.02489
2102.23203	0.02496
2100.94626	0.02479
2099.66049	0.02305
2098.37473	0.02163
2097.08896	0.02107
2095.80319	0.02132
2094.51742	0.02208
2093.23165	0.02271
2091.94588	0.02282
2090.66011	0.02260
2089.37434	0.02258
2088.08857	0.02298
2086.80281	0.02352
2085.51704	0.02373
2084.23127	0.02347
2082.94550	0.02302
2081.65973	0.02272
2080.37396	0.02263
2079.08819	0.02255
2077.80242	0.02238
2076.51666	0.02217
2075.23089	0.02197
2073.94512	0.02164
2072.65935	0.02100
2071.37358	0.02014
2070.08781	0.01936
2068.80204	0.01889
2067.51627	0.01873
2066.23050	0.01871
2064.94474	0.01873
2063.65897	0.01875
2062.37320	0.01881
2061.08743	0.01886
2059.80166	0.01881
2058.51589	0.01854
2057.23012	0.01809
2055.94435	0.01774
2054.65859	0.01785
2053.37282	0.01854
2052.08705	0.01940
2050.80128	0.01977
2049.51551	0.01917
2048.22974	0.01770
2046.94397	0.01593
2045.65820	0.01443
2044.37243	0.01357
2043.08667	0.01347
2041.80090	0.01401
2040.51513	0.01478
2039.22936	0.01515
2037.94359	0.01468
2036.65782	0.01349
2035.37205	0.01225
2034.08628	0.01156
2032.80052	0.01141
2031.51475	0.01132
2030.22898	0.01095
2028.94321	0.01039
2027.65744	0.00993
2026.37167	0.00975
2025.08590	0.00997
2023.80013	0.01066
2022.51436	0.01171
2021.22860	0.01282
2019.94283	0.01362
2018.65706	0.01389
2017.37129	0.01374
2016.08552	0.01345
2014.79975	0.01331
2013.51398	0.01330
2012.22821	0.01314
2010.94245	0.01261
2009.65668	0.01176
2008.37091	0.01094
2007.08514	0.01057
2005.79937	0.01090
2004.51360	0.01194
2003.22783	0.01340
2001.94206	0.01491
2000.65629	0.01616
1999.37053	0.01712
1998.08476	0.01797
1996.79899	0.01881
1995.51322	0.01934
1994.22745	0.01920
1992.94168	0.01832
1991.65591	0.01705
1990.37014	0.01601
1989.08438	0.01569
1987.79861	0.01609
1986.51284	0.01686
1985.22707	0.01758
1983.94130	0.01805
1982.65553	0.01821
1981.36976	0.01800
1980.08399	0.01738
1978.79822	0.01642
1977.51246	0.01516
1976.22669	0.01370
1974.94092	0.01248
1973.65515	0.01211
1972.36938	0.01286
1971.08361	0.01419
1969.79784	0.01520
1968.51207	0.01546
1967.22631	0.01519
1965.94054	0.01488
1964.65477	0.01471
1963.36900	0.01460
1962.08323	0.01452
1960.79746	0.01463
1959.51169	0.01509
1958.22592	0.01592
1956.94015	0.01687
1955.65439	0.01769
1954.36862	0.01821
1953.08285	0.01840
1951.79708	0.01831
1950.51131	0.01801
1949.22554	0.01772
1947.93977	0.01767
1946.65400	0.01797
1945.36823	0.01858
1944.08247	0.01933
1942.79670	0.01996
1941.51093	0.02023
1940.22516	0.02013
1938.93939	0.02000
1937.65362	0.02021
1936.36785	0.02080
1935.08208	0.02139
1933.79632	0.02151
1932.51055	0.02107
1931.22478	0.02043
1929.93901	0.02010
1928.65324	0.02027
1927.36747	0.02065
1926.08170	0.02086
1924.79593	0.02082
1923.51016	0.02071
1922.22440	0.02069
1920.93863	0.02076
1919.65286	0.02077
1918.36709	0.02061
1917.08132	0.02026
1915.79555	0.01995
1914.50978	0.01992
1913.22401	0.02021
1911.93825	0.02064
1910.65248	0.02101
1909.36671	0.02120
1908.08094	0.02122
1906.79517	0.02115
1905.50940	0.02102
1904.22363	0.02082
1902.93786	0.02059
1901.65209	0.02052
1900.36633	0.02078
1899.08056	0.02128
1897.79479	0.02171
1896.50902	0.02183
1895.22325	0.02166
1893.93748	0.02145
1892.65171	0.02139
1891.36594	0.02149
1890.08018	0.02161
1888.79441	0.02168
1887.50864	0.02172
1886.22287	0.02179
1884.93710	0.02185
1883.65133	0.02184
1882.36556	0.02177
1881.07979	0.02175
1879.79402	0.02181
1878.50826	0.02192
1877.22249	0.02201
1875.93672	0.02203
1874.65095	0.02202
1873.36518	0.02210
1872.07941	0.02231
1870.79364	0.02257
1869.50787	0.02272
1868.22211	0.02267
1866.93634	0.02252
1865.65057	0.02242
1864.36480	0.02235
1863.07903	0.02229
1861.79326	0.02225
1860.50749	0.02229
1859.22172	0.02240
1857.93595	0.02252
1856.65019	0.02252
1855.36442	0.02232
1854.07865	0.02198
1852.79288	0.02170
1851.50711	0.02160
1850.22134	0.02164
1848.93557	0.02168
1847.64980	0.02169
1846.36404	0.02174
1845.07827	0.02185
1843.79250	0.02192
1842.50673	0.02192
1841.22096	0.02192
1839.93519	0.02195
1838.64942	0.02197
1837.36365	0.02196
1836.07788	0.02197
1834.79212	0.02198
1833.50635	0.02196
1832.22058	0.02191
1830.93481	0.02186
1829.64904	0.02177
1828.36327	0.02166
1827.07750	0.02156
1825.79173	0.02145
1824.50597	0.02129
1823.22020	0.02114
1821.93443	0.02111
1820.64866	0.02120
1819.36289	0.02133
1818.07712	0.02148
1816.79135	0.02170
1815.50558	0.02200
1814.21981	0.02234
1812.93405	0.02269
1811.64828	0.02296
1810.36251	0.02311
1809.07674	0.02318
1807.79097	0.02323
1806.50520	0.02330
1805.21943	0.02332
1803.93366	0.02321
1802.64790	0.02298
1801.36213	0.02269
1800.07636	0.02251
1798.79059	0.02252
1797.50482	0.02272
1796.21905	0.02297
1794.93328	0.02314
1793.64751	0.02317
1792.36174	0.02304
1791.07598	0.02282
1789.79021	0.02267
1788.50444	0.02269
1787.21867	0.02283
1785.93290	0.02296
1784.64713	0.02301
1783.36136	0.02300
1782.07559	0.02304
1780.78983	0.02319
1779.50406	0.02336
1778.21829	0.02346
1776.93252	0.02342
1775.64675	0.02331
1774.36098	0.02330
1773.07521	0.02341
1771.78944	0.02354
1770.50367	0.02364
1769.21791	0.02374
1767.93214	0.02378
1766.64637	0.02371
1765.36060	0.02365
1764.07483	0.02371
1762.78906	0.02383
1761.50329	0.02385
1760.21752	0.02377
1758.93176	0.02375
1757.64599	0.02383
1756.36022	0.02391
1755.07445	0.02393
1753.78868	0.02397
1752.50291	0.02407
1751.21714	0.02419
1749.93137	0.02428
1748.64560	0.02440
1747.35984	0.02455
1746.07407	0.02467
1744.78830	0.02472
1743.50253	0.02476
1742.21676	0.02487
1740.93099	0.02503
1739.64522	0.02508
1738.35945	0.02493
1737.07369	0.02477
1735.78792	0.02483
1734.50215	0.02503
1733.21638	0.02513
1731.93061	0.02517
1730.64484	0.02532
1729.35907	0.02556
1728.07330	0.02573
1726.78753	0.02581
1725.50177	0.02590
1724.21600	0.02603
1722.93023	0.02612
1721.64446	0.02616
1720.35869	0.02625
1719.07292	0.02646
1717.78715	0.02667
1716.50138	0.02681
1715.21561	0.02699
1713.92985	0.02733
1712.64408	0.02780
1711.35831	0.02828
1710.07254	0.02869
1708.78677	0.02903
1707.50100	0.02935
1706.21523	0.02965
1704.92946	0.02985
1703.64370	0.03000
1702.35793	0.03027
1701.07216	0.03060
1699.78639	0.03074
1698.50062	0.03088
1697.21485	0.03135
1695.92908	0.03203
1694.64331	0.03253
1693.35754	0.03285
1692.07178	0.03326
1690.78601	0.03376
1689.50024	0.03415
1688.21447	0.03447
1686.92870	0.03489
1685.64293	0.03539
1684.35716	0.03574
1683.07139	0.03588
1681.78563	0.03609
1680.49986	0.03653
1679.21409	0.03705
1677.92832	0.03754
1676.64255	0.03804
1675.35678	0.03849
1674.07101	0.03881
1672.78524	0.03910
1671.49947	0.03952
1670.21371	0.04004
1668.92794	0.04051
1667.64217	0.04087
1666.35640	0.04121
1665.07063	0.04160
1663.78486	0.04200
1662.49909	0.04232
1661.21332	0.04258
1659.92756	0.04283
1658.64179	0.04304
1657.35602	0.04312
1656.07025	0.04321
1654.78448	0.04348
1653.49871	0.04380
1652.21294	0.04387
1650.92717	0.04380
1649.64140	0.04398
1648.35564	0.04447
1647.06987	0.04496
1645.78410	0.04521
1644.49833	0.04526
1643.21256	0.04525
1641.92679	0.04522
1640.64102	0.04513
1639.35525	0.04501
1638.06949	0.04500
1636.78372	0.04510
1635.49795	0.04511
1634.21218	0.04495
1632.92641	0.04480
1631.64064	0.04485
1630.35487	0.04503
1629.06910	0.04512
1627.78333	0.04507
1626.49757	0.04494
1625.21180	0.04488
1623.92603	0.04492
1622.64026	0.04496
1621.35449	0.04496
1620.06872	0.04504
1618.78295	0.04528
1617.49718	0.04555
1616.21142	0.04565
1614.92565	0.04562
1613.63988	0.04569
1612.35411	0.04594
1611.06834	0.04622
1609.78257	0.04640
1608.49680	0.04650
1607.21103	0.04661
1605.92526	0.04677
1604.63950	0.04698
1603.35373	0.04722
1602.06796	0.04745
1600.78219	0.04767
1599.49642	0.04786
1598.21065	0.04806
1596.92488	0.04830
1595.63911	0.04861
1594.35335	0.04898
1593.06758	0.04935
1591.78181	0.04969
1590.49604	0.05000
1589.21027	0.05032
1587.92450	0.05066
1586.63873	0.05105
1585.35296	0.05149
1584.06719	0.05198
1582.78143	0.05253
1581.49566	0.05310
1580.20989	0.05365
1578.92412	0.05424
1577.63835	0.05491
1576.35258	0.05555
1575.06681	0.05601
1573.78104	0.05644
1572.49528	0.05708
1571.20951	0.05788
1569.92374	0.05863
1568.63797	0.05924
1567.35220	0.05981
1566.06643	0.06046
1564.78066	0.06108
1563.49489	0.06159
1562.20912	0.06210
1560.92336	0.06272
1559.63759	0.06334
1558.35182	0.06377
1557.06605	0.06412
1555.78028	0.06466
1554.49451	0.06534
1553.20874	0.06595
1551.92297	0.06645
1550.63721	0.06687
1549.35144	0.06720
1548.06567	0.06738
1546.77990	0.06747
1545.49413	0.06745
1544.20836	0.06727
1542.92259	0.06701
1541.63682	0.06678
1540.35105	0.06659
1539.06529	0.06627
1537.77952	0.06580
1536.49375	0.06543
1535.20798	0.06529
1533.92221	0.06528
1532.63644	0.06521
1531.35067	0.06511
1530.06490	0.06507
1528.77914	0.06510
1527.49337	0.06516
1526.20760	0.06523
1524.92183	0.06536
1523.63606	0.06568
1522.35029	0.06619
1521.06452	0.06677
1519.77875	0.06734
1518.49298	0.06805
1517.20722	0.06895
1515.92145	0.06995
1514.63568	0.07100
1513.34991	0.07210
1512.06414	0.07322
1510.77837	0.07434
1509.49260	0.07554
1508.20683	0.07691
1506.92107	0.07830
1505.63530	0.07949
1504.34953	0.08055
1503.06376	0.08168
1501.77799	0.08287
1500.49222	0.08392
1499.20645	0.08479
1497.92068	0.08555
1496.63491	0.08625
1495.34915	0.08688
1494.06338	0.08750
1492.77761	0.08822
1491.49184	0.08905
1490.20607	0.08990
1488.92030	0.09079
1487.63453	0.09176
1486.34876	0.09284
1485.06299	0.09400
1483.77723	0.09522
1482.49146	0.09651
1481.20569	0.09783
1479.91992	0.09915
1478.63415	0.10043
1477.34838	0.10164
1476.06261	0.10279
1474.77684	0.10393
1473.49108	0.10507
1472.20531	0.10618
1470.91954	0.10725
1469.63377	0.10838
1468.34800	0.10956
1467.06223	0.11069
1465.77646	0.11162
1464.49069	0.11232
1463.20492	0.11286
1461.91916	0.11340
1460.63339	0.11405
1459.34762	0.11488
1458.06185	0.11583
1456.77608	0.11668
1455.49031	0.11733
1454.20454	0.11792
1452.91877	0.11854
1451.63301	0.11915
1450.34724	0.11965
1449.06147	0.12003
1447.77570	0.12030
1446.48993	0.12045
1445.20416	0.12050
1443.91839	0.12045
1442.63262	0.12023
1441.34685	0.11983
1440.06109	0.11941
1438.77532	0.11916
1437.48955	0.11908
1436.20378	0.11905
1434.91801	0.11906
1433.63224	0.11925
1432.34647	0.11976
1431.06070	0.12056
1429.77494	0.12162
1428.48917	0.12292
1427.20340	0.12444
1425.91763	0.12612
1424.63186	0.12781
1423.34609	0.12944
1422.06032	0.13106
1420.77455	0.13272
1419.48878	0.13428
1418.20302	0.13559
1416.91725	0.13669
1415.63148	0.13765
1414.34571	0.13846
1413.05994	0.13902
1411.77417	0.13928
1410.48840	0.13924
1409.20263	0.13890
1407.91687	0.13826
1406.63110	0.13736
1405.34533	0.13616
1404.05956	0.13465
1402.77379	0.13284
1401.48802	0.13080
1400.20225	0.12859
1398.91648	0.12625
1397.63071	0.12380
1396.34495	0.12131
1395.05918	0.11877
1393.77341	0.11613
1392.48764	0.11342
1391.20187	0.11070
1389.91610	0.10806
1388.63033	0.10553
1387.34456	0.10309
1386.05880	0.10075
1384.77303	0.09850
1383.48726	0.09630
1382.20149	0.09413
1380.91572	0.09197
1379.62995	0.08983
1378.34418	0.08767
1377.05841	0.08541
1375.77264	0.08299
1374.48688	0.08040
1373.20111	0.07768
1371.91534	0.07493
1370.62957	0.07226
1369.34380	0.06972
1368.05803	0.06734
1366.77226	0.06514
1365.48649	0.06313
1364.20073	0.06125
1362.91496	0.05943
1361.62919	0.05766
1360.34342	0.05597
1359.05765	0.05444
1357.77188	0.05307
1356.48611	0.05180
1355.20034	0.05061
1353.91457	0.04950
1352.62881	0.04846
1351.34304	0.04749
1350.05727	0.04660
1348.77150	0.04580
1347.48573	0.04509
1346.19996	0.04441
1344.91419	0.04372
1343.62842	0.04303
1342.34266	0.04234
1341.05689	0.04171
1339.77112	0.04114
1338.48535	0.04062
1337.19958	0.04011
1335.91381	0.03962
1334.62804	0.03913
1333.34227	0.03870
1332.05650	0.03834
1330.77074	0.03805
1329.48497	0.03779
1328.19920	0.03750
1326.91343	0.03717
1325.62766	0.03683
1324.34189	0.03649
1323.05612	0.03616
1321.77035	0.03583
1320.48459	0.03552
1319.19882	0.03524
1317.91305	0.03500
1316.62728	0.03479
1315.34151	0.03459
1314.05574	0.03442
1312.76997	0.03427
1311.48420	0.03413
1310.19843	0.03400
1308.91267	0.03380
1307.62690	0.03352
1306.34113	0.03315
1305.05536	0.03275
1303.76959	0.03241
1302.48382	0.03215
1301.19805	0.03198
1299.91228	0.03183
1298.62652	0.03166
1297.34075	0.03144
1296.05498	0.03119
1294.76921	0.03094
1293.48344	0.03072
1292.19767	0.03055
1290.91190	0.03041
1289.62613	0.03026
1288.34036	0.03007
1287.05460	0.02986
1285.76883	0.02963
1284.48306	0.02944
1283.19729	0.02926
1281.91152	0.02909
1280.62575	0.02890
1279.33998	0.02869
1278.05421	0.02848
1276.76845	0.02829
1275.48268	0.02814
1274.19691	0.02799
1272.91114	0.02781
1271.62537	0.02760
1270.33960	0.02739
1269.05383	0.02722
1267.76806	0.02708
1266.48229	0.02694
1265.19653	0.02680
1263.91076	0.02668
1262.62499	0.02658
1261.33922	0.02652
1260.05345	0.02646
1258.76768	0.02637
1257.48191	0.02624
1256.19614	0.02610
1254.91037	0.02599
1253.62461	0.02589
1252.33884	0.02577
1251.05307	0.02564
1249.76730	0.02550
1248.48153	0.02534
1247.19576	0.02517
1245.90999	0.02500
1244.62422	0.02486
1243.33846	0.02479
1242.05269	0.02477
1240.76692	0.02476
1239.48115	0.02471
1238.19538	0.02460
1236.90961	0.02445
1235.62384	0.02428
1234.33807	0.02411
1233.05230	0.02394
1231.76654	0.02377
1230.48077	0.02362
1229.19500	0.02350
1227.90923	0.02340
1226.62346	0.02330
1225.33769	0.02319
1224.05192	0.02307
1222.76615	0.02297
1221.48039	0.02289
1220.19462	0.02282
1218.90885	0.02273
1217.62308	0.02262
1216.33731	0.02251
1215.05154	0.02243
1213.76577	0.02237
1212.48000	0.02234
1211.19423	0.02230
1209.90847	0.02223
1208.62270	0.02214
1207.33693	0.02204
1206.05116	0.02194
1204.76539	0.02185
1203.47962	0.02176
1202.19385	0.02168
1200.90808	0.02170
1199.62232	0.02187
1198.33655	0.02189
1197.05078	0.02185
1195.76501	0.02174
1194.47924	0.02162
1193.19347	0.02151
1191.90770	0.02143
1190.62193	0.02137
1189.33616	0.02137
1188.05040	0.02142
1186.76463	0.02149
1185.47886	0.02151
1184.19309	0.02145
1182.90732	0.02137
1181.62155	0.02133
1180.33578	0.02137
1179.05001	0.02148
1177.76425	0.02158
1176.47848	0.02161
1175.19271	0.02157
1173.90694	0.02153
1172.62117	0.02159
1171.33540	0.02178
1170.04963	0.02205
1168.76386	0.02234
1167.47809	0.02261
1166.19233	0.02286
1164.90656	0.02305
1163.62079	0.02318
1162.33502	0.02330
1161.04925	0.02350
1159.76348	0.02380
1158.47771	0.02417
1157.19194	0.02452
1155.90618	0.02485
1154.62041	0.02520
1153.33464	0.02561
1152.04887	0.02608
1150.76310	0.02662
1149.47733	0.02721
1148.19156	0.02784
1146.90579	0.02854
1145.62002	0.02932
1144.33426	0.03021
1143.04849	0.03118
1141.76272	0.03222
1140.47695	0.03329
1139.19118	0.03441
1137.90541	0.03566
1136.61964	0.03711
1135.33387	0.03871
1134.04811	0.04040
1132.76234	0.04219
1131.47657	0.04416
1130.19080	0.04639
1128.90503	0.04887
1127.61926	0.05160
1126.33349	0.05463
1125.04772	0.05799
1123.76195	0.06165
1122.47619	0.06544
1121.19042	0.06925
1119.90465	0.07302
1118.61888	0.07684
1117.33311	0.08072
1116.04734	0.08467
1114.76157	0.08860
1113.47580	0.09246
1112.19004	0.09619
1110.90427	0.09977
1109.61850	0.10328
1108.33273	0.10679
1107.04696	0.11024
1105.76119	0.11355
1104.47542	0.11665
1103.18965	0.11960
1101.90388	0.12250
1100.61812	0.12539
1099.33235	0.12821
1098.04658	0.13089
1096.76081	0.13344
1095.47504	0.13591
1094.18927	0.13830
1092.90350	0.14055
1091.61773	0.14262
1090.33197	0.14455
1089.04620	0.14642
1087.76043	0.14828
1086.47466	0.15013
1085.18889	0.15195
1083.90312	0.15377
1082.61735	0.15567
1081.33158	0.15775
1080.04581	0.16002
1078.76005	0.16246
1077.47428	0.16499
1076.18851	0.16762
1074.90274	0.17036
1073.61697	0.17327
1072.33120	0.17636
1071.04543	0.17959
1069.75966	0.18294
1068.47390	0.18636
1067.18813	0.18986
1065.90236	0.19339
1064.61659	0.19690
1063.33082	0.20038
1062.04505	0.20387
1060.75928	0.20743
1059.47351	0.21106
1058.18774	0.21468
1056.90198	0.21818
1055.61621	0.22156
1054.33044	0.22488
1053.04467	0.22827
1051.75890	0.23174
1050.47313	0.23529
1049.18736	0.23888
1047.90159	0.24253
1046.61583	0.24626
1045.33006	0.25012
1044.04429	0.25412
1042.75852	0.25825
1041.47275	0.26246
1040.18698	0.26670
1038.90121	0.27090
1037.61544	0.27507
1036.32967	0.27921
1035.04391	0.28333
1033.75814	0.28738
1032.47237	0.29133
1031.18660	0.29514
1029.90083	0.29873
1028.61506	0.30195
1027.32929	0.30471
1026.04352	0.30705
1024.75775	0.30906
1023.47199	0.31077
1022.18622	0.31212
1020.90045	0.31303
1019.61468	0.31348
1018.32891	0.31346
1017.04314	0.31295
1015.75737	0.31194
1014.47160	0.31049
1013.18584	0.30860
1011.90007	0.30625
1010.61430	0.30337
1009.32853	0.29993
1008.04276	0.29600
1006.75699	0.29163
1005.47122	0.28688
1004.18545	0.28177
1002.89968	0.27629
1001.61392	0.27043
1000.32815	0.26420
999.04238	0.25768
997.75661	0.25096
996.47084	0.24407
995.18507	0.23700
993.89930	0.22977
992.61353	0.22244
991.32777	0.21512
990.04200	0.20786
988.75623	0.20074
987.47046	0.19384
986.18469	0.18717
984.89892	0.18071
983.61315	0.17445
982.32738	0.16848
981.04161	0.16287
979.75585	0.15767
978.47008	0.15286
977.18431	0.14838
975.89854	0.14419
974.61277	0.14030
973.32700	0.13686
972.04123	0.13401
970.75546	0.13188
969.46970	0.13050
968.18393	0.12985
966.89816	0.12988
965.61239	0.13052
964.32662	0.13157
963.04085	0.13269
961.75508	0.13352
960.46931	0.13373
959.18354	0.13322
957.89778	0.13197
956.61201	0.13007
955.32624	0.12762
954.04047	0.12477
952.75470	0.12172
951.46893	0.11862
950.18316	0.11554
948.89739	0.11249
947.61163	0.10948
946.32586	0.10652
945.04009	0.10362
943.75432	0.10083
942.46855	0.09820
941.18278	0.09578
939.89701	0.09354
938.61124	0.09134
937.32547	0.08913
936.03971	0.08694
934.75394	0.08487
933.46817	0.08299
932.18240	0.08126
930.89663	0.07965
929.61086	0.07815
928.32509	0.07676
927.03932	0.07548
925.75356	0.07428
924.46779	0.07317
923.18202	0.07210
921.89625	0.07108
920.61048	0.07012
919.32471	0.06925
918.03894	0.06847
916.75317	0.06772
915.46740	0.06698
914.18164	0.06624
912.89587	0.06553
911.61010	0.06486
910.32433	0.06420
909.03856	0.06351
907.75279	0.06276
906.46702	0.06202
905.18125	0.06137
903.89549	0.06087
902.60972	0.06044
901.32395	0.05997
900.03818	0.05943
898.75241	0.05890
897.46664	0.05842
896.18087	0.05800
894.89510	0.05764
893.60933	0.05740
892.32357	0.05730
891.03780	0.05733
889.75203	0.05748
888.46626	0.05783
887.18049	0.05858
885.89472	0.05998
884.60895	0.06226
883.32318	0.06540
882.03742	0.06906
880.75165	0.07265
879.46588	0.07564
878.18011	0.07787
876.89434	0.07959
875.60857	0.08121
874.32280	0.08286
873.03703	0.08430
871.75126	0.08505
870.46550	0.08481
869.17973	0.08359
867.89396	0.08161
866.60819	0.07912
865.32242	0.07635
864.03665	0.07349
862.75088	0.07070
861.46511	0.06815
860.17935	0.06591
858.89358	0.06394
857.60781	0.06218
856.32204	0.06063
855.03627	0.05934
853.75050	0.05834
852.46473	0.05757
851.17896	0.05694
849.89319	0.05634
848.60743	0.05572
847.32166	0.05506
846.03589	0.05441
844.75012	0.05383
843.46435	0.05332
842.17858	0.05286
840.89281	0.05241
839.60704	0.05196
838.32128	0.05153
837.03551	0.05114
835.74974	0.05080
834.46397	0.05049
833.17820	0.05018
831.89243	0.04984
830.60666	0.04949
829.32089	0.04921
828.03512	0.04905
826.74936	0.04900
825.46359	0.04895
824.17782	0.04885
822.89205	0.04868
821.60628	0.04847
820.32051	0.04826
819.03474	0.04813
817.74897	0.04815
816.46321	0.04826
815.17744	0.04832
813.89167	0.04818
812.60590	0.04784
811.32013	0.04744
810.03436	0.04712
808.74859	0.04693
807.46282	0.04683
806.17705	0.04673
804.89129	0.04660
803.60552	0.04645
802.31975	0.04634
801.03398	0.04625
799.74821	0.04614
798.46244	0.04600
797.17667	0.04588
795.89090	0.04588
794.60513	0.04599
793.31937	0.04607
792.03360	0.04602
790.74783	0.04586
789.46206	0.04569
788.17629	0.04558
786.89052	0.04550
785.60475	0.04538
784.31898	0.04516
783.03322	0.04492
781.74745	0.04473
780.46168	0.04468
779.17591	0.04471
777.89014	0.04475
776.60437	0.04472
775.31860	0.04463
774.03283	0.04451
772.74706	0.04436
771.46130	0.04420
770.17553	0.04409
768.88976	0.04408
767.60399	0.04415
766.31822	0.04420
765.03245	0.04416
763.74668	0.04409
762.46091	0.04408
761.17515	0.04414
759.88938	0.04423
758.60361	0.04426
757.31784	0.04423
756.03207	0.04420
754.74630	0.04423
753.46053	0.04434
752.17476	0.04448
750.88899	0.04459
749.60323	0.04461
748.31746	0.04454
747.03169	0.04443
745.74592	0.04432
744.46015	0.04418
743.17438	0.04403
741.88861	0.04389
740.60284	0.04373
739.31708	0.04348
738.03131	0.04312
736.74554	0.04277
735.45977	0.04252
734.17400	0.04245
732.88823	0.04254
731.60246	0.04273
730.31669	0.04290
729.03092	0.04297
727.74516	0.04292
726.45939	0.04282
725.17362	0.04274
723.88785	0.04273
722.60208	0.04267
721.31631	0.04255
720.03054	0.04243
718.74477	0.04235
717.45901	0.04224
716.17324	0.04211
714.88747	0.04197
713.60170	0.04184
712.31593	0.04175
711.03016	0.04170
709.74439	0.04165
708.45862	0.04157
707.17285	0.04145
705.88709	0.04132
704.60132	0.04121
703.31555	0.04114
702.02978	0.04110
700.74401	0.04106
699.45824	0.04098
698.17247	0.04085
696.88670	0.04071
695.60094	0.04058
694.31517	0.04051
693.02940	0.04049
691.74363	0.04051
690.45786	0.04054
689.17209	0.04052
687.88632	0.04041
686.60055	0.04022
685.31478	0.04003
684.02902	0.03990
682.74325	0.03982
681.45748	0.03973
680.17171	0.03959
678.88594	0.03942
677.60017	0.03928
676.31440	0.03922
675.02863	0.03924
673.74287	0.03933
672.45710	0.03958
671.17133	0.04017
669.88556	0.04074
668.59979	0.04015
667.31402	0.03991
666.02825	0.04064
664.74248	0.03995
663.45671	0.03922
662.17095	0.03885
660.88518	0.03858
659.59941	0.03833
658.31364	0.03813
657.02787	0.03800
655.74210	0.03790
654.45633	0.03785
653.17056	0.03783
651.88480	0.03785
650.59903	0.03787
649.31326	0.03790
648.02749	0.03800
646.74172	0.03814
645.45595	0.03829
644.17018	0.03841
642.88441	0.03849
641.59864	0.03858
640.31288	0.03870
639.02711	0.03887
637.74134	0.03911
636.45557	0.03946
635.16980	0.03993
633.88403	0.04052
632.59826	0.04123
631.31249	0.04183
630.02673	0.04172
628.74096	0.04132
627.45519	0.04307
626.16942	0.04268
624.88365	0.04097
623.59788	0.03971
622.31211	0.03976
621.02634	0.04167
619.74057	0.04585
618.45481	0.05220
617.16904	0.05975
615.88327	0.06682
614.59750	0.07180
613.31173	0.07447
612.02596	0.07641
610.74019	0.07973
609.45442	0.08499
608.16866	0.09089
606.88289	0.09621
605.59712	0.10082
604.31135	0.10500
603.02558	0.10859
601.73981	0.11112
600.45404	0.11218
599.16827	0.11168
597.88250	0.10982
596.59674	0.10706
595.31097	0.10405
594.02520	0.10129
592.73943	0.09903
591.45366	0.09724
590.16789	0.09586
588.88212	0.09501
587.59635	0.09489
586.31059	0.09562
585.02482	0.09704
583.73905	0.09892
582.45328	0.10110
581.16751	0.10359
579.88174	0.10636
578.59597	0.10931
577.31020	0.11233
576.02443	0.11535
574.73867	0.11829
573.45290	0.12103
572.16713	0.12348
570.88136	0.12582
569.59559	0.12849
568.30982	0.13197
567.02405	0.13634
565.73828	0.14119
564.45251	0.14582
563.16675	0.14955
561.88098	0.15182
560.59521	0.15234
559.30944	0.15106
558.02367	0.14810
556.73790	0.14369
555.45213	0.13822
554.16636	0.13218
552.88060	0.12595
551.59483	0.11976
550.30906	0.11379
549.02329	0.10819
547.73752	0.10308
546.45175	0.09845
545.16598	0.09423
543.88021	0.09040
542.59444	0.08693
541.30868	0.08379
540.02291	0.08087
538.73714	0.07813
537.45137	0.07556
536.16560	0.07318
534.87983	0.07097
533.59406	0.06892
532.30829	0.06701
531.02253	0.06521
529.73676	0.06351
528.45099	0.06188
527.16522	0.06033
525.87945	0.05882
524.59368	0.05734
523.30791	0.05588
522.02214	0.05445
520.73637	0.05312
519.45061	0.05193
518.16484	0.05091
516.87907	0.05002
515.59330	0.04915
514.30753	0.04825
513.02176	0.04732
511.73599	0.04644
510.45022	0.04564
509.16446	0.04490
507.87869	0.04417
506.59292	0.04341
505.30715	0.04263
504.02138	0.04188
502.73561	0.04121
501.44984	0.04068
500.16407	0.04026
498.87830	0.03990
497.59254	0.03951
496.30677	0.03904
495.02100	0.03852
493.73523	0.03802
492.44946	0.03758
491.16369	0.03719
489.87792	0.03682
488.59215	0.03645
487.30639	0.03614
486.02062	0.03597
484.73485	0.03596
483.44908	0.03605
482.16331	0.03620
480.87754	0.03636
479.59177	0.03652
478.30600	0.03666
477.02023	0.03678
475.73447	0.03689
474.44870	0.03700
473.16293	0.03712
471.87716	0.03722
470.59139	0.03729
469.30562	0.03728
468.01985	0.03719
466.73408	0.03701
465.44832	0.03674
464.16255	0.03637
462.87678	0.03593
461.59101	0.03547
460.30524	0.03506
459.01947	0.03470
457.73370	0.03438
456.44793	0.03406
455.16216	0.03375
453.87640	0.03345
452.59063	0.03314
451.30486	0.03282
450.01909	0.03251
448.73332	0.03227
447.44755	0.03213
446.16178	0.03203
444.87601	0.03192
443.59025	0.03174
442.30448	0.03152
441.01871	0.03128
439.73294	0.03104
438.44717	0.03083
437.16140	0.03068
435.87563	0.03061
434.58986	0.03062
433.30409	0.03069
432.01833	0.03074
430.73256	0.03071
429.44679	0.03061
428.16102	0.03047
426.87525	0.03031
425.58948	0.03013
424.30371	0.02992
423.01794	0.02971
421.73218	0.02954
420.44641	0.02947
419.16064	0.02944
417.87487	0.02940
416.58910	0.02934
415.30333	0.02927
414.01756	0.02920
412.73179	0.02913
411.44602	0.02907
410.16026	0.02906
408.87449	0.02907
407.58872	0.02908
406.30295	0.02908
405.01718	0.02911
403.73141	0.02917
402.44564	0.02929
401.15987	0.02945
399.87411	0.02964
