3997.45528 0.03558
3996.16951 0.03625
3994.88374 0.03719
3993.59798 0.03752
3992.31221 0.03683
3991.02644 0.03571
3989.74067 0.03513
3988.45490 0.03563
3987.16913 0.03682
3985.88336 0.03767
3984.59759 0.03751
3983.31183 0.03666
3982.02606 0.03602
3980.74029 0.03599
3979.45452 0.03619
3978.16875 0.03612
3976.88298 0.03576
3975.59721 0.03532
3974.31144 0.03489
3973.02567 0.03444
3971.73991 0.03421
3970.45414 0.03453
3969.16837 0.03527
3967.88260 0.03583
3966.59683 0.03572
3965.31106 0.03518
3964.02529 0.03492
3962.73952 0.03535
3961.45376 0.03617
3960.16799 0.03686
3958.88222 0.03725
3957.59645 0.03753
3956.31068 0.03755
3955.02491 0.03674
3953.73914 0.03487
3952.45337 0.03280
3951.16760 0.03199
3949.88184 0.03318
3948.59607 0.03569
3947.31030 0.03796
3946.02453 0.03874
3944.73876 0.03795
3943.45299 0.03651
3942.16722 0.03548
3940.88145 0.03523
3939.59569 0.03539
3938.30992 0.03552
3937.02415 0.03551
3935.73838 0.03552
3934.45261 0.03566
3933.16684 0.03595
3931.88107 0.03629
3930.59530 0.03656
3929.30953 0.03662
3928.02377 0.03638
3926.73800 0.03581
3925.45223 0.03508
3924.16646 0.03453
3922.88069 0.03438
3921.59492 0.03459
3920.30915 0.03507
3919.02338 0.03584
3917.73762 0.03680
3916.45185 0.03760
3915.16608 0.03790
3913.88031 0.03778
3912.59454 0.03760
3911.30877 0.03753
3910.02300 0.03745
3908.73723 0.03735
3907.45146 0.03748
3906.16570 0.03799
3904.87993 0.03854
3903.59416 0.03850
3902.30839 0.03752
3901.02262 0.03586
3899.73685 0.03433
3898.45108 0.03362
3897.16531 0.03387
3895.87955 0.03462
3894.59378 0.03525
3893.30801 0.03547
3892.02224 0.03536
3890.73647 0.03517
3889.45070 0.03505
3888.16493 0.03503
3886.87916 0.03508
3885.59339 0.03512
3884.30763 0.03486
3883.02186 0.03412
3881.73609 0.03324
3880.45032 0.03290
3879.16455 0.03348
3877.87878 0.03465
3876.59301 0.03575
3875.30724 0.03637
3874.02148 0.03644
3872.73571 0.03597
3871.44994 0.03512
3870.16417 0.03437
3868.87840 0.03424
3867.59263 0.03473
3866.30686 0.03543
3865.02109 0.03588
3863.73532 0.03582
3862.44956 0.03515
3861.16379 0.03404
3859.87802 0.03302
3858.59225 0.03266
3857.30648 0.03316
3856.02071 0.03413
3854.73494 0.03499
3853.44917 0.03553
3852.16341 0.03600
3850.87764 0.03662
3849.59187 0.03722
3848.30610 0.03740
3847.02033 0.03687
3845.73456 0.03580
3844.44879 0.03468
3843.16302 0.03408
3841.87725 0.03423
3840.59149 0.03485
3839.30572 0.03548
3838.01995 0.03577
3836.73418 0.03574
3835.44841 0.03558
3834.16264 0.03539
3832.87687 0.03514
3831.59110 0.03469
3830.30534 0.03394
3829.01957 0.03295
3827.73380 0.03205
3826.44803 0.03172
3825.16226 0.03221
3823.87649 0.03328
3822.59072 0.03442
3821.30495 0.03523
3820.01918 0.03556
3818.73342 0.03541
3817.44765 0.03503
3816.16188 0.03490
3814.87611 0.03511
3813.59034 0.03529
3812.30457 0.03527
3811.01880 0.03533
3809.73303 0.03561
3808.44726 0.03579
3807.16150 0.03559
3805.87573 0.03519
3804.58996 0.03485
3803.30419 0.03470
3802.01842 0.03471
3800.73265 0.03467
3799.44688 0.03414
3798.16111 0.03292
3796.87535 0.03143
3795.58958 0.03034
3794.30381 0.02999
3793.01804 0.03040
3791.73227 0.03147
3790.44650 0.03300
3789.16073 0.03454
3787.87496 0.03562
3786.58919 0.03590
3785.30343 0.03527
3784.01766 0.03388
3782.73189 0.03225
3781.44612 0.03107
3780.16035 0.03084
3778.87458 0.03160
3777.58881 0.03289
3776.30304 0.03407
3775.01728 0.03471
3773.73151 0.03490
3772.44574 0.03496
3771.15997 0.03510
3769.87420 0.03521
3768.58843 0.03505
3767.30266 0.03460
3766.01689 0.03414
3764.73112 0.03393
3763.44536 0.03401
3762.15959 0.03419
3760.87382 0.03437
3759.58805 0.03441
3758.30228 0.03425
3757.01651 0.03401
3755.73074 0.03383
3754.44497 0.03364
3753.15921 0.03330
3751.87344 0.03278
3750.58767 0.03230
3749.30190 0.03223
3748.01613 0.03261
3746.73036 0.03307
3745.44459 0.03338
3744.15882 0.03376
3742.87305 0.03429
3741.58729 0.03463
3740.30152 0.03453
3739.01575 0.03408
3737.72998 0.03340
3736.44421 0.03257
3735.15844 0.03162
3733.87267 0.03056
3732.58690 0.02960
3731.30114 0.02912
3730.01537 0.02929
3728.72960 0.02980
3727.44383 0.03023
3726.15806 0.03041
3724.87229 0.03035
3723.58652 0.03006
3722.30075 0.02960
3721.01498 0.02919
3719.72922 0.02918
3718.44345 0.02984
3717.15768 0.03100
3715.87191 0.03207
3714.58614 0.03249
3713.30037 0.03232
3712.01460 0.03212
3710.72883 0.03236
3709.44307 0.03297
3708.15730 0.03351
3706.87153 0.03370
3705.58576 0.03363
3704.29999 0.03364
3703.01422 0.03401
3701.72845 0.03462
3700.44268 0.03497
3699.15691 0.03448
3697.87115 0.03310
3696.58538 0.03147
3695.29961 0.03047
3694.01384 0.03046
3692.72807 0.03094
3691.44230 0.03109
3690.15653 0.03034
3688.87076 0.02887
3687.58500 0.02750
3686.29923 0.02708
3685.01346 0.02771
3683.72769 0.02892
3682.44192 0.03012
3681.15615 0.03107
3679.87038 0.03189
3678.58461 0.03255
3677.29884 0.03272
3676.01308 0.03241
3674.72731 0.03199
3673.44154 0.03172
3672.15577 0.03150
3670.87000 0.03127
3669.58423 0.03122
3668.29846 0.03137
3667.01269 0.03148
3665.72693 0.03129
3664.44116 0.03087
3663.15539 0.03060
3661.86962 0.03093
3660.58385 0.03193
3659.29808 0.03314
3658.01231 0.03390
3656.72654 0.03396
3655.44077 0.03362
3654.15501 0.03335
3652.86924 0.03328
3651.58347 0.03317
3650.29770 0.03276
3649.01193 0.03209
3647.72616 0.03152
3646.44039 0.03142
3645.15462 0.03191
3643.86886 0.03280
3642.58309 0.03373
3641.29732 0.03444
3640.01155 0.03493
3638.72578 0.03531
3637.44001 0.03555
3636.15424 0.03540
3634.86847 0.03474
3633.58270 0.03383
3632.29694 0.03320
3631.01117 0.03315
3629.72540 0.03355
3628.43963 0.03399
3627.15386 0.03409
3625.86809 0.03377
3624.58232 0.03326
3623.29655 0.03277
3622.01079 0.03235
3620.72502 0.03210
3619.43925 0.03223
3618.15348 0.03285
3616.86771 0.03379
3615.58194 0.03470
3614.29617 0.03536
3613.01040 0.03578
3611.72463 0.03607
3610.43887 0.03624
3609.15310 0.03621
3607.86733 0.03600
3606.58156 0.03579
3605.29579 0.03584
3604.01002 0.03630
3602.72425 0.03712
3601.43848 0.03806
3600.15272 0.03883
3598.86695 0.03932
3597.58118 0.03948
3596.29541 0.03931
3595.00964 0.03895
3593.72387 0.03866
3592.43810 0.03852
3591.15233 0.03848
3589.86656 0.03860
3588.58080 0.03895
3587.29503 0.03930
3586.00926 0.03918
3584.72349 0.03834
3583.43772 0.03696
3582.15195 0.03556
3580.86618 0.03475
3579.58041 0.03494
3578.29464 0.03611
3577.00888 0.03775
3575.72311 0.03914
3574.43734 0.03995
3573.15157 0.04032
3571.86580 0.04061
3570.58003 0.04093
3569.29426 0.04118
3568.00849 0.04135
3566.72273 0.04150
3565.43696 0.04156
3564.15119 0.04119
3562.86542 0.04025
3561.57965 0.03916
3560.29388 0.03878
3559.00811 0.03971
3557.72234 0.04174
3556.43657 0.04393
3555.15081 0.04523
3553.86504 0.04523
3552.57927 0.04432
3551.29350 0.04327
3550.00773 0.04271
3548.72196 0.04275
3547.43619 0.04308
3546.15042 0.04331
3544.86466 0.04342
3543.57889 0.04374
3542.29312 0.04441
3541.00735 0.04505
3539.72158 0.04502
3538.43581 0.04425
3537.15004 0.04330
3535.86427 0.04271
3534.57850 0.04253
3533.29274 0.04255
3532.00697 0.04275
3530.72120 0.04326
3529.43543 0.04406
3528.14966 0.04486
3526.86389 0.04540
3525.57812 0.04572
3524.29235 0.04604
3523.00659 0.04649
3521.72082 0.04696
3520.43505 0.04722
3519.14928 0.04723
3517.86351 0.04723
3516.57774 0.04748
3515.29197 0.04803
3514.00620 0.04865
3512.72043 0.04913
3511.43467 0.04938
3510.14890 0.04951
3508.86313 0.04961
3507.57736 0.04970
3506.29159 0.04973
3505.00582 0.04968
3503.72005 0.04960
3502.43428 0.04952
3501.14852 0.04942
3499.86275 0.04935
3498.57698 0.04938
3497.29121 0.04956
3496.00544 0.04973
3494.71967 0.04970
3493.43390 0.04951
3492.14813 0.04940
3490.86236 0.04954
3489.57660 0.04991
3488.29083 0.05049
3487.00506 0.05141
3485.71929 0.05269
3484.43352 0.05402
3483.14775 0.05490
3481.86198 0.05509
3480.57621 0.05473
3479.29045 0.05411
3478.00468 0.05343
3476.71891 0.05283
3475.43314 0.05242
3474.14737 0.05231
3472.86160 0.05262
3471.57583 0.05334
3470.29006 0.05425
3469.00429 0.05489
3467.71853 0.05490
3466.43276 0.05431
3465.14699 0.05353
3463.86122 0.05292
3462.57545 0.05263
3461.28968 0.05252
3460.00391 0.05239
3458.71814 0.05213
3457.43238 0.05188
3456.14661 0.05196
3454.86084 0.05255
3453.57507 0.05342
3452.28930 0.05416
3451.00353 0.05457
3449.71776 0.05472
3448.43199 0.05472
3447.14622 0.05464
3445.86046 0.05463
3444.57469 0.05492
3443.28892 0.05559
3442.00315 0.05646
3440.71738 0.05719
3439.43161 0.05750
3438.14584 0.05734
3436.86007 0.05688
3435.57431 0.05625
3434.28854 0.05546
3433.00277 0.05461
3431.71700 0.05411
3430.43123 0.05444
3429.14546 0.05552
3427.85969 0.05666
3426.57392 0.05715
3425.28815 0.05692
3424.00239 0.05652
3422.71662 0.05647
3421.43085 0.05682
3420.14508 0.05719
3418.85931 0.05733
3417.57354 0.05741
3416.28777 0.05772
3415.00200 0.05832
3413.71624 0.05891
3412.43047 0.05910
3411.14470 0.05871
3409.85893 0.05802
3408.57316 0.05752
3407.28739 0.05762
3406.00162 0.05827
3404.71585 0.05906
3403.43008 0.05959
3402.14432 0.05989
3400.85855 0.06024
3399.57278 0.06035
3398.28701 0.06019
3397.00124 0.06020
3395.71547 0.06022
3394.42970 0.06008
3393.14393 0.05986
3391.85817 0.05977
3390.57240 0.06003
3389.28663 0.06061
3388.00086 0.06125
3386.71509 0.06175
3385.42932 0.06220
3384.14355 0.06276
3382.85778 0.06325
3381.57201 0.06325
3380.28625 0.06262
3379.00048 0.06169
3377.71471 0.06098
3376.42894 0.06079
3375.14317 0.06104
3373.85740 0.06147
3372.57163 0.06184
3371.28586 0.06201
3370.00010 0.06189
3368.71433 0.06155
3367.42856 0.06122
3366.14279 0.06110
3364.85702 0.06118
3363.57125 0.06121
3362.28548 0.06110
3360.99971 0.06104
3359.71394 0.06126
3358.42818 0.06171
3357.14241 0.06221
3355.85664 0.06265
3354.57087 0.06299
3353.28510 0.06322
3351.99933 0.06333
3350.71356 0.06342
3349.42779 0.06353
3348.14202 0.06351
3346.85626 0.06325
3345.57049 0.06298
3344.28472 0.06311
3342.99895 0.06377
3341.71318 0.06458
3340.42741 0.06498
3339.14164 0.06481
3337.85587 0.06436
3336.57011 0.06406
3335.28434 0.06418
3333.99857 0.06471
3332.71280 0.06543
3331.42703 0.06595
3330.14126 0.06595
3328.85549 0.06539
3327.56972 0.06454
3326.28395 0.06375
3324.99819 0.06334
3323.71242 0.06347
3322.42665 0.06407
3321.14088 0.06490
3319.85511 0.06565
3318.56934 0.06610
3317.28357 0.06624
3315.99780 0.06634
3314.71204 0.06671
3313.42627 0.06739
3312.14050 0.06799
3310.85473 0.06812
3309.56896 0.06789
3308.28319 0.06771
3306.99742 0.06771
3305.71165 0.06758
3304.42588 0.06714
3303.14012 0.06663
3301.85435 0.06648
3300.56858 0.06682
3299.28281 0.06732
3297.99704 0.06752
3296.71127 0.06719
3295.42550 0.06647
3294.13973 0.06580
3292.85397 0.06556
3291.56820 0.06590
3290.28243 0.06668
3288.99666 0.06759
3287.71089 0.06834
3286.42512 0.06871
3285.13935 0.06873
3283.85358 0.06864
3282.56781 0.06867
3281.28205 0.06883
3279.99628 0.06890
3278.71051 0.06879
3277.42474 0.06857
3276.13897 0.06838
3274.85320 0.06828
3273.56743 0.06822
3272.28166 0.06805
3270.99590 0.06770
3269.71013 0.06731
3268.42436 0.06718
3267.13859 0.06747
3265.85282 0.06808
3264.56705 0.06872
3263.28128 0.06914
3261.99551 0.06925
3260.70974 0.06905
3259.42398 0.06861
3258.13821 0.06798
3256.85244 0.06734
3255.56667 0.06689
3254.28090 0.06675
3252.99513 0.06677
3251.70936 0.06668
3250.42359 0.06643
3249.13783 0.06616
3247.85206 0.06609
3246.56629 0.06622
3245.28052 0.06635
3243.99475 0.06624
3242.70898 0.06585
3241.42321 0.06534
3240.13744 0.06501
3238.85167 0.06501
3237.56591 0.06522
3236.28014 0.06530
3234.99437 0.06500
3233.70860 0.06439
3232.42283 0.06379
3231.13706 0.06351
3229.85129 0.06362
3228.56552 0.06381
3227.27976 0.06369
3225.99399 0.06315
3224.70822 0.06246
3223.42245 0.06197
3222.13668 0.06178
3220.85091 0.06183
3219.56514 0.06200
3218.27937 0.06220
3216.99360 0.06236
3215.70784 0.06252
3214.42207 0.06284
3213.13630 0.06332
3211.85053 0.06377
3210.56476 0.06393
3209.27899 0.06378
3207.99322 0.06346
3206.70745 0.06313
3205.42169 0.06285
3204.13592 0.06263
3202.85015 0.06258
3201.56438 0.06273
3200.27861 0.06290
3198.99284 0.06279
3197.70707 0.06226
3196.42130 0.06157
3195.13553 0.06109
3193.84977 0.06093
3192.56400 0.06096
3191.27823 0.06107
3189.99246 0.06129
3188.70669 0.06167
3187.42092 0.06204
3186.13515 0.06213
3184.84938 0.06189
3183.56362 0.06156
3182.27785 0.06148
3180.99208 0.06166
3179.70631 0.06178
3178.42054 0.06145
3177.13477 0.06069
3175.84900 0.05990
3174.56323 0.05947
3173.27746 0.05943
3171.99170 0.05947
3170.70593 0.05933
3169.42016 0.05903
3168.13439 0.05876
3166.84862 0.05863
3165.56285 0.05864
3164.27708 0.05871
3162.99131 0.05874
3161.70555 0.05869
3160.41978 0.05858
3159.13401 0.05842
3157.84824 0.05819
3156.56247 0.05784
3155.27670 0.05744
3153.99093 0.05706
3152.70516 0.05676
3151.41939 0.05652
3150.13363 0.05631
3148.84786 0.05616
3147.56209 0.05616
3146.27632 0.05646
3144.99055 0.05710
3143.70478 0.05792
3142.41901 0.05856
3141.13324 0.05875
3139.84748 0.05852
3138.56171 0.05810
3137.27594 0.05768
3135.99017 0.05725
3134.70440 0.05676
3133.41863 0.05632
3132.13286 0.05612
3130.84709 0.05613
3129.56132 0.05612
3128.27556 0.05586
3126.98979 0.05541
3125.70402 0.05502
3124.41825 0.05485
3123.13248 0.05484
3121.84671 0.05482
3120.56094 0.05481
3119.27517 0.05494
3117.98940 0.05528
3116.70364 0.05563
3115.41787 0.05577
3114.13210 0.05564
3112.84633 0.05545
3111.56056 0.05540
3110.27479 0.05555
3108.98902 0.05578
3107.70325 0.05590
3106.41749 0.05572
3105.13172 0.05519
3103.84595 0.05453
3102.56018 0.05421
3101.27441 0.05448
3099.98864 0.05513
3098.70287 0.05571
3097.41710 0.05586
3096.13133 0.05558
3094.84557 0.05518
3093.55980 0.05503
3092.27403 0.05523
3090.98826 0.05559
3089.70249 0.05582
3088.41672 0.05580
3087.13095 0.05560
3085.84518 0.05533
3084.55942 0.05503
3083.27365 0.05477
3081.98788 0.05460
3080.70211 0.05462
3079.41634 0.05486
3078.13057 0.05533
3076.84480 0.05591
3075.55903 0.05640
3074.27326 0.05659
3072.98750 0.05641
3071.70173 0.05597
3070.41596 0.05547
3069.13019 0.05506
3067.84442 0.05478
3066.55865 0.05465
3065.27288 0.05475
3063.98711 0.05507
3062.70135 0.05540
3061.41558 0.05549
3060.12981 0.05531
3058.84404 0.05503
3057.55827 0.05481
3056.27250 0.05468
3054.98673 0.05462
3053.70096 0.05452
3052.41519 0.05432
3051.12943 0.05397
3049.84366 0.05356
3048.55789 0.05315
3047.27212 0.05278
3045.98635 0.05240
3044.70058 0.05202
3043.41481 0.05171
3042.12904 0.05160
3040.84328 0.05177
3039.55751 0.05214
3038.27174 0.05253
3036.98597 0.05282
3035.70020 0.05296
3034.41443 0.05296
3033.12866 0.05277
3031.84289 0.05241
3030.55712 0.05200
3029.27136 0.05174
3027.98559 0.05169
3026.69982 0.05171
3025.41405 0.05165
3024.12828 0.05149
3022.84251 0.05133
3021.55674 0.05125
3020.27097 0.05124
3018.98521 0.05127
3017.69944 0.05131
3016.41367 0.05130
3015.12790 0.05123
3013.84213 0.05116
3012.55636 0.05116
3011.27059 0.05118
3009.98482 0.05110
3008.69905 0.05082
3007.41329 0.05042
3006.12752 0.04998
3004.84175 0.04961
3003.55598 0.04942
3002.27021 0.04961
3000.98444 0.05000
2999.69867 0.04983
2998.41290 0.04976
2997.12714 0.04965
2995.84137 0.04978
2994.55560 0.05022
2993.26983 0.05064
2991.98406 0.05073
2990.69829 0.05047
2989.41252 0.05005
2988.12675 0.04961
2986.84098 0.04929
2985.55522 0.04927
2984.26945 0.04967
2982.98368 0.05033
2981.69791 0.05090
2980.41214 0.05116
2979.12637 0.05114
2977.84060 0.05099
2976.55483 0.05082
2975.26907 0.05068
2973.98330 0.05064
2972.69753 0.05086
2971.41176 0.05146
2970.12599 0.05232
2968.84022 0.05311
2967.55445 0.05359
2966.26868 0.05386
2964.98291 0.05420
2963.69715 0.05477
2962.41138 0.05545
2961.12561 0.05609
2959.83984 0.05665
2958.55407 0.05716
2957.26830 0.05759
2955.98253 0.05791
2954.69676 0.05812
2953.41100 0.05833
2952.12523 0.05867
2950.83946 0.05917
2949.55369 0.05966
2948.26792 0.05987
2946.98215 0.05963
2945.69638 0.05901
2944.41061 0.05825
2943.12484 0.05764
2941.83908 0.05739
2940.55331 0.05763
2939.26754 0.05826
2937.98177 0.05896
2936.69600 0.05940
2935.41023 0.05956
2934.12446 0.05971
2932.83869 0.06010
2931.55293 0.06068
2930.26716 0.06120
2928.98139 0.06149
2927.69562 0.06163
2926.40985 0.06175
2925.12408 0.06184
2923.83831 0.06185
2922.55254 0.06178
2921.26677 0.06168
2919.98101 0.06154
2918.69524 0.06125
2917.40947 0.06080
2916.12370 0.06031
2914.83793 0.05988
2913.55216 0.05951
2912.26639 0.05915
2910.98062 0.05888
2909.69486 0.05882
2908.40909 0.05889
2907.12332 0.05887
2905.83755 0.05862
2904.55178 0.05819
2903.26601 0.05775
2901.98024 0.05740
2900.69447 0.05712
2899.40870 0.05683
2898.12294 0.05647
2896.83717 0.05599
2895.55140 0.05543
2894.26563 0.05492
2892.97986 0.05456
2891.69409 0.05437
2890.40832 0.05419
2889.12255 0.05388
2887.83678 0.05344
2886.55102 0.05304
2885.26525 0.05279
2883.97948 0.05270
2882.69371 0.05268
2881.40794 0.05267
2880.12217 0.05261
2878.83640 0.05247
2877.55063 0.05230
2876.26487 0.05228
2874.97910 0.05248
2873.69333 0.05276
2872.40756 0.05295
2871.12179 0.05307
2869.83602 0.05323
2868.55025 0.05337
2867.26448 0.05333
2865.97871 0.05310
2864.69295 0.05287
2863.40718 0.05276
2862.12141 0.05271
2860.83564 0.05264
2859.54987 0.05256
2858.26410 0.05245
2856.97833 0.05227
2855.69256 0.05202
2854.40680 0.05184
2853.12103 0.05180
2851.83526 0.05185
2850.54949 0.05183
2849.26372 0.05167
2847.97795 0.05144
2846.69218 0.05114
2845.40641 0.05076
2844.12064 0.05031
2842.83488 0.04991
2841.54911 0.04958
2840.26334 0.04917
2838.97757 0.04855
2837.69180 0.04775
2836.40603 0.04689
2835.12026 0.04615
2833.83449 0.04565
2832.54873 0.04543
2831.26296 0.04539
2829.97719 0.04535
2828.69142 0.04523
2827.40565 0.04510
2826.11988 0.04493
2824.83411 0.04465
2823.54834 0.04425
2822.26257 0.04394
2820.97681 0.04389
2819.69104 0.04397
2818.40527 0.04399
2817.11950 0.04390
2815.83373 0.04381
2814.54796 0.04376
2813.26219 0.04364
2811.97642 0.04337
2810.69066 0.04304
2809.40489 0.04275
2808.11912 0.04256
2806.83335 0.04247
2805.54758 0.04244
2804.26181 0.04238
2802.97604 0.04224
2801.69027 0.04211
2800.40450 0.04212
2799.11874 0.04229
2797.83297 0.04246
2796.54720 0.04244
2795.26143 0.04221
2793.97566 0.04190
2792.68989 0.04165
2791.40412 0.04148
2790.11835 0.04140
2788.83259 0.04141
2787.54682 0.04145
2786.26105 0.04144
2784.97528 0.04139
2783.68951 0.04134
2782.40374 0.04134
2781.11797 0.04135
2779.83220 0.04137
2778.54643 0.04139
2777.26067 0.04135
2775.97490 0.04126
2774.68913 0.04112
2773.40336 0.04100
2772.11759 0.04093
2770.83182 0.04092
2769.54605 0.04094
2768.26028 0.04091
2766.97452 0.04076
2765.68875 0.04056
2764.40298 0.04038
2763.11721 0.04023
2761.83144 0.04006
2760.54567 0.03987
2759.25990 0.03968
2757.97413 0.03950
2756.68836 0.03938
2755.40260 0.03939
2754.11683 0.03956
2752.83106 0.03977
2751.54529 0.03985
2750.25952 0.03974
2748.97375 0.03958
2747.68798 0.03947
2746.40221 0.03934
2745.11645 0.03908
2743.83068 0.03878
2742.54491 0.03860
2741.25914 0.03858
2739.97337 0.03858
2738.68760 0.03850
2737.40183 0.03845
2736.11606 0.03853
2734.83029 0.03871
2733.54453 0.03882
2732.25876 0.03875
2730.97299 0.03856
2729.68722 0.03834
2728.40145 0.03815
2727.11568 0.03800
2725.82991 0.03787
2724.54414 0.03778
2723.25838 0.03774
2721.97261 0.03776
2720.68684 0.03785
2719.40107 0.03794
2718.11530 0.03799
2716.82953 0.03799
2715.54376 0.03794
2714.25799 0.03789
2712.97222 0.03786
2711.68646 0.03784
2710.40069 0.03775
2709.11492 0.03757
2707.82915 0.03738
2706.54338 0.03728
2705.25761 0.03731
2703.97184 0.03743
2702.68607 0.03753
2701.40031 0.03753
2700.11454 0.03735
2698.82877 0.03704
2697.54300 0.03675
2696.25723 0.03661
2694.97146 0.03663
2693.68569 0.03666
2692.39992 0.03651
2691.11415 0.03624
2689.82839 0.03608
2688.54262 0.03623
2687.25685 0.03655
2685.97108 0.03671
2684.68531 0.03655
2683.39954 0.03627
2682.11377 0.03615
2680.82800 0.03627
2679.54224 0.03645
2678.25647 0.03652
2676.97070 0.03643
2675.68493 0.03627
2674.39916 0.03613
2673.11339 0.03604
2671.82762 0.03596
2670.54185 0.03585
2669.25608 0.03571
2667.97032 0.03560
2666.68455 0.03551
2665.39878 0.03547
2664.11301 0.03557
2662.82724 0.03584
2661.54147 0.03615
2660.25570 0.03629
2658.96993 0.03620
2657.68417 0.03603
2656.39840 0.03602
2655.11263 0.03624
2653.82686 0.03659
2652.54109 0.03686
2651.25532 0.03682
2649.96955 0.03636
2648.68378 0.03556
2647.39801 0.03472
2646.11225 0.03414
2644.82648 0.03400
2643.54071 0.03421
2642.25494 0.03457
2640.96917 0.03481
2639.68340 0.03482
2638.39763 0.03463
2637.11186 0.03434
2635.82609 0.03401
2634.54033 0.03367
2633.25456 0.03343
2631.96879 0.03344
2630.68302 0.03378
2629.39725 0.03431
2628.11148 0.03477
2626.82571 0.03491
2625.53994 0.03463
2624.25418 0.03407
2622.96841 0.03353
2621.68264 0.03319
2620.39687 0.03301
2619.11110 0.03284
2617.82533 0.03261
2616.53956 0.03240
2615.25379 0.03235
2613.96802 0.03251
2612.68226 0.03273
2611.39649 0.03280
2610.11072 0.03264
2608.82495 0.03236
2607.53918 0.03210
2606.25341 0.03189
2604.96764 0.03172
2603.68187 0.03162
2602.39611 0.03158
2601.11034 0.03153
2599.82457 0.03133
2598.53880 0.03088
2597.25303 0.03020
2595.96726 0.02949
2594.68149 0.02903
2593.39572 0.02890
2592.10995 0.02896
2590.82419 0.02905
2589.53842 0.02914
2588.25265 0.02932
2586.96688 0.02958
2585.68111 0.02988
2584.39534 0.03012
2583.10957 0.03027
2581.82380 0.03030
2580.53804 0.03019
2579.25227 0.02996
2577.96650 0.02974
2576.68073 0.02965
2575.39496 0.02976
2574.10919 0.02995
2572.82342 0.03011
2571.53765 0.03017
2570.25188 0.03023
2568.96612 0.03038
2567.68035 0.03064
2566.39458 0.03083
2565.10881 0.03068
2563.82304 0.03008
2562.53727 0.02921
2561.25150 0.02846
2559.96573 0.02808
2558.67997 0.02801
2557.39420 0.02795
2556.10843 0.02771
2554.82266 0.02740
2553.53689 0.02726
2552.25112 0.02733
2550.96535 0.02739
2549.67958 0.02727
2548.39381 0.02707
2547.10805 0.02701
2545.82228 0.02715
2544.53651 0.02731
2543.25074 0.02732
2541.96497 0.02726
2540.67920 0.02729
2539.39343 0.02743
2538.10766 0.02757
2536.82190 0.02762
2535.53613 0.02761
2534.25036 0.02759
2532.96459 0.02755
2531.67882 0.02745
2530.39305 0.02725
2529.10728 0.02695
2527.82151 0.02671
2526.53574 0.02675
2525.24998 0.02719
2523.96421 0.02786
2522.67844 0.02846
2521.39267 0.02874
2520.10690 0.02862
2518.82113 0.02811
2517.53536 0.02732
2516.24959 0.02644
2514.96383 0.02573
2513.67806 0.02535
2512.39229 0.02533
2511.10652 0.02565
2509.82075 0.02626
2508.53498 0.02698
2507.24921 0.02752
2505.96344 0.02763
2504.67767 0.02726
2503.39191 0.02661
2502.10614 0.02594
2500.82037 0.02545
2499.53460 0.02526
2498.24883 0.02546
2496.96306 0.02602
2495.67729 0.02672
2494.39152 0.02723
2493.10576 0.02735
2491.81999 0.02719
2490.53422 0.02696
2489.24845 0.02682
2487.96268 0.02680
2486.67691 0.02690
2485.39114 0.02709
2484.10537 0.02726
2482.81960 0.02732
2481.53384 0.02723
2480.24807 0.02700
2478.96230 0.02677
2477.67653 0.02669
2476.39076 0.02681
2475.10499 0.02688
2473.81922 0.02662
2472.53345 0.02599
2471.24769 0.02527
2469.96192 0.02477
2468.67615 0.02461
2467.39038 0.02478
2466.10461 0.02522
2464.81884 0.02577
2463.53307 0.02616
2462.24730 0.02615
2460.96153 0.02581
2459.67577 0.02545
2458.39000 0.02538
2457.10423 0.02559
2455.81846 0.02583
2454.53269 0.02587
2453.24692 0.02573
2451.96115 0.02567
2450.67538 0.02594
2449.38962 0.02655
2448.10385 0.02721
2446.81808 0.02758
2445.53231 0.02751
2444.24654 0.02713
2442.96077 0.02674
2441.67500 0.02654
2440.38923 0.02655
2439.10346 0.02661
2437.81770 0.02645
2436.53193 0.02599
2435.24616 0.02542
2433.96039 0.02510
2432.67462 0.02528
2431.38885 0.02586
2430.10308 0.02641
2428.81731 0.02658
2427.53155 0.02635
2426.24578 0.02592
2424.96001 0.02544
2423.67424 0.02492
2422.38847 0.02442
2421.10270 0.02406
2419.81693 0.02397
2418.53116 0.02413
2417.24539 0.02437
2415.95963 0.02455
2414.67386 0.02466
2413.38809 0.02481
2412.10232 0.02504
2410.81655 0.02528
2409.53078 0.02542
2408.24501 0.02530
2406.95924 0.02488
2405.67347 0.02427
2404.38771 0.02381
2403.10194 0.02378
2401.81617 0.02406
2400.53040 0.02441
2399.24463 0.02549
2397.95886 0.02493
2396.67309 0.02444
2395.38732 0.02443
2394.10156 0.02458
2392.81579 0.02467
2391.53002 0.02456
2390.24425 0.02424
2388.95848 0.02387
2387.67271 0.02364
2386.38694 0.02362
2385.10117 0.02373
2383.81540 0.02388
2382.52964 0.02404
2381.24387 0.02416
2379.95810 0.02425
2378.67233 0.02426
2377.38656 0.02427
2376.10079 0.02437
2374.81502 0.02455
2373.52925 0.02461
2372.24349 0.02449
2370.95772 0.02435
2369.67195 0.02444
2368.38618 0.02474
2367.10041 0.02498
2365.81464 0.02506
2364.52887 0.02500
2363.24310 0.02494
2361.95733 0.02495
2360.67157 0.02489
2359.38580 0.02484
2358.10003 0.02497
2356.81426 0.02532
2355.52849 0.02578
2354.24272 0.02624
2352.95695 0.02648
2351.67118 0.02635
2350.38542 0.02615
2349.09965 0.02626
2347.81388 0.02652
2346.52811 0.02643
2345.24234 0.02618
2343.95657 0.02640
2342.67080 0.02693
2341.38503 0.02672
2340.09926 0.02591
2338.81350 0.02602
2337.52773 0.02692
2336.24196 0.02669
2334.95619 0.02567
2333.67042 0.02571
2332.38465 0.02633
2331.09888 0.02582
2329.81311 0.02550
2328.52735 0.02650
2327.24158 0.02711
2325.95581 0.02745
2324.67004 0.02848
2323.38427 0.02908
2322.09850 0.02873
2320.81273 0.02845
2319.52696 0.02785
2318.24119 0.02716
2316.95543 0.02699
2315.66966 0.02673
2314.38389 0.02631
2313.09812 0.02597
2311.81235 0.02552
2310.52658 0.02530
2309.24081 0.02526
2307.95504 0.02515
2306.66928 0.02502
2305.38351 0.02473
2304.09774 0.02437
2302.81197 0.02407
2301.52620 0.02390
2300.24043 0.02392
2298.95466 0.02399
2297.66889 0.02401
2296.38312 0.02395
2295.09736 0.02393
2293.81159 0.02404
2292.52582 0.02419
2291.24005 0.02428
2289.95428 0.02435
2288.66851 0.02445
2287.38274 0.02449
2286.09697 0.02425
2284.81121 0.02370
2283.52544 0.02309
2282.23967 0.02277
2280.95390 0.02283
2279.66813 0.02305
2278.38236 0.02315
2277.09659 0.02297
2275.81082 0.02258
2274.52505 0.02221
2273.23929 0.02204
2271.95352 0.02204
2270.66775 0.02195
2269.38198 0.02153
2268.09621 0.02088
2266.81044 0.02040
2265.52467 0.02048
2264.23890 0.02115
2262.95314 0.02186
2261.66737 0.02190
2260.38160 0.02106
2259.09583 0.01985
2257.81006 0.01906
2256.52429 0.01902
2255.23852 0.01946
2253.95275 0.01988
2252.66698 0.02000
2251.38122 0.01962
2250.09545 0.01910
2248.80968 0.01966
2247.52391 0.01913
2246.23814 0.01855
2244.95237 0.01820
2243.66660 0.01797
2242.38083 0.01769
2241.09507 0.01744
2239.80930 0.01738
2238.52353 0.01751
2237.23776 0.01768
2235.95199 0.01796
2234.66622 0.01848
2233.38045 0.01924
2232.09468 0.01990
2230.80891 0.02001
2229.52315 0.01937
2228.23738 0.01824
2226.95161 0.01718
2225.66584 0.01647
2224.38007 0.01599
2223.09430 0.01561
2221.80853 0.01555
2220.52276 0.01605
2219.23700 0.01697
2217.95123 0.01777
2216.66546 0.01793
2215.37969 0.01738
2214.09392 0.01666
2212.80815 0.01644
2211.52238 0.01686
2210.23661 0.01739
2208.95084 0.01741
2207.66508 0.01677
2206.37931 0.01577
2205.09354 0.01490
2203.80777 0.01460
2202.52200 0.01493
2201.23623 0.01539
2199.95046 0.01539
2198.66469 0.01492
2197.37893 0.01448
2196.09316 0.01433
2194.80739 0.01431
2193.52162 0.01433
2192.23585 0.01453
2190.95008 0.01493
2189.66431 0.01525
2188.37854 0.01526
2187.09277 0.01490
2185.80701 0.01426
2184.52124 0.01352
2183.23547 0.01304
2181.94970 0.01323
2180.66393 0.01408
2179.37816 0.01497
2178.09239 0.01506
2176.80662 0.01401
2175.52085 0.01229
2174.23509 0.01078
2172.94932 0.00997
2171.66355 0.00996
2170.37778 0.01085
2169.09201 0.01272
2167.80624 0.01502
2166.52047 0.01650
2165.23470 0.01618
2163.94894 0.01415
2162.66317 0.01144
2161.37740 0.00907
2160.09163 0.00753
2158.80586 0.00694
2157.52009 0.00724
2156.23432 0.00799
2154.94855 0.00833
2153.66278 0.00772
2152.37702 0.00656
2151.09125 0.00585
2149.80548 0.00627
2148.51971 0.00766
2147.23394 0.00927
2145.94817 0.01037
2144.66240 0.01069
2143.37663 0.01055
2142.09087 0.01047
2140.80510 0.01067
2139.51933 0.01092
2138.23356 0.01083
2136.94779 0.01028
2135.66202 0.00967
2134.37625 0.00948
2133.09048 0.00979
2131.80471 0.01022
2130.51895 0.01053
2129.23318 0.01085
2127.94741 0.01134
2126.66164 0.01187
2125.37587 0.01226
2124.09010 0.01264
2122.80433 0.01319
2121.51856 0.01387
2120.23280 0.01440
2118.94703 0.01467
2117.66126 0.01484
2116.37549 0.01504
2115.08972 0.01529
2113.80395 0.01549
2112.51818 0.01566
2111.23241 0.01595
2109.94664 0.01644
2108.66088 0.01692
2107.37511 0.01703
2106.08934 0.01661
2104.80357 0.01587
2103.51780 0.01522
2102.23203 0.01483
2100.94626 0.01465
2099.66049 0.01541
2098.37473 0.01587
2097.08896 0.01547
2095.80319 0.01471
2094.51742 0.01399
2093.23165 0.01356
2091.94588 0.01346
2090.66011 0.01356
2089.37434 0.01360
2088.08857 0.01342
2086.80281 0.01306
2085.51704 0.01271
2084.23127 0.01256
2082.94550 0.01269
2081.65973 0.01305
2080.37396 0.01352
2079.08819 0.01406
2077.80242 0.01454
2076.51666 0.01473
2075.23089 0.01445
2073.94512 0.01388
2072.65935 0.01347
2071.37358 0.01348
2070.08781 0.01374
2068.80204 0.01385
2067.51627 0.01359
2066.23050 0.01306
2064.94474 0.01250
2063.65897 0.01196
2062.37320 0.01136
2061.08743 0.01067
2059.80166 0.01008
2058.51589 0.00985
2057.23012 0.00992
2055.94435 0.00995
2054.65859 0.00980
2053.37282 0.00979
2052.08705 0.01023
2050.80128 0.01083
2049.51551 0.01090
2048.22974 0.01012
2046.94397 0.00886
2045.65820 0.00758
2044.37243 0.00651
2043.08667 0.00589
2041.80090 0.00614
2040.51513 0.00749
2039.22936 0.00956
2037.94359 0.01152
2036.65782 0.01263
2035.37205 0.01277
2034.08628 0.01232
2032.80052 0.01165
2031.51475 0.01061
2030.22898 0.00889
2028.94321 0.00668
2027.65744 0.00484
2026.37167 0.00415
2025.08590 0.00461
2023.80013 0.00554
2022.51436 0.00623
2021.22860 0.00641
2019.94283 0.00631
2018.65706 0.00640
2017.37129 0.00695
2016.08552 0.00782
2014.79975 0.00874
2013.51398 0.00971
2012.22821 0.01087
2010.94245 0.01215
2009.65668 0.01295
2008.37091 0.01274
2007.08514 0.01156
2005.79937 0.01001
2004.51360 0.00873
2003.22783 0.00807
2001.94206 0.00814
2000.65629 0.00884
1999.37053 0.00976
1998.08476 0.01033
1996.79899 0.01024
1995.51322 0.00972
1994.22745 0.00934
1992.94168 0.00952
1991.65591 0.01016
1990.37014 0.01076
1989.08438 0.01079
1987.79861 0.01030
1986.51284 0.00997
1985.22707 0.01045
1983.94130 0.01174
1982.65553 0.01314
1981.36976 0.01385
1980.08399 0.01358
1978.79822 0.01258
1977.51246 0.01131
1976.22669 0.01015
1974.94092 0.00937
1973.65515 0.00923
1972.36938 0.00989
1971.08361 0.01118
1969.79784 0.01249
1968.51207 0.01306
1967.22631 0.01253
1965.94054 0.01140
1964.65477 0.01066
1963.36900 0.01084
1962.08323 0.01148
1960.79746 0.01169
1959.51169 0.01121
1958.22592 0.01058
1956.94015 0.01040
1955.65439 0.01070
1954.36862 0.01116
1953.08285 0.01161
1951.79708 0.01207
1950.51131 0.01254
1949.22554 0.01295
1947.93977 0.01319
1946.65400 0.01330
1945.36823 0.01333
1944.08247 0.01328
1942.79670 0.01318
1941.51093 0.01315
1940.22516 0.01335
1938.93939 0.01379
1937.65362 0.01421
1936.36785 0.01432
1935.08208 0.01399
1933.79632 0.01339
1932.51055 0.01282
1931.22478 0.01251
1929.93901 0.01259
1928.65324 0.01309
1927.36747 0.01389
1926.08170 0.01475
1924.79593 0.01540
1923.51016 0.01575
1922.22440 0.01581
1920.93863 0.01569
1919.65286 0.01544
1918.36709 0.01511
1917.08132 0.01471
1915.79555 0.01427
1914.50978 0.01393
1913.22401 0.01383
1911.93825 0.01400
1910.65248 0.01425
1909.36671 0.01441
1908.08094 0.01441
1906.79517 0.01428
1905.50940 0.01405
1904.22363 0.01378
1902.93786 0.01358
1901.65209 0.01350
1900.36633 0.01354
1899.08056 0.01375
1897.79479 0.01413
1896.50902 0.01458
1895.22325 0.01488
1893.93748 0.01495
1892.65171 0.01489
1891.36594 0.01485
1890.08018 0.01483
1888.79441 0.01472
1887.50864 0.01454
1886.22287 0.01441
1884.93710 0.01444
1883.65133 0.01457
1882.36556 0.01465
1881.07979 0.01456
1879.79402 0.01434
1878.50826 0.01413
1877.22249 0.01406
1875.93672 0.01413
1874.65095 0.01427
1873.36518 0.01439
1872.07941 0.01447
1870.79364 0.01449
1869.50787 0.01444
1868.22211 0.01429
1866.93634 0.01409
1865.65057 0.01392
1864.36480 0.01385
1863.07903 0.01384
1861.79326 0.01387
1860.50749 0.01392
1859.22172 0.01401
1857.93595 0.01415
1856.65019 0.01430
1855.36442 0.01447
1854.07865 0.01461
1852.79288 0.01467
1851.50711 0.01457
1850.22134 0.01437
1848.93557 0.01424
1847.64980 0.01434
1846.36404 0.01460
1845.07827 0.01481
1843.79250 0.01487
1842.50673 0.01481
1841.22096 0.01476
1839.93519 0.01474
1838.64942 0.01473
1837.36365 0.01472
1836.07788 0.01470
1834.79212 0.01474
1833.50635 0.01482
1832.22058 0.01488
1830.93481 0.01490
1829.64904 0.01492
1828.36327 0.01500
1827.07750 0.01511
1825.79173 0.01523
1824.50597 0.01538
1823.22020 0.01556
1821.93443 0.01569
1820.64866 0.01565
1819.36289 0.01534
1818.07712 0.01483
1816.79135 0.01429
1815.50558 0.01390
1814.21981 0.01372
1812.93405 0.01367
1811.64828 0.01366
1810.36251 0.01365
1809.07674 0.01369
1807.79097 0.01383
1806.50520 0.01405
1805.21943 0.01433
1803.93366 0.01459
1802.64790 0.01473
1801.36213 0.01470
1800.07636 0.01457
1798.79059 0.01446
1797.50482 0.01450
1796.21905 0.01469
1794.93328 0.01489
1793.64751 0.01497
1792.36174 0.01494
1791.07598 0.01492
1789.79021 0.01496
1788.50444 0.01501
1787.21867 0.01506
1785.93290 0.01511
1784.64713 0.01521
1783.36136 0.01531
1782.07559 0.01536
1780.78983 0.01532
1779.50406 0.01522
1778.21829 0.01511
1776.93252 0.01503
1775.64675 0.01498
1774.36098 0.01491
1773.07521 0.01480
1771.78944 0.01470
1770.50367 0.01463
1769.21791 0.01455
1767.93214 0.01450
1766.64637 0.01457
1765.36060 0.01475
1764.07483 0.01499
1762.78906 0.01519
1761.50329 0.01531
1760.21752 0.01533
1758.93176 0.01528
1757.64599 0.01520
1756.36022 0.01515
1755.07445 0.01513
1753.78868 0.01508
1752.50291 0.01498
1751.21714 0.01490
1749.93137 0.01487
1748.64560 0.01490
1747.35984 0.01492
1746.07407 0.01491
1744.78830 0.01490
1743.50253 0.01489
1742.21676 0.01488
1740.93099 0.01486
1739.64522 0.01493
1738.35945 0.01516
1737.07369 0.01544
1735.78792 0.01560
1734.50215 0.01559
1733.21638 0.01547
1731.93061 0.01531
1730.64484 0.01516
1729.35907 0.01507
1728.07330 0.01510
1726.78753 0.01519
1725.50177 0.01528
1724.21600 0.01537
1722.93023 0.01556
1721.64446 0.01590
1720.35869 0.01632
1719.07292 0.01668
1717.78715 0.01691
1716.50138 0.01703
1715.21561 0.01714
1713.92985 0.01735
1712.64408 0.01775
1711.35831 0.01833
1710.07254 0.01899
1708.78677 0.01962
1707.50100 0.02020
1706.21523 0.02080
1704.92946 0.02156
1703.64370 0.02250
1702.35793 0.02349
1701.07216 0.02447
1699.78639 0.02550
1698.50062 0.02656
1697.21485 0.02752
1695.92908 0.02840
1694.64331 0.02926
1693.35754 0.03007
1692.07178 0.03082
1690.78601 0.03165
1689.50024 0.03274
1688.21447 0.03402
1686.92870 0.03528
1685.64293 0.03638
1684.35716 0.03736
1683.07139 0.03830
1681.78563 0.03919
1680.49986 0.04005
1679.21409 0.04094
1677.92832 0.04191
1676.64255 0.04296
1675.35678 0.04410
1674.07101 0.04531
1672.78524 0.04649
1671.49947 0.04754
1670.21371 0.04847
1668.92794 0.04938
1667.64217 0.05033
1666.35640 0.05132
1665.07063 0.05230
1663.78486 0.05327
1662.49909 0.05421
1661.21332 0.05509
1659.92756 0.05591
1658.64179 0.05679
1657.35602 0.05782
1656.07025 0.05895
1654.78448 0.05996
1653.49871 0.06076
1652.21294 0.06138
1650.92717 0.06182
1649.64140 0.06209
1648.35564 0.06226
1647.06987 0.06250
1645.78410 0.06281
1644.49833 0.06307
1643.21256 0.06318
1641.92679 0.06315
1640.64102 0.06309
1639.35525 0.06308
1638.06949 0.06305
1636.78372 0.06292
1635.49795 0.06261
1634.21218 0.06212
1632.92641 0.06149
1631.64064 0.06080
1630.35487 0.06015
1629.06910 0.05953
1627.78333 0.05889
1626.49757 0.05815
1625.21180 0.05731
1623.92603 0.05642
1622.64026 0.05560
1621.35449 0.05492
1620.06872 0.05435
1618.78295 0.05375
1617.49718 0.05307
1616.21142 0.05238
1614.92565 0.05173
1613.63988 0.05111
1612.35411 0.05051
1611.06834 0.05000
1609.78257 0.04958
1608.49680 0.04924
1607.21103 0.04894
1605.92526 0.04870
1604.63950 0.04853
1603.35373 0.04844
1602.06796 0.04839
1600.78219 0.04835
1599.49642 0.04830
1598.21065 0.04828
1596.92488 0.04831
1595.63911 0.04844
1594.35335 0.04864
1593.06758 0.04887
1591.78181 0.04908
1590.49604 0.04926
1589.21027 0.04945
1587.92450 0.04968
1586.63873 0.04996
1585.35296 0.05025
1584.06719 0.05056
1582.78143 0.05088
1581.49566 0.05127
1580.20989 0.05179
1578.92412 0.05239
1577.63835 0.05297
1576.35258 0.05349
1575.06681 0.05399
1573.78104 0.05449
1572.49528 0.05496
1571.20951 0.05541
1569.92374 0.05584
1568.63797 0.05627
1567.35220 0.05669
1566.06643 0.05712
1564.78066 0.05763
1563.49489 0.05829
1562.20912 0.05897
1560.92336 0.05953
1559.63759 0.05991
1558.35182 0.06019
1557.06605 0.06039
1555.78028 0.06047
1554.49451 0.06046
1553.20874 0.06041
1551.92297 0.06034
1550.63721 0.06021
1549.35144 0.06008
1548.06567 0.05999
1546.77990 0.05995
1545.49413 0.05999
1544.20836 0.06010
1542.92259 0.06021
1541.63682 0.06013
1540.35105 0.05978
1539.06529 0.05926
1537.77952 0.05872
1536.49375 0.05823
1535.20798 0.05781
1533.92221 0.05754
1532.63644 0.05742
1531.35067 0.05738
1530.06490 0.05735
1528.77914 0.05732
1527.49337 0.05733
1526.20760 0.05742
1524.92183 0.05756
1523.63606 0.05769
1522.35029 0.05779
1521.06452 0.05792
1519.77875 0.05812
1518.49298 0.05832
1517.20722 0.05852
1515.92145 0.05876
1514.63568 0.05906
1513.34991 0.05945
1512.06414 0.05998
1510.77837 0.06069
1509.49260 0.06147
1508.20683 0.06216
1506.92107 0.06267
1505.63530 0.06306
1504.34953 0.06335
1503.06376 0.06357
1501.77799 0.06377
1500.49222 0.06403
1499.20645 0.06433
1497.92068 0.06460
1496.63491 0.06481
1495.34915 0.06498
1494.06338 0.06516
1492.77761 0.06537
1491.49184 0.06565
1490.20607 0.06601
1488.92030 0.06641
1487.63453 0.06680
1486.34876 0.06720
1485.06299 0.06765
1483.77723 0.06821
1482.49146 0.06885
1481.20569 0.06956
1479.91992 0.07034
1478.63415 0.07117
1477.34838 0.07208
1476.06261 0.07299
1474.77684 0.07381
1473.49108 0.07449
1472.20531 0.07505
1470.91954 0.07556
1469.63377 0.07603
1468.34800 0.07648
1467.06223 0.07693
1465.77646 0.07740
1464.49069 0.07793
1463.20492 0.07853
1461.91916 0.07925
1460.63339 0.08006
1459.34762 0.08090
1458.06185 0.08166
1456.77608 0.08234
1455.49031 0.08296
1454.20454 0.08351
1452.91877 0.08398
1451.63301 0.08438
1450.34724 0.08473
1449.06147 0.08504
1447.77570 0.08531
1446.48993 0.08552
1445.20416 0.08563
1443.91839 0.08564
1442.63262 0.08559
1441.34685 0.08552
1440.06109 0.08546
1438.77532 0.08536
1437.48955 0.08522
1436.20378 0.08513
1434.91801 0.08518
1433.63224 0.08539
1432.34647 0.08576
1431.06070 0.08630
1429.77494 0.08698
1428.48917 0.08776
1427.20340 0.08861
1425.91763 0.08953
1424.63186 0.09055
1423.34609 0.09167
1422.06032 0.09281
1420.77455 0.09386
1419.48878 0.09480
1418.20302 0.09564
1416.91725 0.09635
1415.63148 0.09692
1414.34571 0.09737
1413.05994 0.09775
1411.77417 0.09804
1410.48840 0.09822
1409.20263 0.09828
1407.91687 0.09819
1406.63110 0.09791
1405.34533 0.09742
1404.05956 0.09676
1402.77379 0.09597
1401.48802 0.09508
1400.20225 0.09411
1398.91648 0.09308
1397.63071 0.09197
1396.34495 0.09077
1395.05918 0.08945
1393.77341 0.08806
1392.48764 0.08662
1391.20187 0.08519
1389.91610 0.08380
1388.63033 0.08246
1387.34456 0.08114
1386.05880 0.07979
1384.77303 0.07837
1383.48726 0.07688
1382.20149 0.07533
1380.91572 0.07380
1379.62995 0.07230
1378.34418 0.07083
1377.05841 0.06935
1375.77264 0.06780
1374.48688 0.06620
1373.20111 0.06459
1371.91534 0.06299
1370.62957 0.06141
1369.34380 0.05986
1368.05803 0.05840
1366.77226 0.05704
1365.48649 0.05578
1364.20073 0.05456
1362.91496 0.05335
1361.62919 0.05213
1360.34342 0.05097
1359.05765 0.04992
1357.77188 0.04903
1356.48611 0.04828
1355.20034 0.04762
1353.91457 0.04696
1352.62881 0.04629
1351.34304 0.04567
1350.05727 0.04512
1348.77150 0.04465
1347.48573 0.04422
1346.19996 0.04382
1344.91419 0.04346
1343.62842 0.04317
1342.34266 0.04290
1341.05689 0.04259
1339.77112 0.04221
1338.48535 0.04179
1337.19958 0.04138
1335.91381 0.04098
1334.62804 0.04056
1333.34227 0.04012
1332.05650 0.03966
1330.77074 0.03921
1329.48497 0.03878
1328.19920 0.03838
1326.91343 0.03800
1325.62766 0.03765
1324.34189 0.03731
1323.05612 0.03696
1321.77035 0.03659
1320.48459 0.03620
1319.19882 0.03582
1317.91305 0.03550
1316.62728 0.03522
1315.34151 0.03498
1314.05574 0.03472
1312.76997 0.03442
1311.48420 0.03409
1310.19843 0.03373
1308.91267 0.03339
1307.62690 0.03309
1306.34113 0.03281
1305.05536 0.03252
1303.76959 0.03221
1302.48382 0.03190
1301.19805 0.03160
1299.91228 0.03130
1298.62652 0.03098
1297.34075 0.03064
1296.05498 0.03032
1294.76921 0.03004
1293.48344 0.02984
1292.19767 0.02972
1290.91190 0.02968
1289.62613 0.02966
1288.34036 0.02960
1287.05460 0.02948
1285.76883 0.02932
1284.48306 0.02918
1283.19729 0.02907
1281.91152 0.02899
1280.62575 0.02891
1279.33998 0.02885
1278.05421 0.02878
1276.76845 0.02871
1275.48268 0.02859
1274.19691 0.02843
1272.91114 0.02825
1271.62537 0.02807
1270.33960 0.02793
1269.05383 0.02783
1267.76806 0.02779
1266.48229 0.02779
1265.19653 0.02781
1263.91076 0.02779
1262.62499 0.02774
1261.33922 0.02768
1260.05345 0.02764
1258.76768 0.02762
1257.48191 0.02761
1256.19614 0.02758
1254.91037 0.02754
1253.62461 0.02752
1252.33884 0.02755
1251.05307 0.02762
1249.76730 0.02770
1248.48153 0.02773
1247.19576 0.02769
1245.90999 0.02762
1244.62422 0.02757
1243.33846 0.02759
1242.05269 0.02763
1240.76692 0.02762
1239.48115 0.02750
1238.19538 0.02732
1236.90961 0.02713
1235.62384 0.02697
1234.33807 0.02682
1233.05230 0.02664
1231.76654 0.02645
1230.48077 0.02623
1229.19500 0.02600
1227.90923 0.02576
1226.62346 0.02553
1225.33769 0.02531
1224.05192 0.02507
1222.76615 0.02476
1221.48039 0.02436
1220.19462 0.02391
1218.90885 0.02346
1217.62308 0.02308
1216.33731 0.02277
1215.05154 0.02256
1213.76577 0.02242
1212.48000 0.02234
1211.19423 0.02228
1209.90847 0.02221
1208.62270 0.02214
1207.33693 0.02207
1206.05116 0.02201
1204.76539 0.02196
1203.47962 0.02190
1202.19385 0.02173
1200.90808 0.02143
1199.62232 0.02129
1198.33655 0.02112
1197.05078 0.02090
1195.76501 0.02066
1194.47924 0.02043
1193.19347 0.02023
1191.90770 0.02003
1190.62193 0.01982
1189.33616 0.01962
1188.05040 0.01945
1186.76463 0.01931
1185.47886 0.01916
1184.19309 0.01897
1182.90732 0.01874
1181.62155 0.01854
1180.33578 0.01839
1179.05001 0.01832
1177.76425 0.01829
1176.47848 0.01827
1175.19271 0.01824
1173.90694 0.01822
1172.62117 0.01819
1171.33540 0.01817
1170.04963 0.01813
1168.76386 0.01810
1167.47809 0.01812
1166.19233 0.01822
1164.90656 0.01836
1163.62079 0.01847
1162.33502 0.01850
1161.04925 0.01843
1159.76348 0.01832
1158.47771 0.01824
1157.19194 0.01825
1155.90618 0.01838
1154.62041 0.01854
1153.33464 0.01864
1152.04887 0.01865
1150.76310 0.01857
1149.47733 0.01850
1148.19156 0.01850
1146.90579 0.01862
1145.62002 0.01886
1144.33426 0.01922
1143.04849 0.01965
1141.76272 0.02015
1140.47695 0.02069
1139.19118 0.02127
1137.90541 0.02194
1136.61964 0.02275
1135.33387 0.02373
1134.04811 0.02486
1132.76234 0.02609
1131.47657 0.02742
1130.19080 0.02890
1128.90503 0.03060
1127.61926 0.03250
1126.33349 0.03457
1125.04772 0.03679
1123.76195 0.03917
1122.47619 0.04170
1121.19042 0.04432
1119.90465 0.04697
1118.61888 0.04958
1117.33311 0.05218
1116.04734 0.05478
1114.76157 0.05740
1113.47580 0.05998
1112.19004 0.06245
1110.90427 0.06474
1109.61850 0.06685
1108.33273 0.06885
1107.04696 0.07086
1105.76119 0.07290
1104.47542 0.07491
1103.18965 0.07683
1101.90388 0.07859
1100.61812 0.08024
1099.33235 0.08186
1098.04658 0.08351
1096.76081 0.08521
1095.47504 0.08686
1094.18927 0.08833
1092.90350 0.08956
1091.61773 0.09056
1090.33197 0.09148
1089.04620 0.09244
1087.76043 0.09355
1086.47466 0.09478
1085.18889 0.09606
1083.90312 0.09731
1082.61735 0.09854
1081.33158 0.09981
1080.04581 0.10119
1078.76005 0.10274
1077.47428 0.10448
1076.18851 0.10635
1074.90274 0.10824
1073.61697 0.11008
1072.33120 0.11193
1071.04543 0.11386
1069.75966 0.11591
1068.47390 0.11806
1067.18813 0.12027
1065.90236 0.12251
1064.61659 0.12478
1063.33082 0.12704
1062.04505 0.12933
1060.75928 0.13164
1059.47351 0.13395
1058.18774 0.13618
1056.90198 0.13826
1055.61621 0.14024
1054.33044 0.14220
1053.04467 0.14419
1051.75890 0.14622
1050.47313 0.14830
1049.18736 0.15043
1047.90159 0.15261
1046.61583 0.15483
1045.33006 0.15709
1044.04429 0.15943
1042.75852 0.16186
1041.47275 0.16431
1040.18698 0.16674
1038.90121 0.16918
1037.61544 0.17170
1036.32967 0.17431
1035.04391 0.17694
1033.75814 0.17947
1032.47237 0.18180
1031.18660 0.18392
1029.90083 0.18585
1028.61506 0.18767
1027.32929 0.18938
1026.04352 0.19092
1024.75775 0.19224
1023.47199 0.19331
1022.18622 0.19414
1020.90045 0.19472
1019.61468 0.19500
1018.32891 0.19496
1017.04314 0.19460
1015.75737 0.19397
1014.47160 0.19317
1013.18584 0.19217
1011.90007 0.19088
1010.61430 0.18923
1009.32853 0.18725
1008.04276 0.18501
1006.75699 0.18257
1005.47122 0.17992
1004.18545 0.17704
1002.89968 0.17391
1001.61392 0.17058
1000.32815 0.16711
999.04238 0.16354
997.75661 0.15985
996.47084 0.15600
995.18507 0.15200
993.89930 0.14792
992.61353 0.14382
991.32777 0.13973
990.04200 0.13563
988.75623 0.13157
987.47046 0.12760
986.18469 0.12377
984.89892 0.12007
983.61315 0.11646
982.32738 0.11296
981.04161 0.10964
979.75585 0.10653
978.47008 0.10362
977.18431 0.10086
975.89854 0.09829
974.61277 0.09598
973.32700 0.09401
972.04123 0.09237
970.75546 0.09106
969.46970 0.09010
968.18393 0.08957
966.89816 0.08947
965.61239 0.08976
964.32662 0.09025
963.04085 0.09071
961.75508 0.09096
960.46931 0.09088
959.18354 0.09042
957.89778 0.08952
956.61201 0.08822
955.32624 0.08669
954.04047 0.08509
952.75470 0.08350
951.46893 0.08186
950.18316 0.08011
948.89739 0.07828
947.61163 0.07645
946.32586 0.07468
945.04009 0.07302
943.75432 0.07145
942.46855 0.06995
941.18278 0.06849
939.89701 0.06710
938.61124 0.06580
937.32547 0.06456
936.03971 0.06333
934.75394 0.06206
933.46817 0.06082
932.18240 0.05971
930.89663 0.05873
929.61086 0.05783
928.32509 0.05693
927.03932 0.05603
925.75356 0.05518
924.46779 0.05440
923.18202 0.05365
921.89625 0.05291
920.61048 0.05216
919.32471 0.05140
918.03894 0.05064
916.75317 0.04992
915.46740 0.04929
914.18164 0.04875
912.89587 0.04830
911.61010 0.04786
910.32433 0.04740
909.03856 0.04689
907.75279 0.04636
906.46702 0.04587
905.18125 0.04547
903.89549 0.04515
902.60972 0.04485
901.32395 0.04450
900.03818 0.04406
898.75241 0.04355
897.46664 0.04301
896.18087 0.04247
894.89510 0.04192
893.60933 0.04143
892.32357 0.04105
891.03780 0.04085
889.75203 0.04080
888.46626 0.04091
887.18049 0.04122
885.89472 0.04187
884.60895 0.04300
883.32318 0.04474
882.03742 0.04696
880.75165 0.04932
879.46588 0.05137
878.18011 0.05292
876.89434 0.05415
875.60857 0.05541
874.32280 0.05687
873.03703 0.05833
871.75126 0.05940
870.46550 0.05980
869.17973 0.05951
867.89396 0.05863
866.60819 0.05727
865.32242 0.05556
864.03665 0.05362
862.75088 0.05157
861.46511 0.04955
860.17935 0.04769
858.89358 0.04609
857.60781 0.04482
856.32204 0.04386
855.03627 0.04315
853.75050 0.04256
852.46473 0.04205
851.17896 0.04157
849.89319 0.04109
848.60743 0.04062
847.32166 0.04019
846.03589 0.03980
844.75012 0.03943
843.46435 0.03904
842.17858 0.03867
840.89281 0.03834
839.60704 0.03808
838.32128 0.03785
837.03551 0.03759
835.74974 0.03729
834.46397 0.03700
833.17820 0.03673
831.89243 0.03652
830.60666 0.03636
829.32089 0.03628
828.03512 0.03626
826.74936 0.03629
825.46359 0.03632
824.17782 0.03634
822.89205 0.03633
821.60628 0.03632
820.32051 0.03629
819.03474 0.03622
817.74897 0.03608
816.46321 0.03587
815.17744 0.03562
813.89167 0.03538
812.60590 0.03518
811.32013 0.03506
810.03436 0.03501
808.74859 0.03497
807.46282 0.03490
806.17705 0.03479
804.89129 0.03466
803.60552 0.03459
802.31975 0.03460
801.03398 0.03471
799.74821 0.03484
798.46244 0.03491
797.17667 0.03487
795.89090 0.03474
794.60513 0.03459
793.31937 0.03445
792.03360 0.03434
790.74783 0.03428
789.46206 0.03429
788.17629 0.03441
786.89052 0.03462
785.60475 0.03481
784.31898 0.03487
783.03322 0.03476
781.74745 0.03452
780.46168 0.03427
779.17591 0.03410
777.89014 0.03405
776.60437 0.03408
775.31860 0.03412
774.03283 0.03411
772.74706 0.03409
771.46130 0.03409
770.17553 0.03414
768.88976 0.03421
767.60399 0.03426
766.31822 0.03429
765.03245 0.03431
763.74668 0.03437
762.46091 0.03447
761.17515 0.03458
759.88938 0.03464
758.60361 0.03461
757.31784 0.03453
756.03207 0.03447
754.74630 0.03451
753.46053 0.03463
752.17476 0.03475
750.88899 0.03478
749.60323 0.03469
748.31746 0.03451
747.03169 0.03434
745.74592 0.03422
744.46015 0.03418
743.17438 0.03421
741.88861 0.03424
740.60284 0.03420
739.31708 0.03411
738.03131 0.03407
736.74554 0.03410
735.45977 0.03413
734.17400 0.03409
732.88823 0.03401
731.60246 0.03395
730.31669 0.03396
729.03092 0.03402
727.74516 0.03407
726.45939 0.03411
725.17362 0.03411
723.88785 0.03435
722.60208 0.03417
721.31631 0.03406
720.03054 0.03413
718.74477 0.03423
717.45901 0.03429
716.17324 0.03432
714.88747 0.03433
713.60170 0.03433
712.31593 0.03436
711.03016 0.03441
709.74439 0.03444
708.45862 0.03443
707.17285 0.03441
705.88709 0.03444
704.60132 0.03454
703.31555 0.03466
702.02978 0.03476
700.74401 0.03479
699.45824 0.03474
698.17247 0.03465
696.88670 0.03456
695.60094 0.03447
694.31517 0.03440
693.02940 0.03435
691.74363 0.03431
690.45786 0.03426
689.17209 0.03420
687.88632 0.03414
686.60055 0.03412
685.31478 0.03415
684.02902 0.03417
682.74325 0.03413
681.45748 0.03404
680.17171 0.03393
678.88594 0.03386
677.60017 0.03383
676.31440 0.03386
675.02863 0.03393
673.74287 0.03406
672.45710 0.03422
671.17133 0.03438
669.88556 0.03449
668.59979 0.03455
667.31402 0.03458
666.02825 0.03449
664.74248 0.03437
663.45671 0.03426
662.17095 0.03416
660.88518 0.03405
659.59941 0.03390
658.31364 0.03369
657.02787 0.03343
655.74210 0.03315
654.45633 0.03290
653.17056 0.03268
651.88480 0.03248
650.59903 0.03230
649.31326 0.03214
648.02749 0.03201
646.74172 0.03189
645.45595 0.03175
644.17018 0.03161
642.88441 0.03144
641.59864 0.03123
640.31288 0.03099
639.02711 0.03076
637.74134 0.03061
636.45557 0.03058
635.16980 0.03070
633.88403 0.03101
632.59826 0.03138
631.31249 0.03121
630.02673 0.03070
628.74096 0.03221
627.45519 0.03355
626.16942 0.03613
624.88365 0.03941
623.59788 0.04219
622.31211 0.04404
621.02634 0.04507
619.74057 0.04557
618.45481 0.04573
617.16904 0.04581
615.88327 0.04644
614.59750 0.04867
613.31173 0.05323
612.02596 0.05979
610.74019 0.06682
609.45442 0.07270
608.16866 0.07689
606.88289 0.07996
605.59712 0.08260
604.31135 0.08494
603.02558 0.08648
601.73981 0.08671
600.45404 0.08570
599.16827 0.08395
597.88250 0.08192
596.59674 0.07978
595.31097 0.07758
594.02520 0.07543
592.73943 0.07354
591.45366 0.07210
590.16789 0.07114
588.88212 0.07064
587.59635 0.07055
586.31059 0.07095
585.02482 0.07187
583.73905 0.07333
582.45328 0.07519
581.16751 0.07722
579.88174 0.07919
578.59597 0.08101
577.31020 0.08272
576.02443 0.08444
574.73867 0.08621
573.45290 0.08805
572.16713 0.09000
570.88136 0.09214
569.59559 0.09452
568.30982 0.09714
567.02405 0.09990
565.73828 0.10265
564.45251 0.10510
563.16675 0.10701
561.88098 0.10822
560.59521 0.10862
559.30944 0.10810
558.02367 0.10656
556.73790 0.10401
555.45213 0.10061
554.16636 0.09659
552.88060 0.09226
551.59483 0.08791
550.30906 0.08378
549.02329 0.08003
547.73752 0.07672
546.45175 0.07388
545.16598 0.07147
543.88021 0.06937
542.59444 0.06746
541.30868 0.06565
540.02291 0.06386
538.73714 0.06209
537.45137 0.06036
536.16560 0.05874
534.87983 0.05731
533.59406 0.05606
532.30829 0.05493
531.02253 0.05386
529.73676 0.05279
528.45099 0.05175
527.16522 0.05076
525.87945 0.04985
524.59368 0.04908
523.30791 0.04842
522.02214 0.04777
520.73637 0.04702
519.45061 0.04614
518.16484 0.04525
516.87907 0.04442
515.59330 0.04369
514.30753 0.04302
513.02176 0.04239
511.73599 0.04181
510.45022 0.04129
509.16446 0.04084
507.87869 0.04046
506.59292 0.04012
505.30715 0.03981
504.02138 0.03947
502.73561 0.03906
501.44984 0.03853
500.16407 0.03793
498.87830 0.03730
497.59254 0.03666
496.30677 0.03603
495.02100 0.03545
493.73523 0.03505
492.44946 0.03488
491.16369 0.03488
489.87792 0.03484
488.59215 0.03464
487.30639 0.03427
486.02062 0.03387
484.73485 0.03360
483.44908 0.03351
482.16331 0.03352
480.87754 0.03350
479.59177 0.03340
478.30600 0.03324
477.02023 0.03314
475.73447 0.03314
474.44870 0.03322
473.16293 0.03333
471.87716 0.03340
470.59139 0.03339
469.30562 0.03331
468.01985 0.03317
466.73408 0.03300
465.44832 0.03278
464.16255 0.03245
462.87678 0.03202
461.59101 0.03151
460.30524 0.03100
459.01947 0.03055
457.73370 0.03019
456.44793 0.02990
455.16216 0.02958
453.87640 0.02921
452.59063 0.02881
451.30486 0.02845
450.01909 0.02815
448.73332 0.02784
447.44755 0.02748
446.16178 0.02709
444.87601 0.02672
443.59025 0.02641
442.30448 0.02616
441.01871 0.02597
439.73294 0.02583
438.44717 0.02574
437.16140 0.02565
435.87563 0.02555
434.58986 0.02542
433.30409 0.02527
432.01833 0.02511
430.73256 0.02489
429.44679 0.02457
428.16102 0.02420
426.87525 0.02388
425.58948 0.02366
424.30371 0.02354
423.01794 0.02346
421.73218 0.02335
420.44641 0.02321
419.16064 0.02305
417.87487 0.02288
416.58910 0.02266
415.30333 0.02238
414.01756 0.02211
412.73179 0.02192
411.44602 0.02182
410.16026 0.02177
408.87449 0.02170
407.58872 0.02163
406.30295 0.02155
405.01718 0.02151
403.73141 0.02149
402.44564 0.02147
401.15987 0.02142
399.87411 0.02133
