3997.45528	0.00385
3996.16951	0.00477
3994.88374	0.00567
3993.59798	0.00628
3992.31221	0.00634
3991.02644	0.00579
3989.74067	0.00480
3988.45490	0.00377
3987.16913	0.00317
3985.88336	0.00330
3984.59759	0.00398
3983.31183	0.00481
3982.02606	0.00551
3980.74029	0.00619
3979.45452	0.00701
3978.16875	0.00779
3976.88298	0.00803
3975.59721	0.00742
3974.31144	0.00628
3973.02567	0.00535
3971.73991	0.00521
3970.45414	0.00579
3969.16837	0.00652
3967.88260	0.00690
3966.59683	0.00691
3965.31106	0.00686
3964.02529	0.00689
3962.73952	0.00676
3961.45376	0.00612
3960.16799	0.00510
3958.88222	0.00438
3957.59645	0.00457
3956.31068	0.00554
3955.02491	0.00658
3953.73914	0.00708
3952.45337	0.00700
3951.16760	0.00669
3949.88184	0.00652
3948.59607	0.00658
3947.31030	0.00670
3946.02453	0.00668
3944.73876	0.00643
3943.45299	0.00605
3942.16722	0.00579
3940.88145	0.00584
3939.59569	0.00626
3938.30992	0.00689
3937.02415	0.00748
3935.73838	0.00786
3934.45261	0.00804
3933.16684	0.00809
3931.88107	0.00801
3930.59530	0.00780
3929.30953	0.00752
3928.02377	0.00729
3926.73800	0.00711
3925.45223	0.00684
3924.16646	0.00639
3922.88069	0.00588
3921.59492	0.00556
3920.30915	0.00564
3919.02338	0.00603
3917.73762	0.00651
3916.45185	0.00682
3915.16608	0.00678
3913.88031	0.00644
3912.59454	0.00610
3911.30877	0.00617
3910.02300	0.00673
3908.73723	0.00748
3907.45146	0.00802
3906.16570	0.00817
3904.87993	0.00789
3903.59416	0.00718
3902.30839	0.00612
3901.02262	0.00504
3899.73685	0.00451
3898.45108	0.00478
3897.16531	0.00550
3895.87955	0.00610
3894.59378	0.00643
3893.30801	0.00674
3892.02224	0.00725
3890.73647	0.00776
3889.45070	0.00790
3888.16493	0.00751
3886.87916	0.00698
3885.59339	0.00683
3884.30763	0.00711
3883.02186	0.00748
3881.73609	0.00770
3880.45032	0.00785
3879.16455	0.00798
3877.87878	0.00785
3876.59301	0.00736
3875.30724	0.00679
3874.02148	0.00662
3872.73571	0.00700
3871.44994	0.00768
3870.16417	0.00836
3868.87840	0.00881
3867.59263	0.00878
3866.30686	0.00827
3865.02109	0.00758
3863.73532	0.00705
3862.44956	0.00684
3861.16379	0.00692
3859.87802	0.00710
3858.59225	0.00713
3857.30648	0.00692
3856.02071	0.00663
3854.73494	0.00645
3853.44917	0.00638
3852.16341	0.00624
3850.87764	0.00600
3849.59187	0.00598
3848.30610	0.00647
3847.02033	0.00731
3845.73456	0.00806
3844.44879	0.00853
3843.16302	0.00874
3841.87725	0.00868
3840.59149	0.00815
3839.30572	0.00716
3838.01995	0.00613
3836.73418	0.00554
3835.44841	0.00550
3834.16264	0.00580
3832.87687	0.00641
3831.59110	0.00734
3830.30534	0.00837
3829.01957	0.00900
3827.73380	0.00888
3826.44803	0.00830
3825.16226	0.00789
3823.87649	0.00789
3822.59072	0.00809
3821.30495	0.00834
3820.01918	0.00878
3818.73342	0.00939
3817.44765	0.00989
3816.16188	0.01012
3814.87611	0.01010
3813.59034	0.00992
3812.30457	0.00976
3811.01880	0.00985
3809.73303	0.01001
3808.44726	0.00981
3807.16150	0.00916
3805.87573	0.00856
3804.58996	0.00840
3803.30419	0.00859
3802.01842	0.00872
3800.73265	0.00857
3799.44688	0.00817
3798.16111	0.00774
3796.87535	0.00757
3795.58958	0.00773
3794.30381	0.00789
3793.01804	0.00784
3791.73227	0.00774
3790.44650	0.00790
3789.16073	0.00825
3787.87496	0.00840
3786.58919	0.00814
3785.30343	0.00774
3784.01766	0.00764
3782.73189	0.00791
3781.44612	0.00826
3780.16035	0.00845
3778.87458	0.00847
3777.58881	0.00834
3776.30304	0.00801
3775.01728	0.00752
3773.73151	0.00708
3772.44574	0.00695
3771.15997	0.00725
3769.87420	0.00785
3768.58843	0.00838
3767.30266	0.00850
3766.01689	0.00827
3764.73112	0.00801
3763.44536	0.00787
3762.15959	0.00779
3760.87382	0.00767
3759.58805	0.00745
3758.30228	0.00703
3757.01651	0.00645
3755.73074	0.00585
3754.44497	0.00539
3753.15921	0.00516
3751.87344	0.00536
3750.58767	0.00607
3749.30190	0.00721
3748.01613	0.00834
3746.73036	0.00881
3745.44459	0.00852
3744.15882	0.00812
3742.87305	0.00819
3741.58729	0.00866
3740.30152	0.00911
3739.01575	0.00918
3737.72998	0.00887
3736.44421	0.00859
3735.15844	0.00873
3733.87267	0.00901
3732.58690	0.00892
3731.30114	0.00831
3730.01537	0.00751
3728.72960	0.00708
3727.44383	0.00743
3726.15806	0.00850
3724.87229	0.00964
3723.58652	0.01002
3722.30075	0.00939
3721.01498	0.00819
3719.72922	0.00727
3718.44345	0.00736
3717.15768	0.00854
3715.87191	0.01012
3714.58614	0.01120
3713.30037	0.01131
3712.01460	0.01072
3710.72883	0.00996
3709.44307	0.00931
3708.15730	0.00885
3706.87153	0.00849
3705.58576	0.00820
3704.29999	0.00798
3703.01422	0.00792
3701.72845	0.00810
3700.44268	0.00842
3699.15691	0.00856
3697.87115	0.00837
3696.58538	0.00802
3695.29961	0.00768
3694.01384	0.00739
3692.72807	0.00735
3691.44230	0.00757
3690.15653	0.00798
3688.87076	0.00874
3687.58500	0.00980
3686.29923	0.01059
3685.01346	0.01066
3683.72769	0.01008
3682.44192	0.00941
3681.15615	0.00929
3679.87038	0.00992
3678.58461	0.01090
3677.29884	0.01157
3676.01308	0.01136
3674.72731	0.01028
3673.44154	0.00892
3672.15577	0.00803
3670.87000	0.00814
3669.58423	0.00893
3668.29846	0.00958
3667.01269	0.00965
3665.72693	0.00934
3664.44116	0.00904
3663.15539	0.00886
3661.86962	0.00885
3660.58385	0.00909
3659.29808	0.00955
3658.01231	0.00999
3656.72654	0.01017
3655.44077	0.01020
3654.15501	0.01030
3652.86924	0.01042
3651.58347	0.01023
3650.29770	0.00961
3649.01193	0.00895
3647.72616	0.00875
3646.44039	0.00905
3645.15462	0.00932
3643.86886	0.00918
3642.58309	0.00873
3641.29732	0.00834
3640.01155	0.00833
3638.72578	0.00880
3637.44001	0.00968
3636.15424	0.01066
3634.86847	0.01137
3633.58270	0.01151
3632.29694	0.01091
3631.01117	0.00965
3629.72540	0.00839
3628.43963	0.00786
3627.15386	0.00837
3625.86809	0.00956
3624.58232	0.01103
3623.29655	0.01232
3622.01079	0.01307
3620.72502	0.01307
3619.43925	0.01262
3618.15348	0.01221
3616.86771	0.01216
3615.58194	0.01243
3614.29617	0.01279
3613.01040	0.01302
3611.72463	0.01293
3610.43887	0.01243
3609.15310	0.01168
3607.86733	0.01104
3606.58156	0.01079
3605.29579	0.01097
3604.01002	0.01144
3602.72425	0.01203
3601.43848	0.01267
3600.15272	0.01329
3598.86695	0.01378
3597.58118	0.01404
3596.29541	0.01416
3595.00964	0.01418
3593.72387	0.01413
3592.43810	0.01422
3591.15233	0.01463
3589.86656	0.01521
3588.58080	0.01560
3587.29503	0.01551
3586.00926	0.01489
3584.72349	0.01403
3583.43772	0.01350
3582.15195	0.01368
3580.86618	0.01437
3579.58041	0.01509
3578.29464	0.01544
3577.00888	0.01546
3575.72311	0.01541
3574.43734	0.01536
3573.15157	0.01516
3571.86580	0.01488
3570.58003	0.01476
3569.29426	0.01498
3568.00849	0.01546
3566.72273	0.01600
3565.43696	0.01654
3564.15119	0.01706
3562.86542	0.01744
3561.57965	0.01743
3560.29388	0.01691
3559.00811	0.01603
3557.72234	0.01521
3556.43657	0.01481
3555.15081	0.01488
3553.86504	0.01515
3552.57927	0.01533
3551.29350	0.01534
3550.00773	0.01545
3548.72196	0.01595
3547.43619	0.01692
3546.15042	0.01804
3544.86466	0.01882
3543.57889	0.01902
3542.29312	0.01884
3541.00735	0.01867
3539.72158	0.01873
3538.43581	0.01882
3537.15004	0.01870
3535.86427	0.01842
3534.57850	0.01831
3533.29274	0.01861
3532.00697	0.01917
3530.72120	0.01955
3529.43543	0.01949
3528.14966	0.01909
3526.86389	0.01870
3525.57812	0.01865
3524.29235	0.01909
3523.00659	0.01985
3521.72082	0.02061
3520.43505	0.02104
3519.14928	0.02108
3517.86351	0.02086
3516.57774	0.02052
3515.29197	0.02020
3514.00620	0.02004
3512.72043	0.02015
3511.43467	0.02040
3510.14890	0.02049
3508.86313	0.02032
3507.57736	0.02004
3506.29159	0.01992
3505.00582	0.01999
3503.72005	0.02005
3502.43428	0.01989
3501.14852	0.01963
3499.86275	0.01958
3498.57698	0.01990
3497.29121	0.02026
3496.00544	0.02026
3494.71967	0.01992
3493.43390	0.01969
3492.14813	0.02000
3490.86236	0.02077
3489.57660	0.02157
3488.29083	0.02206
3487.00506	0.02216
3485.71929	0.02204
3484.43352	0.02196
3483.14775	0.02207
3481.86198	0.02243
3480.57621	0.02288
3479.29045	0.02325
3478.00468	0.02349
3476.71891	0.02368
3475.43314	0.02389
3474.14737	0.02402
3472.86160	0.02390
3471.57583	0.02349
3470.29006	0.02305
3469.00429	0.02291
3467.71853	0.02324
3466.43276	0.02385
3465.14699	0.02438
3463.86122	0.02457
3462.57545	0.02442
3461.28968	0.02417
3460.00391	0.02409
3458.71814	0.02429
3457.43238	0.02465
3456.14661	0.02499
3454.86084	0.02521
3453.57507	0.02536
3452.28930	0.02558
3451.00353	0.02586
3449.71776	0.02599
3448.43199	0.02574
3447.14622	0.02517
3445.86046	0.02456
3444.57469	0.02417
3443.28892	0.02407
3442.00315	0.02418
3440.71738	0.02443
3439.43161	0.02472
3438.14584	0.02499
3436.86007	0.02525
3435.57431	0.02555
3434.28854	0.02582
3433.00277	0.02590
3431.71700	0.02566
3430.43123	0.02516
3429.14546	0.02463
3427.85969	0.02430
3426.57392	0.02434
3425.28815	0.02475
3424.00239	0.02541
3422.71662	0.02613
3421.43085	0.02675
3420.14508	0.02709
3418.85931	0.02704
3417.57354	0.02663
3416.28777	0.02610
3415.00200	0.02575
3413.71624	0.02568
3412.43047	0.02572
3411.14470	0.02565
3409.85893	0.02553
3408.57316	0.02565
3407.28739	0.02622
3406.00162	0.02712
3404.71585	0.02797
3403.43008	0.02843
3402.14432	0.02846
3400.85855	0.02836
3399.57278	0.02836
3398.28701	0.02842
3397.00124	0.02839
3395.71547	0.02832
3394.42970	0.02844
3393.14393	0.02876
3391.85817	0.02895
3390.57240	0.02866
3389.28663	0.02799
3388.00086	0.02734
3386.71509	0.02705
3385.42932	0.02708
3384.14355	0.02724
3382.85778	0.02742
3381.57201	0.02762
3380.28625	0.02780
3379.00048	0.02793
3377.71471	0.02808
3376.42894	0.02833
3375.14317	0.02864
3373.85740	0.02881
3372.57163	0.02873
3371.28586	0.02849
3370.00010	0.02833
3368.71433	0.02835
3367.42856	0.02848
3366.14279	0.02854
3364.85702	0.02843
3363.57125	0.02814
3362.28548	0.02775
3360.99971	0.02744
3359.71394	0.02745
3358.42818	0.02786
3357.14241	0.02850
3355.85664	0.02908
3354.57087	0.02944
3353.28510	0.02958
3351.99933	0.02959
3350.71356	0.02956
3349.42779	0.02956
3348.14202	0.02949
3346.85626	0.02923
3345.57049	0.02874
3344.28472	0.02821
3342.99895	0.02796
3341.71318	0.02811
3340.42741	0.02846
3339.14164	0.02868
3337.85587	0.02858
3336.57011	0.02827
3335.28434	0.02796
3333.99857	0.02778
3332.71280	0.02771
3331.42703	0.02776
3330.14126	0.02803
3328.85549	0.02859
3327.56972	0.02929
3326.28395	0.02988
3324.99819	0.03022
3323.71242	0.03039
3322.42665	0.03041
3321.14088	0.03021
3319.85511	0.02971
3318.56934	0.02906
3317.28357	0.02858
3315.99780	0.02855
3314.71204	0.02900
3313.42627	0.02967
3312.14050	0.03022
3310.85473	0.03046
3309.56896	0.03046
3308.28319	0.03040
3306.99742	0.03034
3305.71165	0.03021
3304.42588	0.02995
3303.14012	0.02966
3301.85435	0.02945
3300.56858	0.02935
3299.28281	0.02933
3297.99704	0.02930
3296.71127	0.02923
3295.42550	0.02913
3294.13973	0.02908
3292.85397	0.02916
3291.56820	0.02932
3290.28243	0.02947
3288.99666	0.02953
3287.71089	0.02944
3286.42512	0.02917
3285.13935	0.02878
3283.85358	0.02841
3282.56781	0.02823
3281.28205	0.02828
3279.99628	0.02848
3278.71051	0.02878
3277.42474	0.02909
3276.13897	0.02930
3274.85320	0.02930
3273.56743	0.02913
3272.28166	0.02894
3270.99590	0.02885
3269.71013	0.02890
3268.42436	0.02903
3267.13859	0.02915
3265.85282	0.02924
3264.56705	0.02928
3263.28128	0.02925
3261.99551	0.02910
3260.70974	0.02891
3259.42398	0.02875
3258.13821	0.02863
3256.85244	0.02850
3255.56667	0.02835
3254.28090	0.02825
3252.99513	0.02818
3251.70936	0.02803
3250.42359	0.02772
3249.13783	0.02741
3247.85206	0.02736
3246.56629	0.02764
3245.28052	0.02813
3243.99475	0.02859
3242.70898	0.02888
3241.42321	0.02896
3240.13744	0.02885
3238.85167	0.02863
3237.56591	0.02843
3236.28014	0.02833
3234.99437	0.02833
3233.70860	0.02829
3232.42283	0.02816
3231.13706	0.02805
3229.85129	0.02810
3228.56552	0.02829
3227.27976	0.02837
3225.99399	0.02814
3224.70822	0.02767
3223.42245	0.02729
3222.13668	0.02724
3220.85091	0.02744
3219.56514	0.02765
3218.27937	0.02769
3216.99360	0.02760
3215.70784	0.02752
3214.42207	0.02756
3213.13630	0.02770
3211.85053	0.02787
3210.56476	0.02801
3209.27899	0.02815
3207.99322	0.02833
3206.70745	0.02850
3205.42169	0.02847
3204.13592	0.02807
3202.85015	0.02739
3201.56438	0.02678
3200.27861	0.02657
3198.99284	0.02682
3197.70707	0.02728
3196.42130	0.02760
3195.13553	0.02766
3193.84977	0.02761
3192.56400	0.02760
3191.27823	0.02760
3189.99246	0.02752
3188.70669	0.02733
3187.42092	0.02719
3186.13515	0.02720
3184.84938	0.02729
3183.56362	0.02731
3182.27785	0.02722
3180.99208	0.02707
3179.70631	0.02693
3178.42054	0.02675
3177.13477	0.02649
3175.84900	0.02628
3174.56323	0.02627
3173.27746	0.02639
3171.99170	0.02640
3170.70593	0.02617
3169.42016	0.02591
3168.13439	0.02580
3166.84862	0.02584
3165.56285	0.02585
3164.27708	0.02578
3162.99131	0.02574
3161.70555	0.02579
3160.41978	0.02589
3159.13401	0.02595
3157.84824	0.02600
3156.56247	0.02612
3155.27670	0.02632
3153.99093	0.02646
3152.70516	0.02637
3151.41939	0.02605
3150.13363	0.02573
3148.84786	0.02565
3147.56209	0.02585
3146.27632	0.02612
3144.99055	0.02620
3143.70478	0.02600
3142.41901	0.02562
3141.13324	0.02527
3139.84748	0.02510
3138.56171	0.02510
3137.27594	0.02514
3135.99017	0.02512
3134.70440	0.02505
3133.41863	0.02509
3132.13286	0.02527
3130.84709	0.02552
3129.56132	0.02568
3128.27556	0.02576
3126.98979	0.02585
3125.70402	0.02604
3124.41825	0.02624
3123.13248	0.02628
3121.84671	0.02605
3120.56094	0.02554
3119.27517	0.02489
3117.98940	0.02430
3116.70364	0.02393
3115.41787	0.02386
3114.13210	0.02402
3112.84633	0.02432
3111.56056	0.02465
3110.27479	0.02497
3108.98902	0.02518
3107.70325	0.02514
3106.41749	0.02483
3105.13172	0.02449
3103.84595	0.02447
3102.56018	0.02490
3101.27441	0.02553
3099.98864	0.02599
3098.70287	0.02611
3097.41710	0.02600
3096.13133	0.02585
3094.84557	0.02573
3093.55980	0.02567
3092.27403	0.02567
3090.98826	0.02570
3089.70249	0.02573
3088.41672	0.02571
3087.13095	0.02558
3085.84518	0.02533
3084.55942	0.02502
3083.27365	0.02478
3081.98788	0.02479
3080.70211	0.02504
3079.41634	0.02533
3078.13057	0.02539
3076.84480	0.02514
3075.55903	0.02475
3074.27326	0.02449
3072.98750	0.02446
3071.70173	0.02458
3070.41596	0.02469
3069.13019	0.02466
3067.84442	0.02454
3066.55865	0.02453
3065.27288	0.02475
3063.98711	0.02510
3062.70135	0.02529
3061.41558	0.02515
3060.12981	0.02479
3058.84404	0.02451
3057.55827	0.02451
3056.27250	0.02474
3054.98673	0.02508
3053.70096	0.02539
3052.41519	0.02557
3051.12943	0.02550
3049.84366	0.02512
3048.55789	0.02461
3047.27212	0.02425
3045.98635	0.02413
3044.70058	0.02410
3043.41481	0.02397
3042.12904	0.02375
3040.84328	0.02362
3039.55751	0.02371
3038.27174	0.02403
3036.98597	0.02447
3035.70020	0.02488
3034.41443	0.02512
3033.12866	0.02517
3031.84289	0.02503
3030.55712	0.02476
3029.27136	0.02445
3027.98559	0.02423
3026.69982	0.02417
3025.41405	0.02421
3024.12828	0.02423
3022.84251	0.02414
3021.55674	0.02398
3020.27097	0.02381
3018.98521	0.02367
3017.69944	0.02352
3016.41367	0.02334
3015.12790	0.02314
3013.84213	0.02299
3012.55636	0.02293
3011.27059	0.02290
3009.98482	0.02281
3008.69905	0.02263
3007.41329	0.02242
3006.12752	0.02235
3004.84175	0.02251
3003.55598	0.02283
3002.27021	0.02317
3000.98444	0.02340
2999.69867	0.02349
2998.41290	0.02349
2997.12714	0.02345
2995.84137	0.02338
2994.55560	0.02326
2993.26983	0.02307
2991.98406	0.02282
2990.69829	0.02258
2989.41252	0.02240
2988.12675	0.02233
2986.84098	0.02238
2985.55522	0.02247
2984.26945	0.02247
2982.98368	0.02228
2981.69791	0.02195
2980.41214	0.02166
2979.12637	0.02158
2977.84060	0.02163
2976.55483	0.02161
2975.26907	0.02139
2973.98330	0.02107
2972.69753	0.02086
2971.41176	0.02088
2970.12599	0.02109
2968.84022	0.02139
2967.55445	0.02163
2966.26868	0.02173
2964.98291	0.02166
2963.69715	0.02141
2962.41138	0.02103
2961.12561	0.02066
2959.83984	0.02046
2958.55407	0.02045
2957.26830	0.02059
2955.98253	0.02085
2954.69676	0.02113
2953.41100	0.02130
2952.12523	0.02126
2950.83946	0.02112
2949.55369	0.02104
2948.26792	0.02112
2946.98215	0.02128
2945.69638	0.02136
2944.41061	0.02130
2943.12484	0.02118
2941.83908	0.02107
2940.55331	0.02091
2939.26754	0.02059
2937.98177	0.02014
2936.69600	0.01967
2935.41023	0.01921
2934.12446	0.01868
2932.83869	0.01802
2931.55293	0.01721
2930.26716	0.01630
2928.98139	0.01535
2927.69562	0.01445
2926.40985	0.01362
2925.12408	0.01277
2923.83831	0.01183
2922.55254	0.01074
2921.26677	0.00960
2919.98101	0.00861
2918.69524	0.00804
2917.40947	0.00806
2916.12370	0.00872
2914.83793	0.00991
2913.55216	0.01143
2912.26639	0.01306
2910.98062	0.01462
2909.69486	0.01593
2908.40909	0.01687
2907.12332	0.01748
2905.83755	0.01792
2904.55178	0.01829
2903.26601	0.01860
2901.98024	0.01887
2900.69447	0.01920
2899.40870	0.01962
2898.12294	0.02010
2896.83717	0.02051
2895.55140	0.02075
2894.26563	0.02081
2892.97986	0.02076
2891.69409	0.02071
2890.40832	0.02072
2889.12255	0.02076
2887.83678	0.02082
2886.55102	0.02092
2885.26525	0.02099
2883.97948	0.02101
2882.69371	0.02093
2881.40794	0.02073
2880.12217	0.02042
2878.83640	0.02015
2877.55063	0.02018
2876.26487	0.02060
2874.97910	0.02120
2873.69333	0.02163
2872.40756	0.02167
2871.12179	0.02138
2869.83602	0.02094
2868.55025	0.02058
2867.26448	0.02039
2865.97871	0.02028
2864.69295	0.02010
2863.40718	0.01974
2862.12141	0.01926
2860.83564	0.01881
2859.54987	0.01844
2858.26410	0.01803
2856.97833	0.01739
2855.69256	0.01645
2854.40680	0.01531
2853.12103	0.01416
2851.83526	0.01317
2850.54949	0.01259
2849.26372	0.01266
2847.97795	0.01352
2846.69218	0.01499
2845.40641	0.01664
2844.12064	0.01806
2842.83488	0.01905
2841.54911	0.01961
2840.26334	0.01984
2838.97757	0.01989
2837.69180	0.01994
2836.40603	0.02010
2835.12026	0.02031
2833.83449	0.02042
2832.54873	0.02036
2831.26296	0.02022
2829.97719	0.02014
2828.69142	0.02021
2827.40565	0.02039
2826.11988	0.02061
2824.83411	0.02076
2823.54834	0.02078
2822.26257	0.02068
2820.97681	0.02053
2819.69104	0.02045
2818.40527	0.02050
2817.11950	0.02058
2815.83373	0.02058
2814.54796	0.02050
2813.26219	0.02044
2811.97642	0.02050
2810.69066	0.02067
2809.40489	0.02086
2808.11912	0.02096
2806.83335	0.02090
2805.54758	0.02073
2804.26181	0.02052
2802.97604	0.02030
2801.69027	0.02006
2800.40450	0.01985
2799.11874	0.01975
2797.83297	0.01976
2796.54720	0.01978
2795.26143	0.01981
2793.97566	0.01995
2792.68989	0.02025
2791.40412	0.02059
2790.11835	0.02070
2788.83259	0.02049
2787.54682	0.02010
2786.26105	0.01977
2784.97528	0.01965
2783.68951	0.01969
2782.40374	0.01976
2781.11797	0.01982
2779.83220	0.01993
2778.54643	0.02009
2777.26067	0.02026
2775.97490	0.02032
2774.68913	0.02021
2773.40336	0.01999
2772.11759	0.01980
2770.83182	0.01971
2769.54605	0.01970
2768.26028	0.01963
2766.97452	0.01949
2765.68875	0.01939
2764.40298	0.01947
2763.11721	0.01971
2761.83144	0.01990
2760.54567	0.01987
2759.25990	0.01965
2757.97413	0.01948
2756.68836	0.01953
2755.40260	0.01976
2754.11683	0.02001
2752.83106	0.02011
2751.54529	0.01999
2750.25952	0.01974
2748.97375	0.01952
2747.68798	0.01941
2746.40221	0.01941
2745.11645	0.01941
2743.83068	0.01935
2742.54491	0.01925
2741.25914	0.01919
2739.97337	0.01918
2738.68760	0.01915
2737.40183	0.01907
2736.11606	0.01898
2734.83029	0.01894
2733.54453	0.01891
2732.25876	0.01886
2730.97299	0.01874
2729.68722	0.01858
2728.40145	0.01840
2727.11568	0.01833
2725.82991	0.01841
2724.54414	0.01860
2723.25838	0.01875
2721.97261	0.01876
2720.68684	0.01872
2719.40107	0.01873
2718.11530	0.01880
2716.82953	0.01883
2715.54376	0.01880
2714.25799	0.01881
2712.97222	0.01897
2711.68646	0.01920
2710.40069	0.01932
2709.11492	0.01923
2707.82915	0.01896
2706.54338	0.01867
2705.25761	0.01855
2703.97184	0.01858
2702.68607	0.01862
2701.40031	0.01850
2700.11454	0.01826
2698.82877	0.01808
2697.54300	0.01810
2696.25723	0.01826
2694.97146	0.01843
2693.68569	0.01851
2692.39992	0.01853
2691.11415	0.01853
2689.82839	0.01857
2688.54262	0.01867
2687.25685	0.01879
2685.97108	0.01883
2684.68531	0.01871
2683.39954	0.01843
2682.11377	0.01811
2680.82800	0.01786
2679.54224	0.01770
2678.25647	0.01763
2676.97070	0.01765
2675.68493	0.01777
2674.39916	0.01800
2673.11339	0.01823
2671.82762	0.01835
2670.54185	0.01830
2669.25608	0.01819
2667.97032	0.01815
2666.68455	0.01819
2665.39878	0.01823
2664.11301	0.01821
2662.82724	0.01813
2661.54147	0.01802
2660.25570	0.01798
2658.96993	0.01807
2657.68417	0.01824
2656.39840	0.01835
2655.11263	0.01830
2653.82686	0.01808
2652.54109	0.01772
2651.25532	0.01731
2649.96955	0.01701
2648.68378	0.01693
2647.39801	0.01702
2646.11225	0.01716
2644.82648	0.01727
2643.54071	0.01737
2642.25494	0.01740
2640.96917	0.01735
2639.68340	0.01723
2638.39763	0.01712
2637.11186	0.01705
2635.82609	0.01696
2634.54033	0.01682
2633.25456	0.01669
2631.96879	0.01662
2630.68302	0.01659
2629.39725	0.01654
2628.11148	0.01635
2626.82571	0.01605
2625.53994	0.01577
2624.25418	0.01569
2622.96841	0.01581
2621.68264	0.01600
2620.39687	0.01613
2619.11110	0.01612
2617.82533	0.01597
2616.53956	0.01576
2615.25379	0.01555
2613.96802	0.01541
2612.68226	0.01533
2611.39649	0.01525
2610.11072	0.01511
2608.82495	0.01490
2607.53918	0.01473
2606.25341	0.01484
2604.96764	0.01525
2603.68187	0.01571
2602.39611	0.01589
2601.11034	0.01566
2599.82457	0.01521
2598.53880	0.01483
2597.25303	0.01474
2595.96726	0.01484
2594.68149	0.01490
2593.39572	0.01486
2592.10995	0.01487
2590.82419	0.01508
2589.53842	0.01530
2588.25265	0.01520
2586.96688	0.01469
2585.68111	0.01417
2584.39534	0.01410
2583.10957	0.01453
2581.82380	0.01506
2580.53804	0.01524
2579.25227	0.01499
2577.96650	0.01458
2576.68073	0.01431
2575.39496	0.01425
2574.10919	0.01427
2572.82342	0.01423
2571.53765	0.01413
2570.25188	0.01406
2568.96612	0.01404
2567.68035	0.01401
2566.39458	0.01390
2565.10881	0.01373
2563.82304	0.01357
2562.53727	0.01350
2561.25150	0.01364
2559.96573	0.01405
2558.67997	0.01460
2557.39420	0.01504
2556.10843	0.01509
2554.82266	0.01466
2553.53689	0.01390
2552.25112	0.01312
2550.96535	0.01259
2549.67958	0.01244
2548.39381	0.01261
2547.10805	0.01298
2545.82228	0.01344
2544.53651	0.01383
2543.25074	0.01407
2541.96497	0.01417
2540.67920	0.01422
2539.39343	0.01425
2538.10766	0.01420
2536.82190	0.01401
2535.53613	0.01372
2534.25036	0.01341
2532.96459	0.01316
2531.67882	0.01299
2530.39305	0.01301
2529.10728	0.01331
2527.82151	0.01383
2526.53574	0.01431
2525.24998	0.01450
2523.96421	0.01435
2522.67844	0.01405
2521.39267	0.01384
2520.10690	0.01381
2518.82113	0.01378
2517.53536	0.01357
2516.24959	0.01325
2514.96383	0.01314
2513.67806	0.01347
2512.39229	0.01406
2511.10652	0.01452
2509.82075	0.01467
2508.53498	0.01459
2507.24921	0.01440
2505.96344	0.01404
2504.67767	0.01345
2503.39191	0.01281
2502.10614	0.01243
2500.82037	0.01248
2499.53460	0.01282
2498.24883	0.01318
2496.96306	0.01338
2495.67729	0.01345
2494.39152	0.01353
2493.10576	0.01372
2491.81999	0.01401
2490.53422	0.01428
2489.24845	0.01432
2487.96268	0.01400
2486.67691	0.01347
2485.39114	0.01302
2484.10537	0.01283
2482.81960	0.01282
2481.53384	0.01286
2480.24807	0.01286
2478.96230	0.01279
2477.67653	0.01267
2476.39076	0.01259
2475.10499	0.01258
2473.81922	0.01260
2472.53345	0.01259
2471.24769	0.01256
2469.96192	0.01258
2468.67615	0.01269
2467.39038	0.01293
2466.10461	0.01326
2464.81884	0.01356
2463.53307	0.01368
2462.24730	0.01362
2460.96153	0.01349
2459.67577	0.01336
2458.39000	0.01322
2457.10423	0.01308
2455.81846	0.01305
2454.53269	0.01321
2453.24692	0.01339
2451.96115	0.01335
2450.67538	0.01313
2449.38962	0.01300
2448.10385	0.01312
2446.81808	0.01336
2445.53231	0.01347
2444.24654	0.01333
2442.96077	0.01299
2441.67500	0.01248
2440.38923	0.01190
2439.10346	0.01141
2437.81770	0.01122
2436.53193	0.01140
2435.24616	0.01172
2433.96039	0.01189
2432.67462	0.01182
2431.38885	0.01171
2430.10308	0.01181
2428.81731	0.01216
2427.53155	0.01254
2426.24578	0.01275
2424.96001	0.01277
2423.67424	0.01272
2422.38847	0.01279
2421.10270	0.01304
2419.81693	0.01336
2418.53116	0.01355
2417.24539	0.01352
2415.95963	0.01332
2414.67386	0.01307
2413.38809	0.01280
2412.10232	0.01253
2410.81655	0.01232
2409.53078	0.01219
2408.24501	0.01208
2406.95924	0.01205
2405.67347	0.01220
2404.38771	0.01259
2403.10194	0.01299
2401.81617	0.01316
2400.53040	0.01308
2399.24463	0.01300
2397.95886	0.01308
2396.67309	0.01323
2395.38732	0.01329
2394.10156	0.01324
2392.81579	0.01316
2391.53002	0.01315
2390.24425	0.01319
2388.95848	0.01321
2387.67271	0.01317
2386.38694	0.01308
2385.10117	0.01296
2383.81540	0.01287
2382.52964	0.01293
2381.24387	0.01325
2379.95810	0.01383
2378.67233	0.01451
2377.38656	0.01515
2376.10079	0.01554
2374.81502	0.01566
2373.52925	0.01582
2372.24349	0.01604
2370.95772	0.01673
2369.67195	0.01727
2368.38618	0.01763
2367.10041	0.01805
2365.81464	0.01875
2364.52887	0.01892
2363.24310	0.01895
2361.95733	0.01920
2360.67157	0.01981
2359.38580	0.01964
2358.10003	0.01914
2356.81426	0.01860
2355.52849	0.01810
2354.24272	0.01773
2352.95695	0.01701
2351.67118	0.01654
2350.38542	0.01688
2349.09965	0.01720
2347.81388	0.01665
2346.52811	0.01642
2345.24234	0.01689
2343.95657	0.01738
2342.67080	0.01698
2341.38503	0.01696
2340.09926	0.01783
2338.81350	0.01811
2337.52773	0.01769
2336.24196	0.01779
2334.95619	0.01839
2333.67042	0.01836
2332.38465	0.01706
2331.09888	0.01738
2329.81311	0.01818
2328.52735	0.01693
2327.24158	0.01761
2325.95581	0.01914
2324.67004	0.01816
2323.38427	0.01762
2322.09850	0.01811
2320.81273	0.01648
2319.52696	0.01604
2318.24119	0.01634
2316.95543	0.01523
2315.66966	0.01495
2314.38389	0.01482
2313.09812	0.01402
2311.81235	0.01407
2310.52658	0.01380
2309.24081	0.01360
2307.95504	0.01373
2306.66928	0.01325
2305.38351	0.01302
2304.09774	0.01289
2302.81197	0.01282
2301.52620	0.01303
2300.24043	0.01300
2298.95466	0.01292
2297.66889	0.01269
2296.38312	0.01252
2295.09736	0.01254
2293.81159	0.01262
2292.52582	0.01274
2291.24005	0.01271
2289.95428	0.01254
2288.66851	0.01222
2287.38274	0.01182
2286.09697	0.01151
2284.81121	0.01142
2283.52544	0.01152
2282.23967	0.01163
2280.95390	0.01159
2279.66813	0.01136
2278.38236	0.01096
2277.09659	0.01041
2275.81082	0.00979
2274.52505	0.00927
2273.23929	0.00901
2271.95352	0.00898
2270.66775	0.00903
2269.38198	0.00907
2268.09621	0.00911
2266.81044	0.00927
2265.52467	0.00962
2264.23890	0.01018
2262.95314	0.01086
2261.66737	0.01136
2260.38160	0.01131
2259.09583	0.01072
2257.81006	0.00997
2256.52429	0.00939
2255.23852	0.00898
2253.95275	0.00870
2252.66698	0.00856
2251.38122	0.00858
2250.09545	0.00869
2248.80968	0.00866
2247.52391	0.00854
2246.23814	0.00823
2244.95237	0.00794
2243.66660	0.00789
2242.38083	0.00816
2241.09507	0.00857
2239.80930	0.00879
2238.52353	0.00861
2237.23776	0.00823
2235.95199	0.00814
2234.66622	0.00858
2233.38045	0.00923
2232.09468	0.00942
2230.80891	0.00870
2229.52315	0.00728
2228.23738	0.00589
2226.95161	0.00503
2225.66584	0.00459
2224.38007	0.00417
2223.09430	0.00373
2221.80853	0.00364
2220.52276	0.00403
2219.23700	0.00458
2217.95123	0.00505
2216.66546	0.00564
2215.37969	0.00665
2214.09392	0.00777
2212.80815	0.00825
2211.52238	0.00773
2210.23661	0.00677
2208.95084	0.00628
2207.66508	0.00653
2206.37931	0.00698
2205.09354	0.00701
2203.80777	0.00665
2202.52200	0.00646
2201.23623	0.00682
2199.95046	0.00752
2198.66469	0.00804
2197.37893	0.00808
2196.09316	0.00777
2194.80739	0.00739
2193.52162	0.00709
2192.23585	0.00682
2190.95008	0.00653
2189.66431	0.00619
2188.37854	0.00577
2187.09277	0.00535
2185.80701	0.00504
2184.52124	0.00489
2183.23547	0.00462
2181.94970	0.00391
2180.66393	0.00283
2179.37816	0.00191
2178.09239	0.00166
2176.80662	0.00219
2175.52085	0.00323
2174.23509	0.00445
2172.94932	0.00554
2171.66355	0.00631
2170.37778	0.00676
2169.09201	0.00692
2167.80624	0.00667
2166.52047	0.00586
2165.23470	0.00470
2163.94894	0.00355
2162.66317	0.00254
2161.37740	0.00160
2160.09163	0.00091
2158.80586	0.00082
2157.52009	0.00131
2156.23432	0.00191
2154.94855	0.00216
2153.66278	0.00203
2152.37702	0.00181
2151.09125	0.00201
2149.80548	0.00292
2148.51971	0.00425
2147.23394	0.00534
2145.94817	0.00581
2144.66240	0.00575
2143.37663	0.00544
2142.09087	0.00516
2140.80510	0.00502
2139.51933	0.00492
2138.23356	0.00458
2136.94779	0.00403
2135.66202	0.00372
2134.37625	0.00397
2133.09048	0.00458
2131.80471	0.00506
2130.51895	0.00524
2129.23318	0.00529
2127.94741	0.00536
2126.66164	0.00544
2125.37587	0.00550
2124.09010	0.00564
2122.80433	0.00597
2121.51856	0.00644
2120.23280	0.00678
2118.94703	0.00674
2117.66126	0.00630
2116.37549	0.00576
2115.08972	0.00545
2113.80395	0.00547
2112.51818	0.00567
2111.23241	0.00587
2109.94664	0.00593
2108.66088	0.00584
2107.37511	0.00566
2106.08934	0.00551
2104.80357	0.00550
2103.51780	0.00562
2102.23203	0.00566
2100.94626	0.00537
2099.66049	0.00439
2098.37473	0.00348
2097.08896	0.00296
2095.80319	0.00287
2094.51742	0.00318
2093.23165	0.00373
2091.94588	0.00435
2090.66011	0.00486
2089.37434	0.00526
2088.08857	0.00563
2086.80281	0.00600
2085.51704	0.00628
2084.23127	0.00635
2082.94550	0.00614
2081.65973	0.00569
2080.37396	0.00514
2079.08819	0.00474
2077.80242	0.00466
2076.51666	0.00482
2075.23089	0.00498
2073.94512	0.00490
2072.65935	0.00450
2071.37358	0.00385
2070.08781	0.00309
2068.80204	0.00245
2067.51627	0.00215
2066.23050	0.00228
2064.94474	0.00278
2063.65897	0.00350
2062.37320	0.00426
2061.08743	0.00487
2059.80166	0.00505
2058.51589	0.00455
2057.23012	0.00346
2055.94435	0.00237
2054.65859	0.00184
2053.37282	0.00194
2052.08705	0.00223
2050.80128	0.00228
2049.51551	0.00193
2048.22974	0.00128
2046.94397	0.00059
2045.65820	0.00013
2044.37243	0.00007
2043.08667	0.00025
2041.80090	0.00033
2040.51513	0.00007
2039.22936	-0.00043
2037.94359	-0.00083
2036.65782	-0.00091
2035.37205	-0.00077
2034.08628	-0.00066
2032.80052	-0.00061
2031.51475	-0.00036
2030.22898	0.00036
2028.94321	0.00150
2027.65744	0.00269
2026.37167	0.00348
2025.08590	0.00359
2023.80013	0.00306
2022.51436	0.00225
2021.22860	0.00158
2019.94283	0.00129
2018.65706	0.00123
2017.37129	0.00105
2016.08552	0.00042
2014.79975	-0.00051
2013.51398	-0.00113
2012.22821	-0.00082
2010.94245	0.00026
2009.65668	0.00119
2008.37091	0.00124
2007.08514	0.00056
2005.79937	-0.00006
2004.51360	-0.00014
2003.22783	0.00019
2001.94206	0.00063
2000.65629	0.00115
1999.37053	0.00191
1998.08476	0.00290
1996.79899	0.00383
1995.51322	0.00442
1994.22745	0.00477
1992.94168	0.00515
1991.65591	0.00567
1990.37014	0.00620
1989.08438	0.00651
1987.79861	0.00636
1986.51284	0.00558
1985.22707	0.00442
1983.94130	0.00358
1982.65553	0.00368
1981.36976	0.00459
1980.08399	0.00552
1978.79822	0.00583
1977.51246	0.00547
1976.22669	0.00485
1974.94092	0.00441
1973.65515	0.00430
1972.36938	0.00440
1971.08361	0.00451
1969.79784	0.00455
1968.51207	0.00466
1967.22631	0.00496
1965.94054	0.00537
1964.65477	0.00552
1963.36900	0.00504
1962.08323	0.00397
1960.79746	0.00283
1959.51169	0.00232
1958.22592	0.00272
1956.94015	0.00379
1955.65439	0.00507
1954.36862	0.00617
1953.08285	0.00684
1951.79708	0.00700
1950.51131	0.00684
1949.22554	0.00666
1947.93977	0.00659
1946.65400	0.00646
1945.36823	0.00600
1944.08247	0.00527
1942.79670	0.00464
1941.51093	0.00449
1940.22516	0.00483
1938.93939	0.00545
1937.65362	0.00609
1936.36785	0.00658
1935.08208	0.00677
1933.79632	0.00671
1932.51055	0.00661
1931.22478	0.00670
1929.93901	0.00693
1928.65324	0.00711
1927.36747	0.00713
1926.08170	0.00706
1924.79593	0.00701
1923.51016	0.00701
1922.22440	0.00698
1920.93863	0.00687
1919.65286	0.00670
1918.36709	0.00659
1917.08132	0.00666
1915.79555	0.00690
1914.50978	0.00721
1913.22401	0.00744
1911.93825	0.00751
1910.65248	0.00740
1909.36671	0.00723
1908.08094	0.00711
1906.79517	0.00705
1905.50940	0.00701
1904.22363	0.00696
1902.93786	0.00692
1901.65209	0.00691
1900.36633	0.00694
1899.08056	0.00696
1897.79479	0.00697
1896.50902	0.00704
1895.22325	0.00722
1893.93748	0.00741
1892.65171	0.00742
1891.36594	0.00719
1890.08018	0.00689
1888.79441	0.00682
1887.50864	0.00703
1886.22287	0.00724
1884.93710	0.00715
1883.65133	0.00674
1882.36556	0.00629
1881.07979	0.00611
1879.79402	0.00633
1878.50826	0.00683
1877.22249	0.00743
1875.93672	0.00789
1874.65095	0.00806
1873.36518	0.00796
1872.07941	0.00771
1870.79364	0.00747
1869.50787	0.00731
1868.22211	0.00721
1866.93634	0.00715
1865.65057	0.00715
1864.36480	0.00726
1863.07903	0.00747
1861.79326	0.00767
1860.50749	0.00773
1859.22172	0.00763
1857.93595	0.00745
1856.65019	0.00731
1855.36442	0.00731
1854.07865	0.00747
1852.79288	0.00775
1851.50711	0.00807
1850.22134	0.00832
1848.93557	0.00844
1847.64980	0.00839
1846.36404	0.00817
1845.07827	0.00789
1843.79250	0.00771
1842.50673	0.00769
1841.22096	0.00774
1839.93519	0.00777
1838.64942	0.00781
1837.36365	0.00792
1836.07788	0.00815
1834.79212	0.00844
1833.50635	0.00872
1832.22058	0.00889
1830.93481	0.00889
1829.64904	0.00870
1828.36327	0.00843
1827.07750	0.00819
1825.79173	0.00806
1824.50597	0.00802
1823.22020	0.00795
1821.93443	0.00784
1820.64866	0.00777
1819.36289	0.00784
1818.07712	0.00803
1816.79135	0.00825
1815.50558	0.00840
1814.21981	0.00842
1812.93405	0.00835
1811.64828	0.00827
1810.36251	0.00826
1809.07674	0.00830
1807.79097	0.00838
1806.50520	0.00850
1805.21943	0.00863
1803.93366	0.00869
1802.64790	0.00864
1801.36213	0.00850
1800.07636	0.00833
1798.79059	0.00818
1797.50482	0.00808
1796.21905	0.00804
1794.93328	0.00804
1793.64751	0.00806
1792.36174	0.00811
1791.07598	0.00818
1789.79021	0.00825
1788.50444	0.00827
1787.21867	0.00826
1785.93290	0.00824
1784.64713	0.00825
1783.36136	0.00824
1782.07559	0.00818
1780.78983	0.00811
1779.50406	0.00809
1778.21829	0.00821
1776.93252	0.00846
1775.64675	0.00871
1774.36098	0.00881
1773.07521	0.00875
1771.78944	0.00865
1770.50367	0.00860
1769.21791	0.00859
1767.93214	0.00855
1766.64637	0.00847
1765.36060	0.00837
1764.07483	0.00826
1762.78906	0.00818
1761.50329	0.00816
1760.21752	0.00811
1758.93176	0.00799
1757.64599	0.00783
1756.36022	0.00776
1755.07445	0.00778
1753.78868	0.00775
1752.50291	0.00758
1751.21714	0.00733
1749.93137	0.00708
1748.64560	0.00683
1747.35984	0.00654
1746.07407	0.00623
1744.78830	0.00593
1743.50253	0.00568
1742.21676	0.00544
1740.93099	0.00523
1739.64522	0.00513
1738.35945	0.00524
1737.07369	0.00550
1735.78792	0.00576
1734.50215	0.00598
1733.21638	0.00623
1731.93061	0.00647
1730.64484	0.00661
1729.35907	0.00664
1728.07330	0.00669
1726.78753	0.00682
1725.50177	0.00703
1724.21600	0.00731
1722.93023	0.00761
1721.64446	0.00789
1720.35869	0.00806
1719.07292	0.00813
1717.78715	0.00820
1716.50138	0.00835
1715.21561	0.00857
1713.92985	0.00879
1712.64408	0.00902
1711.35831	0.00931
1710.07254	0.00961
1708.78677	0.00988
1707.50100	0.01009
1706.21523	0.01029
1704.92946	0.01056
1703.64370	0.01090
1702.35793	0.01124
1701.07216	0.01160
1699.78639	0.01208
1698.50062	0.01258
1697.21485	0.01289
1695.92908	0.01305
1694.64331	0.01324
1693.35754	0.01348
1692.07178	0.01372
1690.78601	0.01401
1689.50024	0.01443
1688.21447	0.01494
1686.92870	0.01540
1685.64293	0.01575
1684.35716	0.01610
1683.07139	0.01650
1681.78563	0.01684
1680.49986	0.01711
1679.21409	0.01743
1677.92832	0.01783
1676.64255	0.01822
1675.35678	0.01853
1674.07101	0.01878
1672.78524	0.01902
1671.49947	0.01929
1670.21371	0.01960
1668.92794	0.01996
1667.64217	0.02034
1666.35640	0.02068
1665.07063	0.02094
1663.78486	0.02112
1662.49909	0.02126
1661.21332	0.02142
1659.92756	0.02161
1658.64179	0.02187
1657.35602	0.02222
1656.07025	0.02256
1654.78448	0.02275
1653.49871	0.02285
1652.21294	0.02300
1650.92717	0.02321
1649.64140	0.02333
1648.35564	0.02333
1647.06987	0.02333
1645.78410	0.02343
1644.49833	0.02359
1643.21256	0.02371
1641.92679	0.02373
1640.64102	0.02371
1639.35525	0.02367
1638.06949	0.02359
1636.78372	0.02344
1635.49795	0.02327
1634.21218	0.02314
1632.92641	0.02303
1631.64064	0.02291
1630.35487	0.02278
1629.06910	0.02266
1627.78333	0.02255
1626.49757	0.02243
1625.21180	0.02228
1623.92603	0.02210
1622.64026	0.02193
1621.35449	0.02175
1620.06872	0.02151
1618.78295	0.02120
1617.49718	0.02092
1616.21142	0.02079
1614.92565	0.02079
1613.63988	0.02077
1612.35411	0.02064
1611.06834	0.02048
1609.78257	0.02035
1608.49680	0.02029
1607.21103	0.02028
1605.92526	0.02026
1604.63950	0.02018
1603.35373	0.02001
1602.06796	0.01979
1600.78219	0.01959
1599.49642	0.01949
1598.21065	0.01949
1596.92488	0.01956
1595.63911	0.01964
1594.35335	0.01975
1593.06758	0.01991
1591.78181	0.02009
1590.49604	0.02021
1589.21027	0.02024
1587.92450	0.02021
1586.63873	0.02022
1585.35296	0.02031
1584.06719	0.02046
1582.78143	0.02065
1581.49566	0.02083
1580.20989	0.02101
1578.92412	0.02116
1577.63835	0.02124
1576.35258	0.02136
1575.06681	0.02159
1573.78104	0.02190
1572.49528	0.02216
1571.20951	0.02232
1569.92374	0.02243
1568.63797	0.02253
1567.35220	0.02258
1566.06643	0.02259
1564.78066	0.02267
1563.49489	0.02287
1562.20912	0.02314
1560.92336	0.02335
1559.63759	0.02352
1558.35182	0.02374
1557.06605	0.02399
1555.78028	0.02414
1554.49451	0.02420
1553.20874	0.02426
1551.92297	0.02432
1550.63721	0.02437
1549.35144	0.02442
1548.06567	0.02449
1546.77990	0.02455
1545.49413	0.02460
1544.20836	0.02460
1542.92259	0.02455
1541.63682	0.02444
1540.35105	0.02432
1539.06529	0.02427
1537.77952	0.02430
1536.49375	0.02433
1535.20798	0.02430
1533.92221	0.02428
1532.63644	0.02432
1531.35067	0.02437
1530.06490	0.02441
1528.77914	0.02448
1527.49337	0.02462
1526.20760	0.02483
1524.92183	0.02508
1523.63606	0.02531
1522.35029	0.02553
1521.06452	0.02579
1519.77875	0.02612
1518.49298	0.02645
1517.20722	0.02676
1515.92145	0.02712
1514.63568	0.02751
1513.34991	0.02787
1512.06414	0.02821
1510.77837	0.02857
1509.49260	0.02897
1508.20683	0.02937
1506.92107	0.02981
1505.63530	0.03031
1504.34953	0.03083
1503.06376	0.03123
1501.77799	0.03153
1500.49222	0.03179
1499.20645	0.03207
1497.92068	0.03231
1496.63491	0.03251
1495.34915	0.03270
1494.06338	0.03291
1492.77761	0.03313
1491.49184	0.03335
1490.20607	0.03360
1488.92030	0.03388
1487.63453	0.03418
1486.34876	0.03450
1485.06299	0.03482
1483.77723	0.03516
1482.49146	0.03551
1481.20569	0.03591
1479.91992	0.03635
1478.63415	0.03678
1477.34838	0.03717
1476.06261	0.03748
1474.77684	0.03771
1473.49108	0.03789
1472.20531	0.03810
1470.91954	0.03835
1469.63377	0.03860
1468.34800	0.03879
1467.06223	0.03894
1465.77646	0.03907
1464.49069	0.03926
1463.20492	0.03953
1461.91916	0.03989
1460.63339	0.04033
1459.34762	0.04075
1458.06185	0.04112
1456.77608	0.04145
1455.49031	0.04180
1454.20454	0.04210
1452.91877	0.04229
1451.63301	0.04239
1450.34724	0.04244
1449.06147	0.04247
1447.77570	0.04248
1446.48993	0.04248
1445.20416	0.04245
1443.91839	0.04237
1442.63262	0.04230
1441.34685	0.04226
1440.06109	0.04226
1438.77532	0.04223
1437.48955	0.04217
1436.20378	0.04216
1434.91801	0.04225
1433.63224	0.04242
1432.34647	0.04265
1431.06070	0.04296
1429.77494	0.04337
1428.48917	0.04386
1427.20340	0.04439
1425.91763	0.04493
1424.63186	0.04547
1423.34609	0.04606
1422.06032	0.04665
1420.77455	0.04717
1419.48878	0.04758
1418.20302	0.04789
1416.91725	0.04811
1415.63148	0.04826
1414.34571	0.04840
1413.05994	0.04851
1411.77417	0.04852
1410.48840	0.04843
1409.20263	0.04824
1407.91687	0.04797
1406.63110	0.04760
1405.34533	0.04712
1404.05956	0.04655
1402.77379	0.04592
1401.48802	0.04526
1400.20225	0.04455
1398.91648	0.04379
1397.63071	0.04294
1396.34495	0.04201
1395.05918	0.04103
1393.77341	0.04007
1392.48764	0.03915
1391.20187	0.03826
1389.91610	0.03736
1388.63033	0.03647
1387.34456	0.03561
1386.05880	0.03478
1384.77303	0.03394
1383.48726	0.03309
1382.20149	0.03221
1380.91572	0.03131
1379.62995	0.03044
1378.34418	0.02961
1377.05841	0.02884
1375.77264	0.02811
1374.48688	0.02739
1373.20111	0.02670
1371.91534	0.02604
1370.62957	0.02537
1369.34380	0.02470
1368.05803	0.02403
1366.77226	0.02340
1365.48649	0.02278
1364.20073	0.02218
1362.91496	0.02160
1361.62919	0.02104
1360.34342	0.02053
1359.05765	0.02008
1357.77188	0.01969
1356.48611	0.01937
1355.20034	0.01908
1353.91457	0.01882
1352.62881	0.01857
1351.34304	0.01835
1350.05727	0.01816
1348.77150	0.01795
1347.48573	0.01770
1346.19996	0.01742
1344.91419	0.01717
1343.62842	0.01697
1342.34266	0.01682
1341.05689	0.01667
1339.77112	0.01650
1338.48535	0.01630
1337.19958	0.01609
1335.91381	0.01589
1334.62804	0.01571
1333.34227	0.01555
1332.05650	0.01543
1330.77074	0.01534
1329.48497	0.01524
1328.19920	0.01512
1326.91343	0.01499
1325.62766	0.01489
1324.34189	0.01481
1323.05612	0.01474
1321.77035	0.01464
1320.48459	0.01448
1319.19882	0.01431
1317.91305	0.01416
1316.62728	0.01405
1315.34151	0.01399
1314.05574	0.01395
1312.76997	0.01389
1311.48420	0.01377
1310.19843	0.01360
1308.91267	0.01343
1307.62690	0.01332
1306.34113	0.01325
1305.05536	0.01319
1303.76959	0.01309
1302.48382	0.01294
1301.19805	0.01276
1299.91228	0.01261
1298.62652	0.01252
1297.34075	0.01247
1296.05498	0.01241
1294.76921	0.01233
1293.48344	0.01222
1292.19767	0.01215
1290.91190	0.01215
1289.62613	0.01218
1288.34036	0.01220
1287.05460	0.01219
1285.76883	0.01215
1284.48306	0.01211
1283.19729	0.01209
1281.91152	0.01205
1280.62575	0.01196
1279.33998	0.01181
1278.05421	0.01167
1276.76845	0.01157
1275.48268	0.01153
1274.19691	0.01153
1272.91114	0.01154
1271.62537	0.01152
1270.33960	0.01148
1269.05383	0.01141
1267.76806	0.01134
1266.48229	0.01127
1265.19653	0.01119
1263.91076	0.01110
1262.62499	0.01100
1261.33922	0.01092
1260.05345	0.01088
1258.76768	0.01088
1257.48191	0.01090
1256.19614	0.01092
1254.91037	0.01093
1253.62461	0.01092
1252.33884	0.01091
1251.05307	0.01087
1249.76730	0.01081
1248.48153	0.01076
1247.19576	0.01076
1245.90999	0.01080
1244.62422	0.01085
1243.33846	0.01089
1242.05269	0.01092
1240.76692	0.01093
1239.48115	0.01093
1238.19538	0.01092
1236.90961	0.01087
1235.62384	0.01080
1234.33807	0.01071
1233.05230	0.01064
1231.76654	0.01060
1230.48077	0.01059
1229.19500	0.01056
1227.90923	0.01050
1226.62346	0.01043
1225.33769	0.01037
1224.05192	0.01035
1222.76615	0.01033
1221.48039	0.01030
1220.19462	0.01026
1218.90885	0.01022
1217.62308	0.01020
1216.33731	0.01017
1215.05154	0.01014
1213.76577	0.01011
1212.48000	0.01007
1211.19423	0.01003
1209.90847	0.01000
1208.62270	0.01000
1207.33693	0.01002
1206.05116	0.01003
1204.76539	0.01003
1203.47962	0.01002
1202.19385	0.01000
1200.90808	0.00999
1199.62232	0.01002
1198.33655	0.01003
1197.05078	0.01007
1195.76501	0.01012
1194.47924	0.01014
1193.19347	0.01013
1191.90770	0.01011
1190.62193	0.01007
1189.33616	0.01000
1188.05040	0.00989
1186.76463	0.00982
1185.47886	0.00982
1184.19309	0.00986
1182.90732	0.00986
1181.62155	0.00979
1180.33578	0.00969
1179.05001	0.00963
1177.76425	0.00968
1176.47848	0.00983
1175.19271	0.01001
1173.90694	0.01015
1172.62117	0.01023
1171.33540	0.01028
1170.04963	0.01037
1168.76386	0.01054
1167.47809	0.01076
1166.19233	0.01099
1164.90656	0.01120
1163.62079	0.01134
1162.33502	0.01142
1161.04925	0.01147
1159.76348	0.01155
1158.47771	0.01167
1157.19194	0.01184
1155.90618	0.01205
1154.62041	0.01229
1153.33464	0.01251
1152.04887	0.01270
1150.76310	0.01283
1149.47733	0.01298
1148.19156	0.01321
1146.90579	0.01355
1145.62002	0.01397
1144.33426	0.01443
1143.04849	0.01491
1141.76272	0.01539
1140.47695	0.01590
1139.19118	0.01646
1137.90541	0.01711
1136.61964	0.01786
1135.33387	0.01867
1134.04811	0.01953
1132.76234	0.02045
1131.47657	0.02146
1130.19080	0.02258
1128.90503	0.02382
1127.61926	0.02519
1126.33349	0.02670
1125.04772	0.02830
1123.76195	0.02994
1122.47619	0.03158
1121.19042	0.03327
1119.90465	0.03504
1118.61888	0.03691
1117.33311	0.03886
1116.04734	0.04082
1114.76157	0.04273
1113.47580	0.04458
1112.19004	0.04639
1110.90427	0.04822
1109.61850	0.05009
1108.33273	0.05193
1107.04696	0.05368
1105.76119	0.05533
1104.47542	0.05691
1103.18965	0.05845
1101.90388	0.05991
1100.61812	0.06129
1099.33235	0.06263
1098.04658	0.06397
1096.76081	0.06533
1095.47504	0.06666
1094.18927	0.06787
1092.90350	0.06893
1091.61773	0.06989
1090.33197	0.07081
1089.04620	0.07175
1087.76043	0.07274
1086.47466	0.07381
1085.18889	0.07497
1083.90312	0.07612
1082.61735	0.07723
1081.33158	0.07836
1080.04581	0.07960
1078.76005	0.08095
1077.47428	0.08240
1076.18851	0.08394
1074.90274	0.08555
1073.61697	0.08717
1072.33120	0.08877
1071.04543	0.09033
1069.75966	0.09194
1068.47390	0.09367
1067.18813	0.09552
1065.90236	0.09746
1064.61659	0.09942
1063.33082	0.10134
1062.04505	0.10319
1060.75928	0.10500
1059.47351	0.10682
1058.18774	0.10863
1056.90198	0.11041
1055.61621	0.11212
1054.33044	0.11380
1053.04467	0.11551
1051.75890	0.11727
1050.47313	0.11907
1049.18736	0.12093
1047.90159	0.12285
1046.61583	0.12480
1045.33006	0.12670
1044.04429	0.12850
1042.75852	0.13022
1041.47275	0.13194
1040.18698	0.13371
1038.90121	0.13554
1037.61544	0.13741
1036.32967	0.13928
1035.04391	0.14104
1033.75814	0.14259
1032.47237	0.14395
1031.18660	0.14518
1029.90083	0.14629
1028.61506	0.14720
1027.32929	0.14787
1026.04352	0.14831
1024.75775	0.14857
1023.47199	0.14861
1022.18622	0.14838
1020.90045	0.14787
1019.61468	0.14714
1018.32891	0.14623
1017.04314	0.14510
1015.75737	0.14376
1014.47160	0.14216
1013.18584	0.14032
1011.90007	0.13825
1010.61430	0.13597
1009.32853	0.13344
1008.04276	0.13065
1006.75699	0.12761
1005.47122	0.12437
1004.18545	0.12101
1002.89968	0.11757
1001.61392	0.11408
1000.32815	0.11053
999.04238	0.10686
997.75661	0.10310
996.47084	0.09928
995.18507	0.09552
993.89930	0.09191
992.61353	0.08846
991.32777	0.08514
990.04200	0.08194
988.75623	0.07891
987.47046	0.07607
986.18469	0.07334
984.89892	0.07067
983.61315	0.06804
982.32738	0.06551
981.04161	0.06316
979.75585	0.06105
978.47008	0.05919
977.18431	0.05753
975.89854	0.05601
974.61277	0.05459
973.32700	0.05329
972.04123	0.05222
970.75546	0.05147
969.46970	0.05110
968.18393	0.05107
966.89816	0.05127
965.61239	0.05160
964.32662	0.05196
963.04085	0.05228
961.75508	0.05245
960.46931	0.05242
959.18354	0.05215
957.89778	0.05164
956.61201	0.05088
955.32624	0.04991
954.04047	0.04883
952.75470	0.04769
951.46893	0.04650
950.18316	0.04523
948.89739	0.04391
947.61163	0.04267
946.32586	0.04161
945.04009	0.04072
943.75432	0.03994
942.46855	0.03917
941.18278	0.03839
939.89701	0.03757
938.61124	0.03676
937.32547	0.03598
936.03971	0.03527
934.75394	0.03460
933.46817	0.03394
932.18240	0.03329
930.89663	0.03268
929.61086	0.03213
928.32509	0.03163
927.03932	0.03117
925.75356	0.03074
924.46779	0.03033
923.18202	0.02996
921.89625	0.02962
920.61048	0.02933
919.32471	0.02908
918.03894	0.02884
916.75317	0.02860
915.46740	0.02835
914.18164	0.02809
912.89587	0.02783
911.61010	0.02760
910.32433	0.02741
909.03856	0.02724
907.75279	0.02702
906.46702	0.02673
905.18125	0.02641
903.89549	0.02612
902.60972	0.02587
901.32395	0.02568
900.03818	0.02551
898.75241	0.02535
897.46664	0.02517
896.18087	0.02497
894.89510	0.02478
893.60933	0.02457
892.32357	0.02437
891.03780	0.02422
889.75203	0.02421
888.46626	0.02437
887.18049	0.02470
885.89472	0.02518
884.60895	0.02588
883.32318	0.02686
882.03742	0.02811
880.75165	0.02945
879.46588	0.03061
878.18011	0.03148
876.89434	0.03219
875.60857	0.03291
874.32280	0.03364
873.03703	0.03419
871.75126	0.03439
870.46550	0.03418
869.17973	0.03365
867.89396	0.03286
866.60819	0.03191
865.32242	0.03086
864.03665	0.02974
862.75088	0.02863
861.46511	0.02762
860.17935	0.02680
858.89358	0.02615
857.60781	0.02557
856.32204	0.02500
855.03627	0.02445
853.75050	0.02396
852.46473	0.02355
851.17896	0.02325
849.89319	0.02305
848.60743	0.02290
847.32166	0.02275
846.03589	0.02258
844.75012	0.02241
843.46435	0.02223
842.17858	0.02202
840.89281	0.02182
839.60704	0.02167
838.32128	0.02153
837.03551	0.02137
835.74974	0.02115
834.46397	0.02097
833.17820	0.02086
831.89243	0.02082
830.60666	0.02079
829.32089	0.02073
828.03512	0.02067
826.74936	0.02059
825.46359	0.02046
824.17782	0.02029
822.89205	0.02010
821.60628	0.01993
820.32051	0.01981
819.03474	0.01979
817.74897	0.01985
816.46321	0.01992
815.17744	0.01995
813.89167	0.01993
812.60590	0.01988
811.32013	0.01981
810.03436	0.01972
808.74859	0.01964
807.46282	0.01961
806.17705	0.01962
804.89129	0.01967
803.60552	0.01971
802.31975	0.01972
801.03398	0.01970
799.74821	0.01968
798.46244	0.01969
797.17667	0.01977
795.89090	0.01990
794.60513	0.02004
793.31937	0.02011
792.03360	0.02008
790.74783	0.01998
789.46206	0.01989
788.17629	0.01983
786.89052	0.01980
785.60475	0.01978
784.31898	0.01976
783.03322	0.01978
781.74745	0.01983
780.46168	0.01989
779.17591	0.01992
777.89014	0.01997
776.60437	0.02002
775.31860	0.02004
774.03283	0.02002
772.74706	0.02001
771.46130	0.02002
770.17553	0.02003
768.88976	0.02000
767.60399	0.01993
766.31822	0.01985
765.03245	0.01980
763.74668	0.01983
762.46091	0.01995
761.17515	0.02011
759.88938	0.02024
758.60361	0.02030
757.31784	0.02032
756.03207	0.02031
754.74630	0.02025
753.46053	0.02014
752.17476	0.02006
750.88899	0.02007
749.60323	0.02017
748.31746	0.02023
747.03169	0.02019
745.74592	0.02009
744.46015	0.01999
743.17438	0.01992
741.88861	0.01986
740.60284	0.01979
739.31708	0.01972
738.03131	0.01961
736.74554	0.01947
735.45977	0.01937
734.17400	0.01938
732.88823	0.01953
731.60246	0.01974
730.31669	0.01992
729.03092	0.02000
727.74516	0.02003
726.45939	0.02007
725.17362	0.02012
723.88785	0.02018
722.60208	0.02008
721.31631	0.01986
720.03054	0.01965
718.74477	0.01953
717.45901	0.01945
716.17324	0.01946
714.88747	0.01956
713.60170	0.01970
712.31593	0.01983
711.03016	0.01989
709.74439	0.01990
708.45862	0.01986
707.17285	0.01982
705.88709	0.01979
704.60132	0.01977
703.31555	0.01978
702.02978	0.01982
700.74401	0.01989
699.45824	0.01997
698.17247	0.02003
696.88670	0.02007
695.60094	0.02008
694.31517	0.02008
693.02940	0.02005
691.74363	0.02001
690.45786	0.01999
689.17209	0.02000
687.88632	0.02003
686.60055	0.02004
685.31478	0.02003
684.02902	0.02000
682.74325	0.01997
681.45748	0.01993
680.17171	0.01986
678.88594	0.01976
677.60017	0.01965
676.31440	0.01962
675.02863	0.01966
673.74287	0.01973
672.45710	0.01993
671.17133	0.02047
669.88556	0.02097
668.59979	0.02020
667.31402	0.02010
666.02825	0.02123
664.74248	0.02068
663.45671	0.02005
662.17095	0.01985
660.88518	0.01978
659.59941	0.01972
658.31364	0.01964
657.02787	0.01954
655.74210	0.01944
654.45633	0.01938
653.17056	0.01938
651.88480	0.01946
650.59903	0.01959
649.31326	0.01971
648.02749	0.01979
646.74172	0.01977
645.45595	0.01972
644.17018	0.01968
642.88441	0.01968
641.59864	0.01971
640.31288	0.01976
639.02711	0.01987
637.74134	0.02005
636.45557	0.02031
635.16980	0.02059
633.88403	0.02081
632.59826	0.02094
631.31249	0.02096
630.02673	0.02073
628.74096	0.02044
627.45519	0.02088
626.16942	0.02072
624.88365	0.02035
623.59788	0.02054
622.31211	0.02159
621.02634	0.02338
619.74057	0.02574
618.45481	0.02856
617.16904	0.03157
615.88327	0.03426
614.59750	0.03608
613.31173	0.03695
612.02596	0.03758
610.74019	0.03919
609.45442	0.04229
608.16866	0.04617
606.88289	0.04979
605.59712	0.05289
604.31135	0.05557
603.02558	0.05754
601.73981	0.05827
600.45404	0.05760
599.16827	0.05596
597.88250	0.05396
596.59674	0.05205
595.31097	0.05041
594.02520	0.04908
592.73943	0.04803
591.45366	0.04727
590.16789	0.04686
588.88212	0.04685
587.59635	0.04723
586.31059	0.04795
585.02482	0.04894
583.73905	0.05013
582.45328	0.05144
581.16751	0.05280
579.88174	0.05417
578.59597	0.05559
577.31020	0.05707
576.02443	0.05858
574.73867	0.06007
573.45290	0.06151
572.16713	0.06295
570.88136	0.06444
569.59559	0.06607
568.30982	0.06793
567.02405	0.07006
565.73828	0.07230
564.45251	0.07430
563.16675	0.07565
561.88098	0.07608
560.59521	0.07554
559.30944	0.07403
558.02367	0.07158
556.73790	0.06828
555.45213	0.06442
554.16636	0.06042
552.88060	0.05667
551.59483	0.05339
550.30906	0.05053
549.02329	0.04797
547.73752	0.04564
546.45175	0.04359
545.16598	0.04188
543.88021	0.04047
542.59444	0.03927
541.30868	0.03815
540.02291	0.03710
538.73714	0.03613
537.45137	0.03525
536.16560	0.03447
534.87983	0.03370
533.59406	0.03290
532.30829	0.03207
531.02253	0.03126
529.73676	0.03054
528.45099	0.02992
527.16522	0.02936
525.87945	0.02885
524.59368	0.02838
523.30791	0.02797
522.02214	0.02755
520.73637	0.02702
519.45061	0.02640
518.16484	0.02581
516.87907	0.02536
515.59330	0.02506
514.30753	0.02484
513.02176	0.02464
511.73599	0.02442
510.45022	0.02417
509.16446	0.02386
507.87869	0.02351
506.59292	0.02317
505.30715	0.02287
504.02138	0.02264
502.73561	0.02249
501.44984	0.02240
500.16407	0.02230
498.87830	0.02213
497.59254	0.02192
496.30677	0.02174
495.02100	0.02163
493.73523	0.02151
492.44946	0.02132
491.16369	0.02108
489.87792	0.02088
488.59215	0.02079
487.30639	0.02080
486.02062	0.02086
484.73485	0.02095
483.44908	0.02110
482.16331	0.02135
480.87754	0.02167
479.59177	0.02197
478.30600	0.02218
477.02023	0.02233
475.73447	0.02248
474.44870	0.02268
473.16293	0.02293
471.87716	0.02316
470.59139	0.02329
469.30562	0.02328
468.01985	0.02313
466.73408	0.02290
465.44832	0.02261
464.16255	0.02232
462.87678	0.02204
461.59101	0.02184
460.30524	0.02173
459.01947	0.02168
457.73370	0.02164
456.44793	0.02153
455.16216	0.02131
453.87640	0.02101
452.59063	0.02070
451.30486	0.02046
450.01909	0.02033
448.73332	0.02028
447.44755	0.02030
446.16178	0.02032
444.87601	0.02031
443.59025	0.02023
442.30448	0.02008
441.01871	0.01991
439.73294	0.01976
438.44717	0.01964
437.16140	0.01952
435.87563	0.01945
434.58986	0.01944
433.30409	0.01950
432.01833	0.01957
430.73256	0.01959
429.44679	0.01953
428.16102	0.01944
426.87525	0.01939
425.58948	0.01938
424.30371	0.01938
423.01794	0.01936
421.73218	0.01926
420.44641	0.01911
419.16064	0.01896
417.87487	0.01886
416.58910	0.01878
415.30333	0.01868
414.01756	0.01854
412.73179	0.01835
411.44602	0.01815
410.16026	0.01796
408.87449	0.01783
407.58872	0.01777
406.30295	0.01781
405.01718	0.01792
403.73141	0.01806
402.44564	0.01818
401.15987	0.01827
399.87411	0.01835
