3997.45528	0.01544
3996.16951	0.01640
3994.88374	0.01710
3993.59798	0.01734
3992.31221	0.01717
3991.02644	0.01679
3989.74067	0.01634
3988.45490	0.01597
3987.16913	0.01578
3985.88336	0.01579
3984.59759	0.01590
3983.31183	0.01599
3982.02606	0.01600
3980.74029	0.01593
3979.45452	0.01588
3978.16875	0.01596
3976.88298	0.01619
3975.59721	0.01640
3974.31144	0.01633
3973.02567	0.01591
3971.73991	0.01525
3970.45414	0.01460
3969.16837	0.01418
3967.88260	0.01420
3966.59683	0.01472
3965.31106	0.01552
3964.02529	0.01613
3962.73952	0.01612
3961.45376	0.01546
3960.16799	0.01452
3958.88222	0.01384
3957.59645	0.01378
3956.31068	0.01425
3955.02491	0.01493
3953.73914	0.01551
3952.45337	0.01598
3951.16760	0.01649
3949.88184	0.01708
3948.59607	0.01758
3947.31030	0.01774
3946.02453	0.01745
3944.73876	0.01681
3943.45299	0.01604
3942.16722	0.01545
3940.88145	0.01527
3939.59569	0.01552
3938.30992	0.01592
3937.02415	0.01608
3935.73838	0.01586
3934.45261	0.01543
3933.16684	0.01509
3931.88107	0.01504
3930.59530	0.01538
3929.30953	0.01607
3928.02377	0.01689
3926.73800	0.01745
3925.45223	0.01742
3924.16646	0.01686
3922.88069	0.01610
3921.59492	0.01556
3920.30915	0.01549
3919.02338	0.01589
3917.73762	0.01648
3916.45185	0.01685
3915.16608	0.01678
3913.88031	0.01646
3912.59454	0.01627
3911.30877	0.01643
3910.02300	0.01688
3908.73723	0.01739
3907.45146	0.01779
3906.16570	0.01800
3904.87993	0.01795
3903.59416	0.01756
3902.30839	0.01683
3901.02262	0.01605
3899.73685	0.01563
3898.45108	0.01563
3897.16531	0.01577
3895.87955	0.01589
3894.59378	0.01616
3893.30801	0.01674
3892.02224	0.01741
3890.73647	0.01776
3889.45070	0.01768
3888.16493	0.01741
3886.87916	0.01721
3885.59339	0.01714
3884.30763	0.01706
3883.02186	0.01689
3881.73609	0.01675
3880.45032	0.01677
3879.16455	0.01687
3877.87878	0.01680
3876.59301	0.01648
3875.30724	0.01607
3874.02148	0.01579
3872.73571	0.01567
3871.44994	0.01569
3870.16417	0.01582
3868.87840	0.01598
3867.59263	0.01600
3866.30686	0.01568
3865.02109	0.01498
3863.73532	0.01419
3862.44956	0.01376
3861.16379	0.01399
3859.87802	0.01479
3858.59225	0.01571
3857.30648	0.01634
3856.02071	0.01659
3854.73494	0.01658
3853.44917	0.01632
3852.16341	0.01566
3850.87764	0.01469
3849.59187	0.01393
3848.30610	0.01399
3847.02033	0.01502
3845.73456	0.01658
3844.44879	0.01797
3843.16302	0.01862
3841.87725	0.01842
3840.59149	0.01771
3839.30572	0.01697
3838.01995	0.01644
3836.73418	0.01601
3835.44841	0.01555
3834.16264	0.01522
3832.87687	0.01533
3831.59110	0.01593
3830.30534	0.01667
3829.01957	0.01705
3827.73380	0.01692
3826.44803	0.01646
3825.16226	0.01599
3823.87649	0.01571
3822.59072	0.01566
3821.30495	0.01579
3820.01918	0.01608
3818.73342	0.01643
3817.44765	0.01673
3816.16188	0.01690
3814.87611	0.01702
3813.59034	0.01720
3812.30457	0.01751
3811.01880	0.01791
3809.73303	0.01822
3808.44726	0.01813
3807.16150	0.01749
3805.87573	0.01655
3804.58996	0.01586
3803.30419	0.01579
3802.01842	0.01621
3800.73265	0.01671
3799.44688	0.01709
3798.16111	0.01738
3796.87535	0.01764
3795.58958	0.01784
3794.30381	0.01788
3793.01804	0.01776
3791.73227	0.01762
3790.44650	0.01757
3789.16073	0.01754
3787.87496	0.01742
3786.58919	0.01726
3785.30343	0.01717
3784.01766	0.01711
3782.73189	0.01692
3781.44612	0.01650
3780.16035	0.01598
3778.87458	0.01549
3777.58881	0.01504
3776.30304	0.01465
3775.01728	0.01433
3773.73151	0.01408
3772.44574	0.01389
3771.15997	0.01388
3769.87420	0.01427
3768.58843	0.01511
3767.30266	0.01606
3766.01689	0.01665
3764.73112	0.01660
3763.44536	0.01596
3762.15959	0.01504
3760.87382	0.01415
3759.58805	0.01361
3758.30228	0.01362
3757.01651	0.01414
3755.73074	0.01475
3754.44497	0.01491
3753.15921	0.01447
3751.87344	0.01386
3750.58767	0.01373
3749.30190	0.01427
3748.01613	0.01514
3746.73036	0.01584
3745.44459	0.01602
3744.15882	0.01575
3742.87305	0.01546
3741.58729	0.01562
3740.30152	0.01624
3739.01575	0.01678
3737.72998	0.01667
3736.44421	0.01600
3735.15844	0.01534
3733.87267	0.01508
3732.58690	0.01510
3731.30114	0.01510
3730.01537	0.01494
3728.72960	0.01473
3727.44383	0.01460
3726.15806	0.01465
3724.87229	0.01487
3723.58652	0.01517
3722.30075	0.01544
3721.01498	0.01560
3719.72922	0.01569
3718.44345	0.01593
3717.15768	0.01645
3715.87191	0.01707
3714.58614	0.01739
3713.30037	0.01713
3712.01460	0.01646
3710.72883	0.01585
3709.44307	0.01566
3708.15730	0.01586
3706.87153	0.01604
3705.58576	0.01576
3704.29999	0.01501
3703.01422	0.01423
3701.72845	0.01398
3700.44268	0.01439
3699.15691	0.01507
3697.87115	0.01553
3696.58538	0.01558
3695.29961	0.01538
3694.01384	0.01519
3692.72807	0.01510
3691.44230	0.01508
3690.15653	0.01517
3688.87076	0.01546
3687.58500	0.01595
3686.29923	0.01638
3685.01346	0.01640
3683.72769	0.01605
3682.44192	0.01571
3681.15615	0.01581
3679.87038	0.01641
3678.58461	0.01717
3677.29884	0.01754
3676.01308	0.01707
3674.72731	0.01575
3673.44154	0.01416
3672.15577	0.01312
3670.87000	0.01304
3669.58423	0.01362
3668.29846	0.01427
3667.01269	0.01476
3665.72693	0.01516
3664.44116	0.01555
3663.15539	0.01578
3661.86962	0.01577
3660.58385	0.01564
3659.29808	0.01565
3658.01231	0.01589
3656.72654	0.01636
3655.44077	0.01700
3654.15501	0.01765
3652.86924	0.01793
3651.58347	0.01745
3650.29770	0.01622
3649.01193	0.01482
3647.72616	0.01387
3646.44039	0.01369
3645.15462	0.01418
3643.86886	0.01514
3642.58309	0.01631
3641.29732	0.01739
3640.01155	0.01813
3638.72578	0.01846
3637.44001	0.01851
3636.15424	0.01845
3634.86847	0.01837
3633.58270	0.01822
3632.29694	0.01795
3631.01117	0.01769
3629.72540	0.01769
3628.43963	0.01799
3627.15386	0.01835
3625.86809	0.01854
3624.58232	0.01865
3623.29655	0.01883
3622.01079	0.01906
3620.72502	0.01916
3619.43925	0.01910
3618.15348	0.01908
3616.86771	0.01923
3615.58194	0.01951
3614.29617	0.01973
3613.01040	0.01978
3611.72463	0.01963
3610.43887	0.01933
3609.15310	0.01898
3607.86733	0.01869
3606.58156	0.01849
3605.29579	0.01845
3604.01002	0.01869
3602.72425	0.01935
3601.43848	0.02028
3600.15272	0.02100
3598.86695	0.02108
3597.58118	0.02062
3596.29541	0.02014
3595.00964	0.02001
3593.72387	0.02027
3592.43810	0.02072
3591.15233	0.02115
3589.86656	0.02144
3588.58080	0.02153
3587.29503	0.02139
3586.00926	0.02104
3584.72349	0.02057
3583.43772	0.02017
3582.15195	0.01998
3580.86618	0.01995
3579.58041	0.01999
3578.29464	0.02021
3577.00888	0.02071
3575.72311	0.02140
3574.43734	0.02190
3573.15157	0.02188
3571.86580	0.02145
3570.58003	0.02103
3569.29426	0.02101
3568.00849	0.02139
3566.72273	0.02193
3565.43696	0.02252
3564.15119	0.02309
3562.86542	0.02346
3561.57965	0.02337
3560.29388	0.02284
3559.00811	0.02227
3557.72234	0.02215
3556.43657	0.02259
3555.15081	0.02330
3553.86504	0.02387
3552.57927	0.02401
3551.29350	0.02371
3550.00773	0.02326
3548.72196	0.02311
3547.43619	0.02352
3546.15042	0.02437
3544.86466	0.02521
3543.57889	0.02565
3542.29312	0.02564
3541.00735	0.02540
3539.72158	0.02516
3538.43581	0.02494
3537.15004	0.02470
3535.86427	0.02448
3534.57850	0.02443
3533.29274	0.02462
3532.00697	0.02492
3530.72120	0.02514
3529.43543	0.02522
3528.14966	0.02534
3526.86389	0.02562
3525.57812	0.02599
3524.29235	0.02627
3523.00659	0.02635
3521.72082	0.02630
3520.43505	0.02628
3519.14928	0.02650
3517.86351	0.02698
3516.57774	0.02754
3515.29197	0.02787
3514.00620	0.02782
3512.72043	0.02749
3511.43467	0.02704
3510.14890	0.02656
3508.86313	0.02620
3507.57736	0.02617
3506.29159	0.02655
3505.00582	0.02707
3503.72005	0.02735
3502.43428	0.02720
3501.14852	0.02684
3499.86275	0.02659
3498.57698	0.02663
3497.29121	0.02685
3496.00544	0.02704
3494.71967	0.02720
3493.43390	0.02751
3492.14813	0.02810
3490.86236	0.02880
3489.57660	0.02933
3488.29083	0.02956
3487.00506	0.02956
3485.71929	0.02949
3484.43352	0.02943
3483.14775	0.02943
3481.86198	0.02955
3480.57621	0.02981
3479.29045	0.03015
3478.00468	0.03049
3476.71891	0.03076
3475.43314	0.03090
3474.14737	0.03081
3472.86160	0.03050
3471.57583	0.03012
3470.29006	0.02989
3469.00429	0.02986
3467.71853	0.02988
3466.43276	0.02983
3465.14699	0.02973
3463.86122	0.02974
3462.57545	0.02996
3461.28968	0.03036
3460.00391	0.03081
3458.71814	0.03118
3457.43238	0.03141
3456.14661	0.03150
3454.86084	0.03154
3453.57507	0.03166
3452.28930	0.03193
3451.00353	0.03234
3449.71776	0.03273
3448.43199	0.03294
3447.14622	0.03290
3445.86046	0.03270
3444.57469	0.03250
3443.28892	0.03239
3442.00315	0.03234
3440.71738	0.03228
3439.43161	0.03219
3438.14584	0.03217
3436.86007	0.03231
3435.57431	0.03258
3434.28854	0.03283
3433.00277	0.03292
3431.71700	0.03287
3430.43123	0.03278
3429.14546	0.03282
3427.85969	0.03302
3426.57392	0.03327
3425.28815	0.03342
3424.00239	0.03347
3422.71662	0.03354
3421.43085	0.03366
3420.14508	0.03370
3418.85931	0.03362
3417.57354	0.03349
3416.28777	0.03346
3415.00200	0.03361
3413.71624	0.03381
3412.43047	0.03390
3411.14470	0.03385
3409.85893	0.03384
3408.57316	0.03415
3407.28739	0.03476
3406.00162	0.03539
3404.71585	0.03573
3403.43008	0.03577
3402.14432	0.03573
3400.85855	0.03577
3399.57278	0.03586
3398.28701	0.03581
3397.00124	0.03547
3395.71547	0.03498
3394.42970	0.03469
3393.14393	0.03478
3391.85817	0.03505
3390.57240	0.03514
3389.28663	0.03505
3388.00086	0.03503
3386.71509	0.03517
3385.42932	0.03521
3384.14355	0.03493
3382.85778	0.03448
3381.57201	0.03426
3380.28625	0.03442
3379.00048	0.03484
3377.71471	0.03535
3376.42894	0.03587
3375.14317	0.03630
3373.85740	0.03646
3372.57163	0.03629
3371.28586	0.03601
3370.00010	0.03601
3368.71433	0.03644
3367.42856	0.03707
3366.14279	0.03748
3364.85702	0.03737
3363.57125	0.03675
3362.28548	0.03584
3360.99971	0.03497
3359.71394	0.03448
3358.42818	0.03459
3357.14241	0.03521
3355.85664	0.03602
3354.57087	0.03667
3353.28510	0.03696
3351.99933	0.03694
3350.71356	0.03688
3349.42779	0.03703
3348.14202	0.03730
3346.85626	0.03733
3345.57049	0.03690
3344.28472	0.03623
3342.99895	0.03582
3341.71318	0.03590
3340.42741	0.03625
3339.14164	0.03644
3337.85587	0.03632
3336.57011	0.03605
3335.28434	0.03596
3333.99857	0.03612
3332.71280	0.03629
3331.42703	0.03621
3330.14126	0.03595
3328.85549	0.03588
3327.56972	0.03622
3326.28395	0.03681
3324.99819	0.03724
3323.71242	0.03729
3322.42665	0.03702
3321.14088	0.03661
3319.85511	0.03625
3318.56934	0.03599
3317.28357	0.03593
3315.99780	0.03617
3314.71204	0.03676
3313.42627	0.03751
3312.14050	0.03811
3310.85473	0.03836
3309.56896	0.03832
3308.28319	0.03814
3306.99742	0.03788
3305.71165	0.03752
3304.42588	0.03715
3303.14012	0.03691
3301.85435	0.03685
3300.56858	0.03690
3299.28281	0.03702
3297.99704	0.03712
3296.71127	0.03710
3295.42550	0.03691
3294.13973	0.03663
3292.85397	0.03635
3291.56820	0.03607
3290.28243	0.03581
3288.99666	0.03567
3287.71089	0.03576
3286.42512	0.03596
3285.13935	0.03608
3283.85358	0.03614
3282.56781	0.03631
3281.28205	0.03670
3279.99628	0.03714
3278.71051	0.03740
3277.42474	0.03739
3276.13897	0.03716
3274.85320	0.03673
3273.56743	0.03606
3272.28166	0.03526
3270.99590	0.03455
3269.71013	0.03418
3268.42436	0.03423
3267.13859	0.03460
3265.85282	0.03515
3264.56705	0.03582
3263.28128	0.03650
3261.99551	0.03699
3260.70974	0.03712
3259.42398	0.03688
3258.13821	0.03636
3256.85244	0.03567
3255.56667	0.03495
3254.28090	0.03440
3252.99513	0.03415
3251.70936	0.03419
3250.42359	0.03433
3249.13783	0.03448
3247.85206	0.03468
3246.56629	0.03500
3245.28052	0.03531
3243.99475	0.03541
3242.70898	0.03532
3241.42321	0.03530
3240.13744	0.03551
3238.85167	0.03581
3237.56591	0.03602
3236.28014	0.03609
3234.99437	0.03601
3233.70860	0.03574
3232.42283	0.03534
3231.13706	0.03504
3229.85129	0.03499
3228.56552	0.03513
3227.27976	0.03524
3225.99399	0.03527
3224.70822	0.03530
3223.42245	0.03538
3222.13668	0.03553
3220.85091	0.03567
3219.56514	0.03568
3218.27937	0.03551
3216.99360	0.03522
3215.70784	0.03495
3214.42207	0.03479
3213.13630	0.03470
3211.85053	0.03459
3210.56476	0.03437
3209.27899	0.03412
3207.99322	0.03400
3206.70745	0.03405
3205.42169	0.03409
3204.13592	0.03380
3202.85015	0.03313
3201.56438	0.03240
3200.27861	0.03205
3198.99284	0.03226
3197.70707	0.03282
3196.42130	0.03339
3195.13553	0.03377
3193.84977	0.03394
3192.56400	0.03400
3191.27823	0.03399
3189.99246	0.03392
3188.70669	0.03381
3187.42092	0.03376
3186.13515	0.03380
3184.84938	0.03385
3183.56362	0.03375
3182.27785	0.03352
3180.99208	0.03335
3179.70631	0.03336
3178.42054	0.03343
3177.13477	0.03337
3175.84900	0.03310
3174.56323	0.03277
3173.27746	0.03258
3171.99170	0.03258
3170.70593	0.03267
3169.42016	0.03268
3168.13439	0.03253
3166.84862	0.03218
3165.56285	0.03175
3164.27708	0.03147
3162.99131	0.03150
3161.70555	0.03187
3160.41978	0.03238
3159.13401	0.03284
3157.84824	0.03308
3156.56247	0.03308
3155.27670	0.03286
3153.99093	0.03248
3152.70516	0.03202
3151.41939	0.03161
3150.13363	0.03146
3148.84786	0.03165
3147.56209	0.03202
3146.27632	0.03231
3144.99055	0.03242
3143.70478	0.03242
3142.41901	0.03234
3141.13324	0.03207
3139.84748	0.03160
3138.56171	0.03111
3137.27594	0.03088
3135.99017	0.03097
3134.70440	0.03123
3133.41863	0.03143
3132.13286	0.03154
3130.84709	0.03163
3129.56132	0.03172
3128.27556	0.03179
3126.98979	0.03179
3125.70402	0.03169
3124.41825	0.03158
3123.13248	0.03151
3121.84671	0.03142
3120.56094	0.03118
3119.27517	0.03071
3117.98940	0.03013
3116.70364	0.02969
3115.41787	0.02951
3114.13210	0.02953
3112.84633	0.02967
3111.56056	0.02989
3110.27479	0.03017
3108.98902	0.03036
3107.70325	0.03026
3106.41749	0.02990
3105.13172	0.02954
3103.84595	0.02949
3102.56018	0.02978
3101.27441	0.03015
3099.98864	0.03035
3098.70287	0.03040
3097.41710	0.03047
3096.13133	0.03060
3094.84557	0.03067
3093.55980	0.03052
3092.27403	0.03019
3090.98826	0.02990
3089.70249	0.02988
3088.41672	0.03015
3087.13095	0.03052
3085.84518	0.03068
3084.55942	0.03056
3083.27365	0.03031
3081.98788	0.03018
3080.70211	0.03019
3079.41634	0.03023
3078.13057	0.03020
3076.84480	0.03018
3075.55903	0.03022
3074.27326	0.03028
3072.98750	0.03031
3071.70173	0.03029
3070.41596	0.03025
3069.13019	0.03019
3067.84442	0.03015
3066.55865	0.03015
3065.27288	0.03019
3063.98711	0.03019
3062.70135	0.03010
3061.41558	0.02994
3060.12981	0.02980
3058.84404	0.02973
3057.55827	0.02975
3056.27250	0.02985
3054.98673	0.02999
3053.70096	0.03015
3052.41519	0.03025
3051.12943	0.03014
3049.84366	0.02977
3048.55789	0.02930
3047.27212	0.02903
3045.98635	0.02905
3044.70058	0.02916
3043.41481	0.02908
3042.12904	0.02877
3040.84328	0.02843
3039.55751	0.02836
3038.27174	0.02865
3036.98597	0.02913
3035.70020	0.02949
3034.41443	0.02950
3033.12866	0.02915
3031.84289	0.02867
3030.55712	0.02831
3029.27136	0.02821
3027.98559	0.02834
3026.69982	0.02858
3025.41405	0.02880
3024.12828	0.02888
3022.84251	0.02876
3021.55674	0.02853
3020.27097	0.02829
3018.98521	0.02811
3017.69944	0.02802
3016.41367	0.02797
3015.12790	0.02794
3013.84213	0.02786
3012.55636	0.02772
3011.27059	0.02755
3009.98482	0.02741
3008.69905	0.02735
3007.41329	0.02743
3006.12752	0.02772
3004.84175	0.02815
3003.55598	0.02857
3002.27021	0.02883
3000.98444	0.02884
2999.69867	0.02864
2998.41290	0.02836
2997.12714	0.02813
2995.84137	0.02803
2994.55560	0.02799
2993.26983	0.02787
2991.98406	0.02756
2990.69829	0.02712
2989.41252	0.02668
2988.12675	0.02647
2986.84098	0.02661
2985.55522	0.02702
2984.26945	0.02743
2982.98368	0.02754
2981.69791	0.02733
2980.41214	0.02703
2979.12637	0.02686
2977.84060	0.02678
2976.55483	0.02662
2975.26907	0.02632
2973.98330	0.02602
2972.69753	0.02591
2971.41176	0.02606
2970.12599	0.02633
2968.84022	0.02653
2967.55445	0.02655
2966.26868	0.02649
2964.98291	0.02646
2963.69715	0.02648
2962.41138	0.02651
2961.12561	0.02653
2959.83984	0.02654
2958.55407	0.02652
2957.26830	0.02649
2955.98253	0.02660
2954.69676	0.02692
2953.41100	0.02736
2952.12523	0.02771
2950.83946	0.02785
2949.55369	0.02783
2948.26792	0.02773
2946.98215	0.02754
2945.69638	0.02727
2944.41061	0.02703
2943.12484	0.02692
2941.83908	0.02693
2940.55331	0.02696
2939.26754	0.02686
2937.98177	0.02663
2936.69600	0.02628
2935.41023	0.02583
2934.12446	0.02529
2932.83869	0.02460
2931.55293	0.02374
2930.26716	0.02277
2928.98139	0.02184
2927.69562	0.02107
2926.40985	0.02044
2925.12408	0.01987
2923.83831	0.01924
2922.55254	0.01850
2921.26677	0.01763
2919.98101	0.01665
2918.69524	0.01576
2917.40947	0.01524
2916.12370	0.01541
2914.83793	0.01635
2913.55216	0.01787
2912.26639	0.01961
2910.98062	0.02123
2909.69486	0.02258
2908.40909	0.02358
2907.12332	0.02424
2905.83755	0.02462
2904.55178	0.02479
2903.26601	0.02483
2901.98024	0.02482
2900.69447	0.02482
2899.40870	0.02490
2898.12294	0.02509
2896.83717	0.02540
2895.55140	0.02577
2894.26563	0.02610
2892.97986	0.02628
2891.69409	0.02630
2890.40832	0.02621
2889.12255	0.02610
2887.83678	0.02602
2886.55102	0.02593
2885.26525	0.02583
2883.97948	0.02580
2882.69371	0.02592
2881.40794	0.02614
2880.12217	0.02634
2878.83640	0.02651
2877.55063	0.02672
2876.26487	0.02696
2874.97910	0.02713
2873.69333	0.02714
2872.40756	0.02702
2871.12179	0.02685
2869.83602	0.02663
2868.55025	0.02635
2867.26448	0.02608
2865.97871	0.02592
2864.69295	0.02589
2863.40718	0.02586
2862.12141	0.02577
2860.83564	0.02561
2859.54987	0.02538
2858.26410	0.02492
2856.97833	0.02407
2855.69256	0.02282
2854.40680	0.02140
2853.12103	0.02008
2851.83526	0.01910
2850.54949	0.01865
2849.26372	0.01879
2847.97795	0.01943
2846.69218	0.02043
2845.40641	0.02162
2844.12064	0.02281
2842.83488	0.02378
2841.54911	0.02440
2840.26334	0.02473
2838.97757	0.02495
2837.69180	0.02515
2836.40603	0.02528
2835.12026	0.02528
2833.83449	0.02518
2832.54873	0.02500
2831.26296	0.02478
2829.97719	0.02461
2828.69142	0.02463
2827.40565	0.02480
2826.11988	0.02489
2824.83411	0.02473
2823.54834	0.02441
2822.26257	0.02418
2820.97681	0.02418
2819.69104	0.02434
2818.40527	0.02451
2817.11950	0.02460
2815.83373	0.02462
2814.54796	0.02465
2813.26219	0.02475
2811.97642	0.02490
2810.69066	0.02504
2809.40489	0.02512
2808.11912	0.02513
2806.83335	0.02505
2805.54758	0.02486
2804.26181	0.02462
2802.97604	0.02440
2801.69027	0.02425
2800.40450	0.02414
2799.11874	0.02403
2797.83297	0.02390
2796.54720	0.02377
2795.26143	0.02375
2793.97566	0.02392
2792.68989	0.02419
2791.40412	0.02435
2790.11835	0.02425
2788.83259	0.02394
2787.54682	0.02357
2786.26105	0.02329
2784.97528	0.02315
2783.68951	0.02315
2782.40374	0.02328
2781.11797	0.02351
2779.83220	0.02380
2778.54643	0.02406
2777.26067	0.02418
2775.97490	0.02413
2774.68913	0.02397
2773.40336	0.02380
2772.11759	0.02369
2770.83182	0.02364
2769.54605	0.02362
2768.26028	0.02356
2766.97452	0.02347
2765.68875	0.02345
2764.40298	0.02360
2763.11721	0.02388
2761.83144	0.02408
2760.54567	0.02403
2759.25990	0.02372
2757.97413	0.02330
2756.68836	0.02300
2755.40260	0.02295
2754.11683	0.02312
2752.83106	0.02331
2751.54529	0.02332
2750.25952	0.02315
2748.97375	0.02295
2747.68798	0.02285
2746.40221	0.02288
2745.11645	0.02290
2743.83068	0.02285
2742.54491	0.02275
2741.25914	0.02270
2739.97337	0.02274
2738.68760	0.02282
2737.40183	0.02287
2736.11606	0.02284
2734.83029	0.02278
2733.54453	0.02278
2732.25876	0.02282
2730.97299	0.02277
2729.68722	0.02254
2728.40145	0.02223
2727.11568	0.02206
2725.82991	0.02214
2724.54414	0.02237
2723.25838	0.02255
2721.97261	0.02253
2720.68684	0.02236
2719.40107	0.02217
2718.11530	0.02203
2716.82953	0.02196
2715.54376	0.02194
2714.25799	0.02202
2712.97222	0.02223
2711.68646	0.02249
2710.40069	0.02270
2709.11492	0.02281
2707.82915	0.02281
2706.54338	0.02271
2705.25761	0.02253
2703.97184	0.02234
2702.68607	0.02224
2701.40031	0.02226
2700.11454	0.02235
2698.82877	0.02241
2697.54300	0.02236
2696.25723	0.02217
2694.97146	0.02188
2693.68569	0.02156
2692.39992	0.02131
2691.11415	0.02122
2689.82839	0.02132
2688.54262	0.02159
2687.25685	0.02187
2685.97108	0.02199
2684.68531	0.02188
2683.39954	0.02166
2682.11377	0.02143
2680.82800	0.02123
2679.54224	0.02102
2678.25647	0.02079
2676.97070	0.02064
2675.68493	0.02069
2674.39916	0.02090
2673.11339	0.02111
2671.82762	0.02115
2670.54185	0.02103
2669.25608	0.02092
2667.97032	0.02096
2666.68455	0.02117
2665.39878	0.02145
2664.11301	0.02166
2662.82724	0.02168
2661.54147	0.02151
2660.25570	0.02126
2658.96993	0.02107
2657.68417	0.02099
2656.39840	0.02094
2655.11263	0.02093
2653.82686	0.02101
2652.54109	0.02113
2651.25532	0.02115
2649.96955	0.02097
2648.68378	0.02072
2647.39801	0.02054
2646.11225	0.02050
2644.82648	0.02054
2643.54071	0.02055
2642.25494	0.02046
2640.96917	0.02026
2639.68340	0.01993
2638.39763	0.01955
2637.11186	0.01922
2635.82609	0.01905
2634.54033	0.01910
2633.25456	0.01927
2631.96879	0.01936
2630.68302	0.01930
2629.39725	0.01914
2628.11148	0.01894
2626.82571	0.01867
2625.53994	0.01833
2624.25418	0.01811
2622.96841	0.01821
2621.68264	0.01863
2620.39687	0.01913
2619.11110	0.01943
2617.82533	0.01943
2616.53956	0.01925
2615.25379	0.01901
2613.96802	0.01871
2612.68226	0.01834
2611.39649	0.01789
2610.11072	0.01741
2608.82495	0.01701
2607.53918	0.01688
2606.25341	0.01722
2604.96764	0.01799
2603.68187	0.01883
2602.39611	0.01933
2601.11034	0.01934
2599.82457	0.01902
2598.53880	0.01864
2597.25303	0.01839
2595.96726	0.01830
2594.68149	0.01827
2593.39572	0.01822
2592.10995	0.01823
2590.82419	0.01839
2589.53842	0.01855
2588.25265	0.01842
2586.96688	0.01796
2585.68111	0.01752
2584.39534	0.01748
2583.10957	0.01783
2581.82380	0.01816
2580.53804	0.01808
2579.25227	0.01765
2577.96650	0.01724
2576.68073	0.01706
2575.39496	0.01707
2574.10919	0.01710
2572.82342	0.01715
2571.53765	0.01728
2570.25188	0.01746
2568.96612	0.01758
2567.68035	0.01760
2566.39458	0.01757
2565.10881	0.01748
2563.82304	0.01728
2562.53727	0.01704
2561.25150	0.01696
2559.96573	0.01714
2558.67997	0.01741
2557.39420	0.01752
2556.10843	0.01740
2554.82266	0.01719
2553.53689	0.01711
2552.25112	0.01724
2550.96535	0.01752
2549.67958	0.01776
2548.39381	0.01780
2547.10805	0.01758
2545.82228	0.01716
2544.53651	0.01667
2543.25074	0.01627
2541.96497	0.01604
2540.67920	0.01600
2539.39343	0.01610
2538.10766	0.01629
2536.82190	0.01645
2535.53613	0.01650
2534.25036	0.01640
2532.96459	0.01623
2531.67882	0.01614
2530.39305	0.01623
2529.10728	0.01650
2527.82151	0.01689
2526.53574	0.01725
2525.24998	0.01742
2523.96421	0.01728
2522.67844	0.01692
2521.39267	0.01662
2520.10690	0.01662
2518.82113	0.01684
2517.53536	0.01696
2516.24959	0.01674
2514.96383	0.01627
2513.67806	0.01587
2512.39229	0.01572
2511.10652	0.01573
2509.82075	0.01575
2508.53498	0.01574
2507.24921	0.01579
2505.96344	0.01590
2504.67767	0.01595
2503.39191	0.01579
2502.10614	0.01547
2500.82037	0.01520
2499.53460	0.01513
2498.24883	0.01518
2496.96306	0.01520
2495.67729	0.01520
2494.39152	0.01529
2493.10576	0.01554
2491.81999	0.01589
2490.53422	0.01623
2489.24845	0.01649
2487.96268	0.01661
2486.67691	0.01653
2485.39114	0.01618
2484.10537	0.01562
2482.81960	0.01513
2481.53384	0.01501
2480.24807	0.01531
2478.96230	0.01572
2477.67653	0.01598
2476.39076	0.01600
2475.10499	0.01587
2473.81922	0.01567
2472.53345	0.01548
2471.24769	0.01538
2469.96192	0.01539
2468.67615	0.01544
2467.39038	0.01552
2466.10461	0.01571
2464.81884	0.01600
2463.53307	0.01627
2462.24730	0.01642
2460.96153	0.01645
2459.67577	0.01636
2458.39000	0.01608
2457.10423	0.01568
2455.81846	0.01543
2454.53269	0.01549
2453.24692	0.01574
2451.96115	0.01596
2450.67538	0.01608
2449.38962	0.01614
2448.10385	0.01616
2446.81808	0.01607
2445.53231	0.01584
2444.24654	0.01552
2442.96077	0.01526
2441.67500	0.01514
2440.38923	0.01515
2439.10346	0.01518
2437.81770	0.01515
2436.53193	0.01510
2435.24616	0.01506
2433.96039	0.01506
2432.67462	0.01505
2431.38885	0.01502
2430.10308	0.01497
2428.81731	0.01498
2427.53155	0.01508
2426.24578	0.01519
2424.96001	0.01515
2423.67424	0.01497
2422.38847	0.01489
2421.10270	0.01518
2419.81693	0.01569
2418.53116	0.01605
2417.24539	0.01604
2415.95963	0.01583
2414.67386	0.01563
2413.38809	0.01543
2412.10232	0.01516
2410.81655	0.01486
2409.53078	0.01468
2408.24501	0.01468
2406.95924	0.01480
2405.67347	0.01498
2404.38771	0.01518
2403.10194	0.01531
2401.81617	0.01531
2400.53040	0.01528
2399.24463	0.01539
2397.95886	0.01563
2396.67309	0.01583
2395.38732	0.01583
2394.10156	0.01569
2392.81579	0.01560
2391.53002	0.01568
2390.24425	0.01589
2388.95848	0.01602
2387.67271	0.01595
2386.38694	0.01572
2385.10117	0.01549
2383.81540	0.01539
2382.52964	0.01541
2381.24387	0.01549
2379.95810	0.01560
2378.67233	0.01573
2377.38656	0.01585
2376.10079	0.01593
2374.81502	0.01597
2373.52925	0.01602
2372.24349	0.01611
2370.95772	0.01630
2369.67195	0.01667
2368.38618	0.01717
2367.10041	0.01758
2365.81464	0.01768
2364.52887	0.01745
2363.24310	0.01714
2361.95733	0.01701
2360.67157	0.01715
2359.38580	0.01744
2358.10003	0.01762
2356.81426	0.01759
2355.52849	0.01741
2354.24272	0.01718
2352.95695	0.01694
2351.67118	0.01663
2350.38542	0.01633
2349.09965	0.01614
2347.81388	0.01614
2346.52811	0.01628
2345.24234	0.01649
2343.95657	0.01672
2342.67080	0.01698
2341.38503	0.01721
2340.09926	0.01734
2338.81350	0.01737
2337.52773	0.01736
2336.24196	0.01740
2334.95619	0.01750
2333.67042	0.01757
2332.38465	0.01755
2331.09888	0.01749
2329.81311	0.01752
2328.52735	0.01773
2327.24158	0.01805
2325.95581	0.01829
2324.67004	0.01831
2323.38427	0.01807
2322.09850	0.01765
2320.81273	0.01722
2319.52696	0.01691
2318.24119	0.01673
2316.95543	0.01657
2315.66966	0.01630
2314.38389	0.01594
2313.09812	0.01559
2311.81235	0.01538
2310.52658	0.01533
2309.24081	0.01540
2307.95504	0.01551
2306.66928	0.01558
2305.38351	0.01557
2304.09774	0.01552
2302.81197	0.01543
2301.52620	0.01526
2300.24043	0.01492
2298.95466	0.01448
2297.66889	0.01416
2296.38312	0.01412
2295.09736	0.01432
2293.81159	0.01456
2292.52582	0.01465
2291.24005	0.01451
2289.95428	0.01421
2288.66851	0.01383
2287.38274	0.01344
2286.09697	0.01313
2284.81121	0.01298
2283.52544	0.01305
2282.23967	0.01333
2280.95390	0.01366
2279.66813	0.01387
2278.38236	0.01381
2277.09659	0.01347
2275.81082	0.01298
2274.52505	0.01260
2273.23929	0.01255
2271.95352	0.01275
2270.66775	0.01293
2269.38198	0.01283
2268.09621	0.01254
2266.81044	0.01232
2265.52467	0.01242
2264.23890	0.01285
2262.95314	0.01344
2261.66737	0.01387
2260.38160	0.01387
2259.09583	0.01340
2257.81006	0.01273
2256.52429	0.01220
2255.23852	0.01189
2253.95275	0.01168
2252.66698	0.01152
2251.38122	0.01155
2250.09545	0.01184
2248.80968	0.01218
2247.52391	0.01228
2246.23814	0.01188
2244.95237	0.01129
2243.66660	0.01097
2242.38083	0.01108
2241.09507	0.01140
2239.80930	0.01157
2238.52353	0.01138
2237.23776	0.01092
2235.95199	0.01049
2234.66622	0.01040
2233.38045	0.01058
2232.09468	0.01067
2230.80891	0.01030
2229.52315	0.00954
2228.23738	0.00872
2226.95161	0.00811
2225.66584	0.00766
2224.38007	0.00727
2223.09430	0.00699
2221.80853	0.00703
2220.52276	0.00750
2219.23700	0.00823
2217.95123	0.00892
2216.66546	0.00933
2215.37969	0.00937
2214.09392	0.00916
2212.80815	0.00888
2211.52238	0.00879
2210.23661	0.00915
2208.95084	0.01004
2207.66508	0.01101
2206.37931	0.01131
2205.09354	0.01067
2203.80777	0.00970
2202.52200	0.00919
2201.23623	0.00927
2199.95046	0.00943
2198.66469	0.00926
2197.37893	0.00885
2196.09316	0.00850
2194.80739	0.00833
2193.52162	0.00832
2192.23585	0.00848
2190.95008	0.00877
2189.66431	0.00887
2188.37854	0.00841
2187.09277	0.00750
2185.80701	0.00674
2184.52124	0.00646
2183.23547	0.00628
2181.94970	0.00566
2180.66393	0.00473
2179.37816	0.00411
2178.09239	0.00413
2176.80662	0.00458
2175.52085	0.00516
2174.23509	0.00578
2172.94932	0.00645
2171.66355	0.00714
2170.37778	0.00769
2169.09201	0.00786
2167.80624	0.00753
2166.52047	0.00689
2165.23470	0.00642
2163.94894	0.00636
2162.66317	0.00638
2161.37740	0.00600
2160.09163	0.00525
2158.80586	0.00457
2157.52009	0.00417
2156.23432	0.00390
2154.94855	0.00370
2153.66278	0.00372
2152.37702	0.00404
2151.09125	0.00456
2149.80548	0.00516
2148.51971	0.00569
2147.23394	0.00600
2145.94817	0.00618
2144.66240	0.00642
2143.37663	0.00668
2142.09087	0.00672
2140.80510	0.00650
2139.51933	0.00632
2138.23356	0.00649
2136.94779	0.00696
2135.66202	0.00745
2134.37625	0.00769
2133.09048	0.00752
2131.80471	0.00710
2130.51895	0.00691
2129.23318	0.00728
2127.94741	0.00807
2126.66164	0.00878
2125.37587	0.00914
2124.09010	0.00923
2122.80433	0.00927
2121.51856	0.00926
2120.23280	0.00914
2118.94703	0.00898
2117.66126	0.00890
2116.37549	0.00892
2115.08972	0.00892
2113.80395	0.00878
2112.51818	0.00848
2111.23241	0.00812
2109.94664	0.00791
2108.66088	0.00799
2107.37511	0.00825
2106.08934	0.00845
2104.80357	0.00858
2103.51780	0.00876
2102.23203	0.00883
2100.94626	0.00833
2099.66049	0.00684
2098.37473	0.00534
2097.08896	0.00447
2095.80319	0.00440
2094.51742	0.00494
2093.23165	0.00582
2091.94588	0.00675
2090.66011	0.00741
2089.37434	0.00755
2088.08857	0.00715
2086.80281	0.00653
2085.51704	0.00608
2084.23127	0.00599
2082.94550	0.00619
2081.65973	0.00647
2080.37396	0.00677
2079.08819	0.00711
2077.80242	0.00748
2076.51666	0.00771
2075.23089	0.00772
2073.94512	0.00761
2072.65935	0.00757
2071.37358	0.00764
2070.08781	0.00767
2068.80204	0.00743
2067.51627	0.00691
2066.23050	0.00634
2064.94474	0.00603
2063.65897	0.00602
2062.37320	0.00606
2061.08743	0.00591
2059.80166	0.00555
2058.51589	0.00516
2057.23012	0.00477
2055.94435	0.00433
2054.65859	0.00387
2053.37282	0.00357
2052.08705	0.00351
2050.80128	0.00350
2049.51551	0.00320
2048.22974	0.00257
2046.94397	0.00204
2045.65820	0.00213
2044.37243	0.00289
2043.08667	0.00387
2041.80090	0.00449
2040.51513	0.00450
2039.22936	0.00398
2037.94359	0.00307
2036.65782	0.00197
2035.37205	0.00100
2034.08628	0.00056
2032.80052	0.00088
2031.51475	0.00177
2030.22898	0.00275
2028.94321	0.00348
2027.65744	0.00395
2026.37167	0.00423
2025.08590	0.00417
2023.80013	0.00360
2022.51436	0.00278
2021.22860	0.00229
2019.94283	0.00236
2018.65706	0.00252
2017.37129	0.00216
2016.08552	0.00123
2014.79975	0.00028
2013.51398	-0.00002
2012.22821	0.00058
2010.94245	0.00186
2009.65668	0.00327
2008.37091	0.00433
2007.08514	0.00483
2005.79937	0.00484
2004.51360	0.00468
2003.22783	0.00466
2001.94206	0.00497
2000.65629	0.00563
1999.37053	0.00649
1998.08476	0.00716
1996.79899	0.00727
1995.51322	0.00688
1994.22745	0.00658
1992.94168	0.00690
1991.65591	0.00769
1990.37014	0.00831
1989.08438	0.00830
1987.79861	0.00776
1986.51284	0.00708
1985.22707	0.00653
1983.94130	0.00618
1982.65553	0.00598
1981.36976	0.00585
1980.08399	0.00568
1978.79822	0.00539
1977.51246	0.00500
1976.22669	0.00468
1974.94092	0.00456
1973.65515	0.00465
1972.36938	0.00477
1971.08361	0.00479
1969.79784	0.00481
1968.51207	0.00502
1967.22631	0.00540
1965.94054	0.00572
1964.65477	0.00574
1963.36900	0.00536
1962.08323	0.00477
1960.79746	0.00431
1959.51169	0.00437
1958.22592	0.00509
1956.94015	0.00616
1955.65439	0.00710
1954.36862	0.00752
1953.08285	0.00737
1951.79708	0.00684
1950.51131	0.00629
1949.22554	0.00607
1947.93977	0.00629
1946.65400	0.00667
1945.36823	0.00680
1944.08247	0.00658
1942.79670	0.00630
1941.51093	0.00631
1940.22516	0.00664
1938.93939	0.00716
1937.65362	0.00772
1936.36785	0.00819
1935.08208	0.00839
1933.79632	0.00817
1932.51055	0.00768
1931.22478	0.00734
1929.93901	0.00745
1928.65324	0.00793
1927.36747	0.00842
1926.08170	0.00861
1924.79593	0.00850
1923.51016	0.00831
1922.22440	0.00826
1920.93863	0.00835
1919.65286	0.00843
1918.36709	0.00838
1917.08132	0.00826
1915.79555	0.00820
1914.50978	0.00826
1913.22401	0.00840
1911.93825	0.00857
1910.65248	0.00875
1909.36671	0.00885
1908.08094	0.00880
1906.79517	0.00863
1905.50940	0.00848
1904.22363	0.00844
1902.93786	0.00847
1901.65209	0.00845
1900.36633	0.00837
1899.08056	0.00830
1897.79479	0.00832
1896.50902	0.00844
1895.22325	0.00864
1893.93748	0.00883
1892.65171	0.00889
1891.36594	0.00878
1890.08018	0.00858
1888.79441	0.00839
1887.50864	0.00818
1886.22287	0.00788
1884.93710	0.00752
1883.65133	0.00725
1882.36556	0.00726
1881.07979	0.00755
1879.79402	0.00797
1878.50826	0.00837
1877.22249	0.00863
1875.93672	0.00876
1874.65095	0.00879
1873.36518	0.00875
1872.07941	0.00872
1870.79364	0.00872
1869.50787	0.00871
1868.22211	0.00864
1866.93634	0.00853
1865.65057	0.00848
1864.36480	0.00853
1863.07903	0.00869
1861.79326	0.00891
1860.50749	0.00912
1859.22172	0.00923
1857.93595	0.00919
1856.65019	0.00904
1855.36442	0.00889
1854.07865	0.00879
1852.79288	0.00873
1851.50711	0.00874
1850.22134	0.00885
1848.93557	0.00906
1847.64980	0.00926
1846.36404	0.00936
1845.07827	0.00936
1843.79250	0.00933
1842.50673	0.00933
1841.22096	0.00934
1839.93519	0.00929
1838.64942	0.00917
1837.36365	0.00900
1836.07788	0.00888
1834.79212	0.00889
1833.50635	0.00904
1832.22058	0.00926
1830.93481	0.00944
1829.64904	0.00949
1828.36327	0.00937
1827.07750	0.00917
1825.79173	0.00897
1824.50597	0.00885
1823.22020	0.00880
1821.93443	0.00880
1820.64866	0.00879
1819.36289	0.00882
1818.07712	0.00892
1816.79135	0.00909
1815.50558	0.00924
1814.21981	0.00929
1812.93405	0.00924
1811.64828	0.00919
1810.36251	0.00922
1809.07674	0.00931
1807.79097	0.00941
1806.50520	0.00948
1805.21943	0.00949
1803.93366	0.00948
1802.64790	0.00949
1801.36213	0.00951
1800.07636	0.00949
1798.79059	0.00938
1797.50482	0.00923
1796.21905	0.00912
1794.93328	0.00913
1793.64751	0.00922
1792.36174	0.00928
1791.07598	0.00928
1789.79021	0.00927
1788.50444	0.00929
1787.21867	0.00934
1785.93290	0.00935
1784.64713	0.00927
1783.36136	0.00914
1782.07559	0.00902
1780.78983	0.00898
1779.50406	0.00901
1778.21829	0.00910
1776.93252	0.00923
1775.64675	0.00937
1774.36098	0.00951
1773.07521	0.00960
1771.78944	0.00961
1770.50367	0.00954
1769.21791	0.00944
1767.93214	0.00937
1766.64637	0.00933
1765.36060	0.00930
1764.07483	0.00927
1762.78906	0.00927
1761.50329	0.00926
1760.21752	0.00920
1758.93176	0.00912
1757.64599	0.00903
1756.36022	0.00896
1755.07445	0.00884
1753.78868	0.00859
1752.50291	0.00824
1751.21714	0.00789
1749.93137	0.00765
1748.64560	0.00751
1747.35984	0.00736
1746.07407	0.00712
1744.78830	0.00681
1743.50253	0.00653
1742.21676	0.00636
1740.93099	0.00631
1739.64522	0.00637
1738.35945	0.00652
1737.07369	0.00673
1735.78792	0.00699
1734.50215	0.00726
1733.21638	0.00754
1731.93061	0.00777
1730.64484	0.00789
1729.35907	0.00790
1728.07330	0.00790
1726.78753	0.00801
1725.50177	0.00830
1724.21600	0.00871
1722.93023	0.00914
1721.64446	0.00948
1720.35869	0.00969
1719.07292	0.00980
1717.78715	0.00986
1716.50138	0.00994
1715.21561	0.01012
1713.92985	0.01039
1712.64408	0.01071
1711.35831	0.01102
1710.07254	0.01130
1708.78677	0.01158
1707.50100	0.01190
1706.21523	0.01225
1704.92946	0.01264
1703.64370	0.01307
1702.35793	0.01355
1701.07216	0.01407
1699.78639	0.01456
1698.50062	0.01498
1697.21485	0.01531
1695.92908	0.01557
1694.64331	0.01582
1693.35754	0.01614
1692.07178	0.01659
1690.78601	0.01714
1689.50024	0.01769
1688.21447	0.01818
1686.92870	0.01858
1685.64293	0.01897
1684.35716	0.01940
1683.07139	0.01991
1681.78563	0.02045
1680.49986	0.02097
1679.21409	0.02147
1677.92832	0.02196
1676.64255	0.02243
1675.35678	0.02285
1674.07101	0.02322
1672.78524	0.02356
1671.49947	0.02394
1670.21371	0.02435
1668.92794	0.02476
1667.64217	0.02513
1666.35640	0.02549
1665.07063	0.02583
1663.78486	0.02619
1662.49909	0.02655
1661.21332	0.02690
1659.92756	0.02719
1658.64179	0.02745
1657.35602	0.02772
1656.07025	0.02802
1654.78448	0.02837
1653.49871	0.02871
1652.21294	0.02898
1650.92717	0.02917
1649.64140	0.02932
1648.35564	0.02950
1647.06987	0.02972
1645.78410	0.02993
1644.49833	0.03009
1643.21256	0.03016
1641.92679	0.03018
1640.64102	0.03014
1639.35525	0.03005
1638.06949	0.02992
1636.78372	0.02977
1635.49795	0.02963
1634.21218	0.02951
1632.92641	0.02941
1631.64064	0.02932
1630.35487	0.02922
1629.06910	0.02906
1627.78333	0.02884
1626.49757	0.02855
1625.21180	0.02823
1623.92603	0.02790
1622.64026	0.02760
1621.35449	0.02731
1620.06872	0.02704
1618.78295	0.02679
1617.49718	0.02657
1616.21142	0.02640
1614.92565	0.02624
1613.63988	0.02609
1612.35411	0.02593
1611.06834	0.02578
1609.78257	0.02568
1608.49680	0.02562
1607.21103	0.02557
1605.92526	0.02551
1604.63950	0.02543
1603.35373	0.02534
1602.06796	0.02527
1600.78219	0.02525
1599.49642	0.02528
1598.21065	0.02535
1596.92488	0.02546
1595.63911	0.02560
1594.35335	0.02578
1593.06758	0.02601
1591.78181	0.02626
1590.49604	0.02651
1589.21027	0.02673
1587.92450	0.02694
1586.63873	0.02714
1585.35296	0.02737
1584.06719	0.02763
1582.78143	0.02790
1581.49566	0.02818
1580.20989	0.02843
1578.92412	0.02867
1577.63835	0.02892
1576.35258	0.02920
1575.06681	0.02952
1573.78104	0.02984
1572.49528	0.03015
1571.20951	0.03045
1569.92374	0.03073
1568.63797	0.03100
1567.35220	0.03125
1566.06643	0.03146
1564.78066	0.03164
1563.49489	0.03180
1562.20912	0.03198
1560.92336	0.03219
1559.63759	0.03242
1558.35182	0.03264
1557.06605	0.03281
1555.78028	0.03291
1554.49451	0.03293
1553.20874	0.03288
1551.92297	0.03280
1550.63721	0.03272
1549.35144	0.03264
1548.06567	0.03256
1546.77990	0.03244
1545.49413	0.03226
1544.20836	0.03201
1542.92259	0.03171
1541.63682	0.03142
1540.35105	0.03117
1539.06529	0.03095
1537.77952	0.03074
1536.49375	0.03053
1535.20798	0.03036
1533.92221	0.03024
1532.63644	0.03014
1531.35067	0.03004
1530.06490	0.02995
1528.77914	0.02992
1527.49337	0.02995
1526.20760	0.03002
1524.92183	0.03010
1523.63606	0.03018
1522.35029	0.03024
1521.06452	0.03029
1519.77875	0.03037
1518.49298	0.03049
1517.20722	0.03068
1515.92145	0.03091
1514.63568	0.03118
1513.34991	0.03145
1512.06414	0.03172
1510.77837	0.03199
1509.49260	0.03224
1508.20683	0.03250
1506.92107	0.03280
1505.63530	0.03313
1504.34953	0.03346
1503.06376	0.03376
1501.77799	0.03400
1500.49222	0.03422
1499.20645	0.03441
1497.92068	0.03458
1496.63491	0.03471
1495.34915	0.03483
1494.06338	0.03495
1492.77761	0.03512
1491.49184	0.03533
1490.20607	0.03558
1488.92030	0.03582
1487.63453	0.03607
1486.34876	0.03632
1485.06299	0.03659
1483.77723	0.03691
1482.49146	0.03728
1481.20569	0.03767
1479.91992	0.03808
1478.63415	0.03849
1477.34838	0.03890
1476.06261	0.03926
1474.77684	0.03957
1473.49108	0.03983
1472.20531	0.04010
1470.91954	0.04039
1469.63377	0.04069
1468.34800	0.04096
1467.06223	0.04120
1465.77646	0.04145
1464.49069	0.04175
1463.20492	0.04211
1461.91916	0.04251
1460.63339	0.04292
1459.34762	0.04334
1458.06185	0.04375
1456.77608	0.04415
1455.49031	0.04453
1454.20454	0.04489
1452.91877	0.04522
1451.63301	0.04548
1450.34724	0.04563
1449.06147	0.04569
1447.77570	0.04572
1446.48993	0.04579
1445.20416	0.04590
1443.91839	0.04599
1442.63262	0.04603
1441.34685	0.04603
1440.06109	0.04604
1438.77532	0.04608
1437.48955	0.04612
1436.20378	0.04617
1434.91801	0.04627
1433.63224	0.04648
1432.34647	0.04679
1431.06070	0.04716
1429.77494	0.04755
1428.48917	0.04797
1427.20340	0.04843
1425.91763	0.04893
1424.63186	0.04944
1423.34609	0.04994
1422.06032	0.05045
1420.77455	0.05095
1419.48878	0.05141
1418.20302	0.05179
1416.91725	0.05210
1415.63148	0.05237
1414.34571	0.05264
1413.05994	0.05286
1411.77417	0.05297
1410.48840	0.05293
1409.20263	0.05275
1407.91687	0.05248
1406.63110	0.05213
1405.34533	0.05168
1404.05956	0.05110
1402.77379	0.05041
1401.48802	0.04967
1400.20225	0.04892
1398.91648	0.04815
1397.63071	0.04736
1396.34495	0.04654
1395.05918	0.04570
1393.77341	0.04483
1392.48764	0.04392
1391.20187	0.04302
1389.91610	0.04215
1388.63033	0.04132
1387.34456	0.04052
1386.05880	0.03972
1384.77303	0.03892
1383.48726	0.03812
1382.20149	0.03729
1380.91572	0.03642
1379.62995	0.03554
1378.34418	0.03470
1377.05841	0.03389
1375.77264	0.03309
1374.48688	0.03231
1373.20111	0.03152
1371.91534	0.03076
1370.62957	0.03005
1369.34380	0.02939
1368.05803	0.02877
1366.77226	0.02817
1365.48649	0.02757
1364.20073	0.02697
1362.91496	0.02638
1361.62919	0.02581
1360.34342	0.02529
1359.05765	0.02484
1357.77188	0.02447
1356.48611	0.02414
1355.20034	0.02383
1353.91457	0.02354
1352.62881	0.02327
1351.34304	0.02303
1350.05727	0.02281
1348.77150	0.02261
1347.48573	0.02242
1346.19996	0.02223
1344.91419	0.02206
1343.62842	0.02190
1342.34266	0.02176
1341.05689	0.02159
1339.77112	0.02138
1338.48535	0.02112
1337.19958	0.02084
1335.91381	0.02059
1334.62804	0.02036
1333.34227	0.02016
1332.05650	0.01998
1330.77074	0.01982
1329.48497	0.01966
1328.19920	0.01949
1326.91343	0.01932
1325.62766	0.01915
1324.34189	0.01899
1323.05612	0.01884
1321.77035	0.01870
1320.48459	0.01855
1319.19882	0.01839
1317.91305	0.01820
1316.62728	0.01800
1315.34151	0.01784
1314.05574	0.01771
1312.76997	0.01759
1311.48420	0.01746
1310.19843	0.01730
1308.91267	0.01716
1307.62690	0.01704
1306.34113	0.01694
1305.05536	0.01683
1303.76959	0.01671
1302.48382	0.01657
1301.19805	0.01640
1299.91228	0.01624
1298.62652	0.01611
1297.34075	0.01603
1296.05498	0.01596
1294.76921	0.01589
1293.48344	0.01581
1292.19767	0.01576
1290.91190	0.01575
1289.62613	0.01577
1288.34036	0.01574
1287.05460	0.01567
1285.76883	0.01558
1284.48306	0.01553
1283.19729	0.01554
1281.91152	0.01556
1280.62575	0.01553
1279.33998	0.01544
1278.05421	0.01532
1276.76845	0.01522
1275.48268	0.01519
1274.19691	0.01520
1272.91114	0.01521
1271.62537	0.01517
1270.33960	0.01506
1269.05383	0.01492
1267.76806	0.01479
1266.48229	0.01470
1265.19653	0.01464
1263.91076	0.01461
1262.62499	0.01458
1261.33922	0.01457
1260.05345	0.01459
1258.76768	0.01465
1257.48191	0.01472
1256.19614	0.01476
1254.91037	0.01477
1253.62461	0.01475
1252.33884	0.01473
1251.05307	0.01470
1249.76730	0.01468
1248.48153	0.01466
1247.19576	0.01469
1245.90999	0.01476
1244.62422	0.01483
1243.33846	0.01483
1242.05269	0.01474
1240.76692	0.01459
1239.48115	0.01445
1238.19538	0.01437
1236.90961	0.01433
1235.62384	0.01428
1234.33807	0.01421
1233.05230	0.01412
1231.76654	0.01403
1230.48077	0.01395
1229.19500	0.01382
1227.90923	0.01364
1226.62346	0.01344
1225.33769	0.01328
1224.05192	0.01319
1222.76615	0.01315
1221.48039	0.01311
1220.19462	0.01304
1218.90885	0.01293
1217.62308	0.01280
1216.33731	0.01263
1215.05154	0.01247
1213.76577	0.01232
1212.48000	0.01224
1211.19423	0.01221
1209.90847	0.01221
1208.62270	0.01220
1207.33693	0.01216
1206.05116	0.01211
1204.76539	0.01206
1203.47962	0.01201
1202.19385	0.01194
1200.90808	0.01187
1199.62232	0.01181
1198.33655	0.01169
1197.05078	0.01158
1195.76501	0.01151
1194.47924	0.01147
1193.19347	0.01148
1191.90770	0.01146
1190.62193	0.01137
1189.33616	0.01119
1188.05040	0.01097
1186.76463	0.01077
1185.47886	0.01064
1184.19309	0.01059
1182.90732	0.01057
1181.62155	0.01054
1180.33578	0.01047
1179.05001	0.01037
1177.76425	0.01032
1176.47848	0.01032
1175.19271	0.01036
1173.90694	0.01041
1172.62117	0.01045
1171.33540	0.01048
1170.04963	0.01053
1168.76386	0.01059
1167.47809	0.01069
1166.19233	0.01080
1164.90656	0.01092
1163.62079	0.01103
1162.33502	0.01110
1161.04925	0.01110
1159.76348	0.01107
1158.47771	0.01103
1157.19194	0.01103
1155.90618	0.01112
1154.62041	0.01127
1153.33464	0.01144
1152.04887	0.01159
1150.76310	0.01170
1149.47733	0.01176
1148.19156	0.01182
1146.90579	0.01194
1145.62002	0.01215
1144.33426	0.01246
1143.04849	0.01282
1141.76272	0.01321
1140.47695	0.01365
1139.19118	0.01413
1137.90541	0.01466
1136.61964	0.01524
1135.33387	0.01589
1134.04811	0.01662
1132.76234	0.01739
1131.47657	0.01821
1130.19080	0.01909
1128.90503	0.02008
1127.61926	0.02121
1126.33349	0.02250
1125.04772	0.02392
1123.76195	0.02546
1122.47619	0.02709
1121.19042	0.02877
1119.90465	0.03048
1118.61888	0.03224
1117.33311	0.03403
1116.04734	0.03582
1114.76157	0.03757
1113.47580	0.03924
1112.19004	0.04087
1110.90427	0.04247
1109.61850	0.04404
1108.33273	0.04556
1107.04696	0.04706
1105.76119	0.04856
1104.47542	0.05005
1103.18965	0.05147
1101.90388	0.05282
1100.61812	0.05409
1099.33235	0.05535
1098.04658	0.05658
1096.76081	0.05775
1095.47504	0.05883
1094.18927	0.05978
1092.90350	0.06066
1091.61773	0.06148
1090.33197	0.06226
1089.04620	0.06299
1087.76043	0.06373
1086.47466	0.06453
1085.18889	0.06541
1083.90312	0.06632
1082.61735	0.06725
1081.33158	0.06822
1080.04581	0.06927
1078.76005	0.07042
1077.47428	0.07168
1076.18851	0.07304
1074.90274	0.07449
1073.61697	0.07598
1072.33120	0.07750
1071.04543	0.07901
1069.75966	0.08050
1068.47390	0.08198
1067.18813	0.08349
1065.90236	0.08507
1064.61659	0.08667
1063.33082	0.08824
1062.04505	0.08975
1060.75928	0.09123
1059.47351	0.09271
1058.18774	0.09419
1056.90198	0.09563
1055.61621	0.09701
1054.33044	0.09833
1053.04467	0.09966
1051.75890	0.10101
1050.47313	0.10240
1049.18736	0.10385
1047.90159	0.10536
1046.61583	0.10695
1045.33006	0.10858
1044.04429	0.11020
1042.75852	0.11175
1041.47275	0.11323
1040.18698	0.11470
1038.90121	0.11617
1037.61544	0.11768
1036.32967	0.11919
1035.04391	0.12065
1033.75814	0.12198
1032.47237	0.12315
1031.18660	0.12417
1029.90083	0.12507
1028.61506	0.12583
1027.32929	0.12637
1026.04352	0.12669
1024.75775	0.12680
1023.47199	0.12674
1022.18622	0.12653
1020.90045	0.12613
1019.61468	0.12553
1018.32891	0.12470
1017.04314	0.12367
1015.75737	0.12252
1014.47160	0.12126
1013.18584	0.11981
1011.90007	0.11813
1010.61430	0.11623
1009.32853	0.11417
1008.04276	0.11196
1006.75699	0.10955
1005.47122	0.10690
1004.18545	0.10405
1002.89968	0.10110
1001.61392	0.09815
1000.32815	0.09523
999.04238	0.09229
997.75661	0.08929
996.47084	0.08625
995.18507	0.08326
993.89930	0.08036
992.61353	0.07753
991.32777	0.07472
990.04200	0.07198
988.75623	0.06936
987.47046	0.06690
986.18469	0.06456
984.89892	0.06230
983.61315	0.06008
982.32738	0.05793
981.04161	0.05592
979.75585	0.05412
978.47008	0.05256
977.18431	0.05120
975.89854	0.04997
974.61277	0.04884
973.32700	0.04783
972.04123	0.04697
970.75546	0.04631
969.46970	0.04589
968.18393	0.04571
966.89816	0.04575
965.61239	0.04596
964.32662	0.04631
963.04085	0.04671
961.75508	0.04703
960.46931	0.04714
959.18354	0.04690
957.89778	0.04630
956.61201	0.04544
955.32624	0.04451
954.04047	0.04362
952.75470	0.04278
951.46893	0.04193
950.18316	0.04103
948.89739	0.04009
947.61163	0.03915
946.32586	0.03828
945.04009	0.03749
943.75432	0.03677
942.46855	0.03608
941.18278	0.03541
939.89701	0.03474
938.61124	0.03407
937.32547	0.03340
936.03971	0.03274
934.75394	0.03211
933.46817	0.03150
932.18240	0.03092
930.89663	0.03038
929.61086	0.02986
928.32509	0.02937
927.03932	0.02894
925.75356	0.02857
924.46779	0.02829
923.18202	0.02804
921.89625	0.02775
920.61048	0.02744
919.32471	0.02715
918.03894	0.02695
916.75317	0.02680
915.46740	0.02661
914.18164	0.02630
912.89587	0.02591
911.61010	0.02555
910.32433	0.02529
909.03856	0.02513
907.75279	0.02501
906.46702	0.02486
905.18125	0.02467
903.89549	0.02444
902.60972	0.02416
901.32395	0.02387
900.03818	0.02363
898.75241	0.02347
897.46664	0.02333
896.18087	0.02316
894.89510	0.02293
893.60933	0.02271
892.32357	0.02260
891.03780	0.02260
889.75203	0.02269
888.46626	0.02281
887.18049	0.02302
885.89472	0.02340
884.60895	0.02406
883.32318	0.02500
882.03742	0.02613
880.75165	0.02729
879.46588	0.02828
878.18011	0.02905
876.89434	0.02970
875.60857	0.03038
874.32280	0.03111
873.03703	0.03175
871.75126	0.03214
870.46550	0.03221
869.17973	0.03192
867.89396	0.03131
866.60819	0.03044
865.32242	0.02944
864.03665	0.02839
862.75088	0.02732
861.46511	0.02629
860.17935	0.02538
858.89358	0.02471
857.60781	0.02427
856.32204	0.02398
855.03627	0.02373
853.75050	0.02346
852.46473	0.02320
851.17896	0.02299
849.89319	0.02282
848.60743	0.02267
847.32166	0.02250
846.03589	0.02231
844.75012	0.02209
843.46435	0.02187
842.17858	0.02170
840.89281	0.02159
839.60704	0.02151
838.32128	0.02142
837.03551	0.02126
835.74974	0.02107
834.46397	0.02086
833.17820	0.02067
831.89243	0.02052
830.60666	0.02044
829.32089	0.02044
828.03512	0.02050
826.74936	0.02054
825.46359	0.02052
824.17782	0.02043
822.89205	0.02030
821.60628	0.02016
820.32051	0.02002
819.03474	0.01994
817.74897	0.01993
816.46321	0.01999
815.17744	0.02009
813.89167	0.02018
812.60590	0.02021
811.32013	0.02020
810.03436	0.02018
808.74859	0.02016
807.46282	0.02008
806.17705	0.01992
804.89129	0.01976
803.60552	0.01968
802.31975	0.01973
801.03398	0.01986
799.74821	0.01998
798.46244	0.02003
797.17667	0.02001
795.89090	0.01997
794.60513	0.01995
793.31937	0.01996
792.03360	0.01995
790.74783	0.01989
789.46206	0.01977
788.17629	0.01964
786.89052	0.01956
785.60475	0.01954
784.31898	0.01955
783.03322	0.01956
781.74745	0.01959
780.46168	0.01965
779.17591	0.01971
777.89014	0.01975
776.60437	0.01976
775.31860	0.01976
774.03283	0.01974
772.74706	0.01973
771.46130	0.01976
770.17553	0.01986
768.88976	0.01996
767.60399	0.01999
766.31822	0.01990
765.03245	0.01976
763.74668	0.01966
762.46091	0.01969
761.17515	0.01983
759.88938	0.02003
758.60361	0.02024
757.31784	0.02037
756.03207	0.02038
754.74630	0.02025
753.46053	0.02005
752.17476	0.01989
750.88899	0.01985
749.60323	0.01992
748.31746	0.01999
747.03169	0.02001
745.74592	0.01998
744.46015	0.01993
743.17438	0.01984
741.88861	0.01971
740.60284	0.01959
739.31708	0.01960
738.03131	0.01975
736.74554	0.01990
735.45977	0.01997
734.17400	0.01994
732.88823	0.01987
731.60246	0.01982
730.31669	0.01984
729.03092	0.01993
727.74516	0.02008
726.45939	0.02022
725.17362	0.02031
723.88785	0.02037
722.60208	0.02034
721.31631	0.02024
720.03054	0.02009
718.74477	0.01991
717.45901	0.01978
716.17324	0.01974
714.88747	0.01980
713.60170	0.01993
712.31593	0.02007
711.03016	0.02016
709.74439	0.02017
708.45862	0.02013
707.17285	0.02007
705.88709	0.02003
704.60132	0.02000
703.31555	0.01997
702.02978	0.01995
700.74401	0.01994
699.45824	0.01995
698.17247	0.01996
696.88670	0.01997
695.60094	0.01997
694.31517	0.01994
693.02940	0.01990
691.74363	0.01989
690.45786	0.01992
689.17209	0.01999
687.88632	0.02007
686.60055	0.02014
685.31478	0.02019
684.02902	0.02021
682.74325	0.02020
681.45748	0.02018
680.17171	0.02014
678.88594	0.02007
677.60017	0.02001
676.31440	0.02000
675.02863	0.02006
673.74287	0.02021
672.45710	0.02041
671.17133	0.02065
669.88556	0.02091
668.59979	0.02114
667.31402	0.02127
666.02825	0.02125
664.74248	0.02112
663.45671	0.02097
662.17095	0.02083
660.88518	0.02070
659.59941	0.02051
658.31364	0.02026
657.02787	0.02000
655.74210	0.01980
654.45633	0.01970
653.17056	0.01969
651.88480	0.01972
650.59903	0.01973
649.31326	0.01970
648.02749	0.01961
646.74172	0.01946
645.45595	0.01932
644.17018	0.01923
642.88441	0.01923
641.59864	0.01929
640.31288	0.01941
639.02711	0.01952
637.74134	0.01960
636.45557	0.01965
635.16980	0.01968
633.88403	0.01972
632.59826	0.01979
631.31249	0.01987
630.02673	0.01984
628.74096	0.01982
627.45519	0.02040
626.16942	0.02022
624.88365	0.01930
623.59788	0.01832
622.31211	0.01816
621.02634	0.01945
619.74057	0.02195
618.45481	0.02498
617.16904	0.02819
615.88327	0.03143
614.59750	0.03422
613.31173	0.03606
612.02596	0.03730
610.74019	0.03917
609.45442	0.04240
608.16866	0.04618
606.88289	0.04920
605.59712	0.05110
604.31135	0.05226
603.02558	0.05294
601.73981	0.05297
600.45404	0.05227
599.16827	0.05101
597.88250	0.04947
596.59674	0.04788
595.31097	0.04644
594.02520	0.04525
592.73943	0.04431
591.45366	0.04358
590.16789	0.04309
588.88212	0.04291
587.59635	0.04312
586.31059	0.04369
585.02482	0.04454
583.73905	0.04559
582.45328	0.04675
581.16751	0.04800
579.88174	0.04930
578.59597	0.05062
577.31020	0.05197
576.02443	0.05329
574.73867	0.05452
573.45290	0.05564
572.16713	0.05670
570.88136	0.05788
569.59559	0.05927
568.30982	0.06089
567.02405	0.06268
565.73828	0.06448
564.45251	0.06604
563.16675	0.06708
561.88098	0.06743
560.59521	0.06701
559.30944	0.06577
558.02367	0.06371
556.73790	0.06096
555.45213	0.05783
554.16636	0.05463
552.88060	0.05160
551.59483	0.04886
550.30906	0.04644
549.02329	0.04430
547.73752	0.04233
546.45175	0.04048
545.16598	0.03881
543.88021	0.03739
542.59444	0.03627
541.30868	0.03541
540.02291	0.03469
538.73714	0.03399
537.45137	0.03322
536.16560	0.03241
534.87983	0.03165
533.59406	0.03098
532.30829	0.03038
531.02253	0.02976
529.73676	0.02910
528.45099	0.02844
527.16522	0.02782
525.87945	0.02727
524.59368	0.02676
523.30791	0.02627
522.02214	0.02579
520.73637	0.02529
519.45061	0.02478
518.16484	0.02429
516.87907	0.02386
515.59330	0.02350
514.30753	0.02320
513.02176	0.02296
511.73599	0.02276
510.45022	0.02259
509.16446	0.02245
507.87869	0.02235
506.59292	0.02226
505.30715	0.02212
504.02138	0.02187
502.73561	0.02153
501.44984	0.02119
500.16407	0.02090
498.87830	0.02067
497.59254	0.02044
496.30677	0.02017
495.02100	0.01989
493.73523	0.01965
492.44946	0.01950
491.16369	0.01945
489.87792	0.01952
488.59215	0.01965
487.30639	0.01973
486.02062	0.01971
484.73485	0.01963
483.44908	0.01955
482.16331	0.01950
480.87754	0.01953
479.59177	0.01963
478.30600	0.01981
477.02023	0.02003
475.73447	0.02026
474.44870	0.02045
473.16293	0.02060
471.87716	0.02068
470.59139	0.02065
469.30562	0.02050
468.01985	0.02027
466.73408	0.02003
465.44832	0.01979
464.16255	0.01953
462.87678	0.01922
461.59101	0.01891
460.30524	0.01863
459.01947	0.01841
457.73370	0.01826
456.44793	0.01815
455.16216	0.01805
453.87640	0.01791
452.59063	0.01771
451.30486	0.01747
450.01909	0.01725
448.73332	0.01707
447.44755	0.01697
446.16178	0.01692
444.87601	0.01691
443.59025	0.01689
442.30448	0.01682
441.01871	0.01669
439.73294	0.01651
438.44717	0.01632
437.16140	0.01617
435.87563	0.01611
434.58986	0.01614
433.30409	0.01620
432.01833	0.01618
430.73256	0.01608
429.44679	0.01592
428.16102	0.01577
426.87525	0.01565
425.58948	0.01557
424.30371	0.01552
423.01794	0.01549
421.73218	0.01545
420.44641	0.01540
419.16064	0.01532
417.87487	0.01521
416.58910	0.01508
415.30333	0.01494
414.01756	0.01481
412.73179	0.01471
411.44602	0.01463
410.16026	0.01457
408.87449	0.01454
407.58872	0.01455
406.30295	0.01461
405.01718	0.01468
403.73141	0.01470
402.44564	0.01466
401.15987	0.01461
399.87411	0.01461
