3997.45528	0.03385
3996.16951	0.03452
3994.88374	0.03473
3993.59798	0.03423
3992.31221	0.03311
3991.02644	0.03181
3989.74067	0.03089
3988.45490	0.03062
3987.16913	0.03082
3985.88336	0.03110
3984.59759	0.03125
3983.31183	0.03134
3982.02606	0.03153
3980.74029	0.03185
3979.45452	0.03217
3978.16875	0.03231
3976.88298	0.03218
3975.59721	0.03177
3974.31144	0.03121
3973.02567	0.03074
3971.73991	0.03062
3970.45414	0.03083
3969.16837	0.03116
3967.88260	0.03149
3966.59683	0.03202
3965.31106	0.03288
3964.02529	0.03377
3962.73952	0.03418
3961.45376	0.03396
3960.16799	0.03335
3958.88222	0.03266
3957.59645	0.03201
3956.31068	0.03152
3955.02491	0.03138
3953.73914	0.03164
3952.45337	0.03205
3951.16760	0.03221
3949.88184	0.03203
3948.59607	0.03179
3947.31030	0.03188
3946.02453	0.03239
3944.73876	0.03311
3943.45299	0.03381
3942.16722	0.03439
3940.88145	0.03480
3939.59569	0.03493
3938.30992	0.03472
3937.02415	0.03423
3935.73838	0.03362
3934.45261	0.03304
3933.16684	0.03262
3931.88107	0.03228
3930.59530	0.03187
3929.30953	0.03142
3928.02377	0.03114
3926.73800	0.03122
3925.45223	0.03160
3924.16646	0.03212
3922.88069	0.03265
3921.59492	0.03319
3920.30915	0.03367
3919.02338	0.03388
3917.73762	0.03371
3916.45185	0.03337
3915.16608	0.03318
3913.88031	0.03326
3912.59454	0.03352
3911.30877	0.03385
3910.02300	0.03407
3908.73723	0.03409
3907.45146	0.03394
3906.16570	0.03376
3904.87993	0.03367
3903.59416	0.03354
3902.30839	0.03315
3901.02262	0.03255
3899.73685	0.03217
3898.45108	0.03233
3897.16531	0.03272
3895.87955	0.03271
3894.59378	0.03207
3893.30801	0.03134
3892.02224	0.03138
3890.73647	0.03258
3889.45070	0.03434
3888.16493	0.03550
3886.87916	0.03543
3885.59339	0.03442
3884.30763	0.03295
3883.02186	0.03131
3881.73609	0.02987
3880.45032	0.02918
3879.16455	0.02945
3877.87878	0.03028
3876.59301	0.03107
3875.30724	0.03153
3874.02148	0.03161
3872.73571	0.03130
3871.44994	0.03082
3870.16417	0.03077
3868.87840	0.03147
3867.59263	0.03230
3866.30686	0.03260
3865.02109	0.03256
3863.73532	0.03258
3862.44956	0.03265
3861.16379	0.03264
3859.87802	0.03262
3858.59225	0.03272
3857.30648	0.03275
3856.02071	0.03246
3854.73494	0.03206
3853.44917	0.03211
3852.16341	0.03247
3850.87764	0.03238
3849.59187	0.03165
3848.30610	0.03088
3847.02033	0.03059
3845.73456	0.03074
3844.44879	0.03108
3843.16302	0.03151
3841.87725	0.03194
3840.59149	0.03209
3839.30572	0.03186
3838.01995	0.03170
3836.73418	0.03207
3835.44841	0.03274
3834.16264	0.03322
3832.87687	0.03342
3831.59110	0.03351
3830.30534	0.03347
3829.01957	0.03314
3827.73380	0.03257
3826.44803	0.03213
3825.16226	0.03208
3823.87649	0.03213
3822.59072	0.03200
3821.30495	0.03189
3820.01918	0.03196
3818.73342	0.03173
3817.44765	0.03083
3816.16188	0.02996
3814.87611	0.02991
3813.59034	0.03042
3812.30457	0.03082
3811.01880	0.03091
3809.73303	0.03074
3808.44726	0.03038
3807.16150	0.03026
3805.87573	0.03072
3804.58996	0.03133
3803.30419	0.03140
3802.01842	0.03101
3800.73265	0.03075
3799.44688	0.03066
3798.16111	0.03047
3796.87535	0.03043
3795.58958	0.03088
3794.30381	0.03153
3793.01804	0.03184
3791.73227	0.03161
3790.44650	0.03096
3789.16073	0.03010
3787.87496	0.02930
3786.58919	0.02881
3785.30343	0.02883
3784.01766	0.02935
3782.73189	0.03008
3781.44612	0.03052
3780.16035	0.03043
3778.87458	0.03000
3777.58881	0.02959
3776.30304	0.02940
3775.01728	0.02947
3773.73151	0.02970
3772.44574	0.02994
3771.15997	0.03020
3769.87420	0.03062
3768.58843	0.03109
3767.30266	0.03128
3766.01689	0.03119
3764.73112	0.03116
3763.44536	0.03120
3762.15959	0.03085
3760.87382	0.02983
3759.58805	0.02849
3758.30228	0.02756
3757.01651	0.02752
3755.73074	0.02813
3754.44497	0.02852
3753.15921	0.02835
3751.87344	0.02809
3750.58767	0.02826
3749.30190	0.02900
3748.01613	0.02985
3746.73036	0.03000
3745.44459	0.02944
3744.15882	0.02926
3742.87305	0.02985
3741.58729	0.03037
3740.30152	0.03023
3739.01575	0.02955
3737.72998	0.02856
3736.44421	0.02757
3735.15844	0.02686
3733.87267	0.02638
3732.58690	0.02599
3731.30114	0.02581
3730.01537	0.02593
3728.72960	0.02637
3727.44383	0.02723
3726.15806	0.02855
3724.87229	0.02999
3723.58652	0.03115
3722.30075	0.03195
3721.01498	0.03247
3719.72922	0.03266
3718.44345	0.03249
3717.15768	0.03205
3715.87191	0.03153
3714.58614	0.03105
3713.30037	0.03073
3712.01460	0.03053
3710.72883	0.03016
3709.44307	0.02939
3708.15730	0.02839
3706.87153	0.02761
3705.58576	0.02719
3704.29999	0.02700
3703.01422	0.02698
3701.72845	0.02728
3700.44268	0.02789
3699.15691	0.02848
3697.87115	0.02874
3696.58538	0.02883
3695.29961	0.02906
3694.01384	0.02944
3692.72807	0.02966
3691.44230	0.02946
3690.15653	0.02904
3688.87076	0.02905
3687.58500	0.03004
3686.29923	0.03154
3685.01346	0.03238
3683.72769	0.03206
3682.44192	0.03108
3681.15615	0.03019
3679.87038	0.02967
3678.58461	0.02901
3677.29884	0.02773
3676.01308	0.02649
3674.72731	0.02649
3673.44154	0.02771
3672.15577	0.02896
3670.87000	0.02946
3669.58423	0.02926
3668.29846	0.02857
3667.01269	0.02770
3665.72693	0.02727
3664.44116	0.02747
3663.15539	0.02791
3661.86962	0.02814
3660.58385	0.02819
3659.29808	0.02825
3658.01231	0.02840
3656.72654	0.02861
3655.44077	0.02896
3654.15501	0.02933
3652.86924	0.02951
3651.58347	0.02951
3650.29770	0.02962
3649.01193	0.03007
3647.72616	0.03083
3646.44039	0.03170
3645.15462	0.03233
3643.86886	0.03242
3642.58309	0.03192
3641.29732	0.03104
3640.01155	0.03015
3638.72578	0.02967
3637.44001	0.02981
3636.15424	0.03042
3634.86847	0.03120
3633.58270	0.03202
3632.29694	0.03272
3631.01117	0.03299
3629.72540	0.03286
3628.43963	0.03283
3627.15386	0.03322
3625.86809	0.03382
3624.58232	0.03446
3623.29655	0.03503
3622.01079	0.03529
3620.72502	0.03509
3619.43925	0.03469
3618.15348	0.03456
3616.86771	0.03474
3615.58194	0.03490
3614.29617	0.03478
3613.01040	0.03453
3611.72463	0.03441
3610.43887	0.03447
3609.15310	0.03468
3607.86733	0.03498
3606.58156	0.03527
3605.29579	0.03543
3604.01002	0.03541
3602.72425	0.03526
3601.43848	0.03508
3600.15272	0.03504
3598.86695	0.03522
3597.58118	0.03548
3596.29541	0.03560
3595.00964	0.03560
3593.72387	0.03580
3592.43810	0.03646
3591.15233	0.03736
3589.86656	0.03801
3588.58080	0.03812
3587.29503	0.03794
3586.00926	0.03789
3584.72349	0.03827
3583.43772	0.03895
3582.15195	0.03960
3580.86618	0.03991
3579.58041	0.03975
3578.29464	0.03913
3577.00888	0.03828
3575.72311	0.03752
3574.43734	0.03723
3573.15157	0.03757
3571.86580	0.03827
3570.58003	0.03887
3569.29426	0.03914
3568.00849	0.03919
3566.72273	0.03929
3565.43696	0.03954
3564.15119	0.03988
3562.86542	0.04027
3561.57965	0.04066
3560.29388	0.04094
3559.00811	0.04110
3557.72234	0.04124
3556.43657	0.04145
3555.15081	0.04158
3553.86504	0.04143
3552.57927	0.04104
3551.29350	0.04075
3550.00773	0.04090
3548.72196	0.04150
3547.43619	0.04223
3546.15042	0.04275
3544.86466	0.04289
3543.57889	0.04277
3542.29312	0.04261
3541.00735	0.04254
3539.72158	0.04243
3538.43581	0.04210
3537.15004	0.04167
3535.86427	0.04151
3534.57850	0.04184
3533.29274	0.04242
3532.00697	0.04287
3530.72120	0.04304
3529.43543	0.04303
3528.14966	0.04298
3526.86389	0.04305
3525.57812	0.04331
3524.29235	0.04367
3523.00659	0.04389
3521.72082	0.04384
3520.43505	0.04368
3519.14928	0.04367
3517.86351	0.04385
3516.57774	0.04409
3515.29197	0.04435
3514.00620	0.04477
3512.72043	0.04537
3511.43467	0.04596
3510.14890	0.04634
3508.86313	0.04650
3507.57736	0.04648
3506.29159	0.04626
3505.00582	0.04578
3503.72005	0.04519
3502.43428	0.04474
3501.14852	0.04461
3499.86275	0.04478
3498.57698	0.04513
3497.29121	0.04561
3496.00544	0.04625
3494.71967	0.04707
3493.43390	0.04796
3492.14813	0.04863
3490.86236	0.04879
3489.57660	0.04837
3488.29083	0.04759
3487.00506	0.04686
3485.71929	0.04646
3484.43352	0.04638
3483.14775	0.04639
3481.86198	0.04647
3480.57621	0.04694
3479.29045	0.04804
3478.00468	0.04950
3476.71891	0.05060
3475.43314	0.05083
3474.14737	0.05035
3472.86160	0.04973
3471.57583	0.04942
3470.29006	0.04947
3469.00429	0.04965
3467.71853	0.04975
3466.43276	0.04973
3465.14699	0.04971
3463.86122	0.04976
3462.57545	0.04992
3461.28968	0.05016
3460.00391	0.05047
3458.71814	0.05071
3457.43238	0.05069
3456.14661	0.05035
3454.86084	0.04993
3453.57507	0.04980
3452.28930	0.05017
3451.00353	0.05093
3449.71776	0.05177
3448.43199	0.05235
3447.14622	0.05250
3445.86046	0.05233
3444.57469	0.05213
3443.28892	0.05214
3442.00315	0.05237
3440.71738	0.05261
3439.43161	0.05256
3438.14584	0.05212
3436.86007	0.05154
3435.57431	0.05127
3434.28854	0.05161
3433.00277	0.05244
3431.71700	0.05331
3430.43123	0.05378
3429.14546	0.05362
3427.85969	0.05292
3426.57392	0.05208
3425.28815	0.05159
3424.00239	0.05176
3422.71662	0.05239
3421.43085	0.05295
3420.14508	0.05313
3418.85931	0.05302
3417.57354	0.05289
3416.28777	0.05291
3415.00200	0.05300
3413.71624	0.05299
3412.43047	0.05281
3411.14470	0.05261
3409.85893	0.05258
3408.57316	0.05282
3407.28739	0.05318
3406.00162	0.05343
3404.71585	0.05352
3403.43008	0.05359
3402.14432	0.05377
3400.85855	0.05404
3399.57278	0.05429
3398.28701	0.05441
3397.00124	0.05437
3395.71547	0.05413
3394.42970	0.05385
3393.14393	0.05385
3391.85817	0.05435
3390.57240	0.05514
3389.28663	0.05568
3388.00086	0.05561
3386.71509	0.05501
3385.42932	0.05433
3384.14355	0.05399
3382.85778	0.05418
3381.57201	0.05483
3380.28625	0.05563
3379.00048	0.05620
3377.71471	0.05632
3376.42894	0.05612
3375.14317	0.05596
3373.85740	0.05609
3372.57163	0.05649
3371.28586	0.05689
3370.00010	0.05709
3368.71433	0.05711
3367.42856	0.05707
3366.14279	0.05697
3364.85702	0.05671
3363.57125	0.05625
3362.28548	0.05576
3360.99971	0.05540
3359.71394	0.05512
3358.42818	0.05476
3357.14241	0.05437
3355.85664	0.05426
3354.57087	0.05471
3353.28510	0.05564
3351.99933	0.05653
3350.71356	0.05690
3349.42779	0.05671
3348.14202	0.05637
3346.85626	0.05626
3345.57049	0.05638
3344.28472	0.05648
3342.99895	0.05634
3341.71318	0.05593
3340.42741	0.05535
3339.14164	0.05473
3337.85587	0.05432
3336.57011	0.05435
3335.28434	0.05485
3333.99857	0.05555
3332.71280	0.05602
3331.42703	0.05600
3330.14126	0.05558
3328.85549	0.05510
3327.56972	0.05484
3326.28395	0.05489
3324.99819	0.05509
3323.71242	0.05517
3322.42665	0.05494
3321.14088	0.05454
3319.85511	0.05433
3318.56934	0.05454
3317.28357	0.05506
3315.99780	0.05557
3314.71204	0.05583
3313.42627	0.05581
3312.14050	0.05559
3310.85473	0.05533
3309.56896	0.05513
3308.28319	0.05506
3306.99742	0.05509
3305.71165	0.05517
3304.42588	0.05524
3303.14012	0.05524
3301.85435	0.05517
3300.56858	0.05512
3299.28281	0.05525
3297.99704	0.05565
3296.71127	0.05615
3295.42550	0.05642
3294.13973	0.05630
3292.85397	0.05592
3291.56820	0.05556
3290.28243	0.05546
3288.99666	0.05556
3287.71089	0.05561
3286.42512	0.05532
3285.13935	0.05463
3283.85358	0.05369
3282.56781	0.05281
3281.28205	0.05231
3279.99628	0.05238
3278.71051	0.05298
3277.42474	0.05386
3276.13897	0.05469
3274.85320	0.05522
3273.56743	0.05537
3272.28166	0.05523
3270.99590	0.05496
3269.71013	0.05476
3268.42436	0.05470
3267.13859	0.05481
3265.85282	0.05502
3264.56705	0.05526
3263.28128	0.05535
3261.99551	0.05515
3260.70974	0.05470
3259.42398	0.05419
3258.13821	0.05379
3256.85244	0.05355
3255.56667	0.05335
3254.28090	0.05316
3252.99513	0.05299
3251.70936	0.05289
3250.42359	0.05279
3249.13783	0.05261
3247.85206	0.05231
3246.56629	0.05198
3245.28052	0.05177
3243.99475	0.05181
3242.70898	0.05216
3241.42321	0.05276
3240.13744	0.05344
3238.85167	0.05392
3237.56591	0.05392
3236.28014	0.05337
3234.99437	0.05254
3233.70860	0.05185
3232.42283	0.05161
3231.13706	0.05183
3229.85129	0.05219
3228.56552	0.05236
3227.27976	0.05230
3225.99399	0.05227
3224.70822	0.05248
3223.42245	0.05279
3222.13668	0.05289
3220.85091	0.05267
3219.56514	0.05234
3218.27937	0.05217
3216.99360	0.05228
3215.70784	0.05250
3214.42207	0.05259
3213.13630	0.05247
3211.85053	0.05222
3210.56476	0.05204
3209.27899	0.05207
3207.99322	0.05228
3206.70745	0.05254
3205.42169	0.05266
3204.13592	0.05258
3202.85015	0.05237
3201.56438	0.05211
3200.27861	0.05187
3198.99284	0.05174
3197.70707	0.05180
3196.42130	0.05197
3195.13553	0.05208
3193.84977	0.05199
3192.56400	0.05177
3191.27823	0.05147
3189.99246	0.05111
3188.70669	0.05069
3187.42092	0.05038
3186.13515	0.05028
3184.84938	0.05032
3183.56362	0.05025
3182.27785	0.05000
3180.99208	0.04976
3179.70631	0.04978
3178.42054	0.05003
3177.13477	0.05030
3175.84900	0.05047
3174.56323	0.05060
3173.27746	0.05075
3171.99170	0.05074
3170.70593	0.05037
3169.42016	0.04967
3168.13439	0.04902
3166.84862	0.04878
3165.56285	0.04898
3164.27708	0.04935
3162.99131	0.04966
3161.70555	0.04989
3160.41978	0.05013
3159.13401	0.05032
3157.84824	0.05035
3156.56247	0.05013
3155.27670	0.04970
3153.99093	0.04919
3152.70516	0.04877
3151.41939	0.04850
3150.13363	0.04840
3148.84786	0.04844
3147.56209	0.04856
3146.27632	0.04865
3144.99055	0.04859
3143.70478	0.04844
3142.41901	0.04838
3141.13324	0.04853
3139.84748	0.04874
3138.56171	0.04872
3137.27594	0.04831
3135.99017	0.04764
3134.70440	0.04706
3133.41863	0.04684
3132.13286	0.04696
3130.84709	0.04716
3129.56132	0.04722
3128.27556	0.04713
3126.98979	0.04700
3125.70402	0.04691
3124.41825	0.04686
3123.13248	0.04678
3121.84671	0.04667
3120.56094	0.04660
3119.27517	0.04662
3117.98940	0.04672
3116.70364	0.04681
3115.41787	0.04678
3114.13210	0.04663
3112.84633	0.04645
3111.56056	0.04636
3110.27479	0.04641
3108.98902	0.04652
3107.70325	0.04661
3106.41749	0.04666
3105.13172	0.04675
3103.84595	0.04684
3102.56018	0.04677
3101.27441	0.04645
3099.98864	0.04603
3098.70287	0.04574
3097.41710	0.04566
3096.13133	0.04572
3094.84557	0.04583
3093.55980	0.04595
3092.27403	0.04605
3090.98826	0.04613
3089.70249	0.04623
3088.41672	0.04637
3087.13095	0.04640
3085.84518	0.04616
3084.55942	0.04562
3083.27365	0.04497
3081.98788	0.04447
3080.70211	0.04432
3079.41634	0.04452
3078.13057	0.04484
3076.84480	0.04498
3075.55903	0.04487
3074.27326	0.04469
3072.98750	0.04463
3071.70173	0.04465
3070.41596	0.04460
3069.13019	0.04446
3067.84442	0.04440
3066.55865	0.04451
3065.27288	0.04476
3063.98711	0.04497
3062.70135	0.04503
3061.41558	0.04497
3060.12981	0.04490
3058.84404	0.04488
3057.55827	0.04483
3056.27250	0.04469
3054.98673	0.04449
3053.70096	0.04436
3052.41519	0.04434
3051.12943	0.04433
3049.84366	0.04418
3048.55789	0.04390
3047.27212	0.04367
3045.98635	0.04364
3044.70058	0.04383
3043.41481	0.04405
3042.12904	0.04406
3040.84328	0.04378
3039.55751	0.04338
3038.27174	0.04313
3036.98597	0.04321
3035.70020	0.04356
3034.41443	0.04387
3033.12866	0.04384
3031.84289	0.04340
3030.55712	0.04283
3029.27136	0.04250
3027.98559	0.04254
3026.69982	0.04269
3025.41405	0.04260
3024.12828	0.04225
3022.84251	0.04186
3021.55674	0.04165
3020.27097	0.04167
3018.98521	0.04182
3017.69944	0.04193
3016.41367	0.04189
3015.12790	0.04171
3013.84213	0.04154
3012.55636	0.04150
3011.27059	0.04160
3009.98482	0.04177
3008.69905	0.04193
3007.41329	0.04201
3006.12752	0.04196
3004.84175	0.04177
3003.55598	0.04153
3002.27021	0.04130
3000.98444	0.04112
2999.69867	0.04098
2998.41290	0.04088
2997.12714	0.04085
2995.84137	0.04090
2994.55560	0.04104
2993.26983	0.04123
2991.98406	0.04138
2990.69829	0.04139
2989.41252	0.04129
2988.12675	0.04116
2986.84098	0.04106
2985.55522	0.04099
2984.26945	0.04095
2982.98368	0.04095
2981.69791	0.04103
2980.41214	0.04122
2979.12637	0.04157
2977.84060	0.04209
2976.55483	0.04272
2975.26907	0.04333
2973.98330	0.04377
2972.69753	0.04398
2971.41176	0.04401
2970.12599	0.04398
2968.84022	0.04409
2967.55445	0.04449
2966.26868	0.04514
2964.98291	0.04579
2963.69715	0.04625
2962.41138	0.04654
2961.12561	0.04683
2959.83984	0.04719
2958.55407	0.04756
2957.26830	0.04783
2955.98253	0.04798
2954.69676	0.04801
2953.41100	0.04795
2952.12523	0.04785
2950.83946	0.04780
2949.55369	0.04778
2948.26792	0.04771
2946.98215	0.04752
2945.69638	0.04726
2944.41061	0.04707
2943.12484	0.04705
2941.83908	0.04714
2940.55331	0.04726
2939.26754	0.04731
2937.98177	0.04731
2936.69600	0.04735
2935.41023	0.04756
2934.12446	0.04800
2932.83869	0.04859
2931.55293	0.04913
2930.26716	0.04948
2928.98139	0.04958
2927.69562	0.04949
2926.40985	0.04933
2925.12408	0.04925
2923.83831	0.04934
2922.55254	0.04954
2921.26677	0.04969
2919.98101	0.04962
2918.69524	0.04927
2917.40947	0.04874
2916.12370	0.04819
2914.83793	0.04774
2913.55216	0.04734
2912.26639	0.04690
2910.98062	0.04635
2909.69486	0.04582
2908.40909	0.04540
2907.12332	0.04514
2905.83755	0.04499
2904.55178	0.04494
2903.26601	0.04499
2901.98024	0.04506
2900.69447	0.04501
2899.40870	0.04485
2898.12294	0.04466
2896.83717	0.04446
2895.55140	0.04415
2894.26563	0.04369
2892.97986	0.04324
2891.69409	0.04299
2890.40832	0.04301
2889.12255	0.04318
2887.83678	0.04328
2886.55102	0.04315
2885.26525	0.04278
2883.97948	0.04234
2882.69371	0.04204
2881.40794	0.04200
2880.12217	0.04223
2878.83640	0.04254
2877.55063	0.04272
2876.26487	0.04266
2874.97910	0.04243
2873.69333	0.04217
2872.40756	0.04198
2871.12179	0.04190
2869.83602	0.04193
2868.55025	0.04208
2867.26448	0.04229
2865.97871	0.04242
2864.69295	0.04234
2863.40718	0.04213
2862.12141	0.04200
2860.83564	0.04213
2859.54987	0.04244
2858.26410	0.04269
2856.97833	0.04275
2855.69256	0.04256
2854.40680	0.04216
2853.12103	0.04164
2851.83526	0.04115
2850.54949	0.04080
2849.26372	0.04056
2847.97795	0.04031
2846.69218	0.03999
2845.40641	0.03964
2844.12064	0.03936
2842.83488	0.03921
2841.54911	0.03911
2840.26334	0.03886
2838.97757	0.03834
2837.69180	0.03766
2836.40603	0.03703
2835.12026	0.03665
2833.83449	0.03649
2832.54873	0.03634
2831.26296	0.03602
2829.97719	0.03555
2828.69142	0.03513
2827.40565	0.03485
2826.11988	0.03471
2824.83411	0.03464
2823.54834	0.03462
2822.26257	0.03463
2820.97681	0.03462
2819.69104	0.03455
2818.40527	0.03439
2817.11950	0.03413
2815.83373	0.03384
2814.54796	0.03368
2813.26219	0.03374
2811.97642	0.03394
2810.69066	0.03410
2809.40489	0.03406
2808.11912	0.03386
2806.83335	0.03366
2805.54758	0.03358
2804.26181	0.03364
2802.97604	0.03373
2801.69027	0.03374
2800.40450	0.03360
2799.11874	0.03332
2797.83297	0.03297
2796.54720	0.03266
2795.26143	0.03249
2793.97566	0.03249
2792.68989	0.03264
2791.40412	0.03286
2790.11835	0.03310
2788.83259	0.03325
2787.54682	0.03325
2786.26105	0.03312
2784.97528	0.03292
2783.68951	0.03276
2782.40374	0.03263
2781.11797	0.03253
2779.83220	0.03245
2778.54643	0.03240
2777.26067	0.03235
2775.97490	0.03224
2774.68913	0.03206
2773.40336	0.03190
2772.11759	0.03186
2770.83182	0.03191
2769.54605	0.03195
2768.26028	0.03190
2766.97452	0.03180
2765.68875	0.03175
2764.40298	0.03182
2763.11721	0.03195
2761.83144	0.03200
2760.54567	0.03190
2759.25990	0.03167
2757.97413	0.03137
2756.68836	0.03108
2755.40260	0.03086
2754.11683	0.03079
2752.83106	0.03095
2751.54529	0.03130
2750.25952	0.03170
2748.97375	0.03200
2747.68798	0.03210
2746.40221	0.03200
2745.11645	0.03175
2743.83068	0.03145
2742.54491	0.03118
2741.25914	0.03100
2739.97337	0.03092
2738.68760	0.03092
2737.40183	0.03099
2736.11606	0.03107
2734.83029	0.03109
2733.54453	0.03099
2732.25876	0.03081
2730.97299	0.03065
2729.68722	0.03064
2728.40145	0.03084
2727.11568	0.03113
2725.82991	0.03127
2724.54414	0.03108
2723.25838	0.03061
2721.97261	0.03007
2720.68684	0.02972
2719.40107	0.02960
2718.11530	0.02967
2716.82953	0.02982
2715.54376	0.02995
2714.25799	0.03001
2712.97222	0.02999
2711.68646	0.02990
2710.40069	0.02980
2709.11492	0.02972
2707.82915	0.02967
2706.54338	0.02962
2705.25761	0.02960
2703.97184	0.02963
2702.68607	0.02969
2701.40031	0.02972
2700.11454	0.02973
2698.82877	0.02974
2697.54300	0.02972
2696.25723	0.02966
2694.97146	0.02958
2693.68569	0.02954
2692.39992	0.02953
2691.11415	0.02947
2689.82839	0.02931
2688.54262	0.02909
2687.25685	0.02893
2685.97108	0.02891
2684.68531	0.02902
2683.39954	0.02918
2682.11377	0.02935
2680.82800	0.02951
2679.54224	0.02960
2678.25647	0.02958
2676.97070	0.02945
2675.68493	0.02931
2674.39916	0.02918
2673.11339	0.02899
2671.82762	0.02868
2670.54185	0.02831
2669.25608	0.02801
2667.97032	0.02791
2666.68455	0.02801
2665.39878	0.02825
2664.11301	0.02849
2662.82724	0.02860
2661.54147	0.02853
2660.25570	0.02835
2658.96993	0.02817
2657.68417	0.02804
2656.39840	0.02797
2655.11263	0.02800
2653.82686	0.02811
2652.54109	0.02816
2651.25532	0.02798
2649.96955	0.02758
2648.68378	0.02719
2647.39801	0.02701
2646.11225	0.02701
2644.82648	0.02704
2643.54071	0.02706
2642.25494	0.02711
2640.96917	0.02715
2639.68340	0.02705
2638.39763	0.02681
2637.11186	0.02661
2635.82609	0.02655
2634.54033	0.02657
2633.25456	0.02660
2631.96879	0.02659
2630.68302	0.02654
2629.39725	0.02638
2628.11148	0.02616
2626.82571	0.02600
2625.53994	0.02594
2624.25418	0.02586
2622.96841	0.02564
2621.68264	0.02534
2620.39687	0.02513
2619.11110	0.02504
2617.82533	0.02502
2616.53956	0.02505
2615.25379	0.02512
2613.96802	0.02523
2612.68226	0.02529
2611.39649	0.02523
2610.11072	0.02512
2608.82495	0.02507
2607.53918	0.02511
2606.25341	0.02508
2604.96764	0.02482
2603.68187	0.02437
2602.39611	0.02402
2601.11034	0.02396
2599.82457	0.02404
2598.53880	0.02396
2597.25303	0.02365
2595.96726	0.02338
2594.68149	0.02339
2593.39572	0.02369
2592.10995	0.02403
2590.82419	0.02421
2589.53842	0.02420
2588.25265	0.02412
2586.96688	0.02404
2585.68111	0.02393
2584.39534	0.02367
2583.10957	0.02329
2581.82380	0.02301
2580.53804	0.02302
2579.25227	0.02330
2577.96650	0.02367
2576.68073	0.02391
2575.39496	0.02396
2574.10919	0.02389
2572.82342	0.02381
2571.53765	0.02374
2570.25188	0.02358
2568.96612	0.02325
2567.68035	0.02275
2566.39458	0.02228
2565.10881	0.02205
2563.82304	0.02216
2562.53727	0.02251
2561.25150	0.02285
2559.96573	0.02300
2558.67997	0.02292
2557.39420	0.02275
2556.10843	0.02263
2554.82266	0.02261
2553.53689	0.02270
2552.25112	0.02289
2550.96535	0.02311
2549.67958	0.02318
2548.39381	0.02290
2547.10805	0.02232
2545.82228	0.02172
2544.53651	0.02132
2543.25074	0.02113
2541.96497	0.02109
2540.67920	0.02113
2539.39343	0.02118
2538.10766	0.02121
2536.82190	0.02117
2535.53613	0.02111
2534.25036	0.02114
2532.96459	0.02138
2531.67882	0.02185
2530.39305	0.02235
2529.10728	0.02266
2527.82151	0.02261
2526.53574	0.02226
2525.24998	0.02177
2523.96421	0.02128
2522.67844	0.02084
2521.39267	0.02043
2520.10690	0.02013
2518.82113	0.02010
2517.53536	0.02043
2516.24959	0.02088
2514.96383	0.02111
2513.67806	0.02102
2512.39229	0.02079
2511.10652	0.02071
2509.82075	0.02081
2508.53498	0.02086
2507.24921	0.02064
2505.96344	0.02032
2504.67767	0.02025
2503.39191	0.02069
2502.10614	0.02144
2500.82037	0.02204
2499.53460	0.02216
2498.24883	0.02180
2496.96306	0.02130
2495.67729	0.02093
2494.39152	0.02076
2493.10576	0.02069
2491.81999	0.02072
2490.53422	0.02088
2489.24845	0.02115
2487.96268	0.02149
2486.67691	0.02187
2485.39114	0.02217
2484.10537	0.02219
2482.81960	0.02182
2481.53384	0.02114
2480.24807	0.02046
2478.96230	0.02006
2477.67653	0.02002
2476.39076	0.02026
2475.10499	0.02063
2473.81922	0.02100
2472.53345	0.02127
2471.24769	0.02139
2469.96192	0.02136
2468.67615	0.02122
2467.39038	0.02097
2466.10461	0.02063
2464.81884	0.02030
2463.53307	0.02010
2462.24730	0.02003
2460.96153	0.02000
2459.67577	0.02002
2458.39000	0.02015
2457.10423	0.02032
2455.81846	0.02034
2454.53269	0.02015
2453.24692	0.01998
2451.96115	0.02007
2450.67538	0.02031
2449.38962	0.02040
2448.10385	0.02026
2446.81808	0.02013
2445.53231	0.02026
2444.24654	0.02061
2442.96077	0.02097
2441.67500	0.02114
2440.38923	0.02102
2439.10346	0.02064
2437.81770	0.02016
2436.53193	0.01970
2435.24616	0.01926
2433.96039	0.01886
2432.67462	0.01865
2431.38885	0.01878
2430.10308	0.01911
2428.81731	0.01931
2427.53155	0.01920
2426.24578	0.01890
2424.96001	0.01857
2423.67424	0.01838
2422.38847	0.01847
2421.10270	0.01883
2419.81693	0.01925
2418.53116	0.01950
2417.24539	0.01955
2415.95963	0.01951
2414.67386	0.01941
2413.38809	0.01921
2412.10232	0.01893
2410.81655	0.01870
2409.53078	0.01860
2408.24501	0.01863
2406.95924	0.01869
2405.67347	0.01872
2404.38771	0.01876
2403.10194	0.01886
2401.81617	0.01903
2400.53040	0.01922
2399.24463	0.01920
2397.95886	0.01912
2396.67309	0.01899
2395.38732	0.01883
2394.10156	0.01869
2392.81579	0.01857
2391.53002	0.01852
2390.24425	0.01856
2388.95848	0.01867
2387.67271	0.01873
2386.38694	0.01871
2385.10117	0.01868
2383.81540	0.01880
2382.52964	0.01914
2381.24387	0.01964
2379.95810	0.02011
2378.67233	0.02047
2377.38656	0.02073
2376.10079	0.02097
2374.81502	0.02125
2373.52925	0.02152
2372.24349	0.02173
2370.95772	0.02183
2369.67195	0.02197
2368.38618	0.02222
2367.10041	0.02259
2365.81464	0.02294
2364.52887	0.02325
2363.24310	0.02338
2361.95733	0.02335
2360.67157	0.02323
2359.38580	0.02330
2358.10003	0.02348
2356.81426	0.02365
2355.52849	0.02372
2354.24272	0.02362
2352.95695	0.02345
2351.67118	0.02322
2350.38542	0.02297
2349.09965	0.02286
2347.81388	0.02299
2346.52811	0.02304
2345.24234	0.02293
2343.95657	0.02281
2342.67080	0.02285
2341.38503	0.02285
2340.09926	0.02274
2338.81350	0.02283
2337.52773	0.02311
2336.24196	0.02321
2334.95619	0.02322
2333.67042	0.02359
2332.38465	0.02425
2331.09888	0.02448
2329.81311	0.02467
2328.52735	0.02543
2327.24158	0.02574
2325.95581	0.02554
2324.67004	0.02530
2323.38427	0.02433
2322.09850	0.02278
2320.81273	0.02180
2319.52696	0.02102
2318.24119	0.02053
2316.95543	0.02057
2315.66966	0.02038
2314.38389	0.02000
2313.09812	0.01977
2311.81235	0.01961
2310.52658	0.01982
2309.24081	0.02015
2307.95504	0.02028
2306.66928	0.02031
2305.38351	0.02019
2304.09774	0.02006
2302.81197	0.01998
2301.52620	0.01986
2300.24043	0.01980
2298.95466	0.01973
2297.66889	0.01964
2296.38312	0.01954
2295.09736	0.01949
2293.81159	0.01955
2292.52582	0.01961
2291.24005	0.01954
2289.95428	0.01926
2288.66851	0.01881
2287.38274	0.01831
2286.09697	0.01794
2284.81121	0.01791
2283.52544	0.01821
2282.23967	0.01850
2280.95390	0.01836
2279.66813	0.01774
2278.38236	0.01697
2277.09659	0.01644
2275.81082	0.01625
2274.52505	0.01628
2273.23929	0.01645
2271.95352	0.01671
2270.66775	0.01705
2269.38198	0.01737
2268.09621	0.01751
2266.81044	0.01735
2265.52467	0.01694
2264.23890	0.01643
2262.95314	0.01592
2261.66737	0.01541
2260.38160	0.01498
2259.09583	0.01481
2257.81006	0.01503
2256.52429	0.01554
2255.23852	0.01615
2253.95275	0.01667
2252.66698	0.01704
2251.38122	0.01716
2250.09545	0.01663
2248.80968	0.01533
2247.52391	0.01453
2246.23814	0.01389
2244.95237	0.01352
2243.66660	0.01357
2242.38083	0.01416
2241.09507	0.01513
2239.80930	0.01592
2238.52353	0.01595
2237.23776	0.01523
2235.95199	0.01426
2234.66622	0.01352
2233.38045	0.01310
2232.09468	0.01299
2230.80891	0.01315
2229.52315	0.01334
2228.23738	0.01317
2226.95161	0.01255
2225.66584	0.01193
2224.38007	0.01183
2223.09430	0.01219
2221.80853	0.01255
2220.52276	0.01263
2219.23700	0.01262
2217.95123	0.01269
2216.66546	0.01262
2215.37969	0.01221
2214.09392	0.01158
2212.80815	0.01101
2211.52238	0.01060
2210.23661	0.01016
2208.95084	0.00961
2207.66508	0.00913
2206.37931	0.00898
2205.09354	0.00920
2203.80777	0.00952
2202.52200	0.00969
2201.23623	0.00981
2199.95046	0.01017
2198.66469	0.01083
2197.37893	0.01136
2196.09316	0.01127
2194.80739	0.01056
2193.52162	0.00989
2192.23585	0.01007
2190.95008	0.01111
2189.66431	0.01207
2188.37854	0.01189
2187.09277	0.01054
2185.80701	0.00894
2184.52124	0.00795
2183.23547	0.00772
2181.94970	0.00791
2180.66393	0.00815
2179.37816	0.00815
2178.09239	0.00779
2176.80662	0.00728
2175.52085	0.00706
2174.23509	0.00722
2172.94932	0.00729
2171.66355	0.00692
2170.37778	0.00635
2169.09201	0.00618
2167.80624	0.00671
2166.52047	0.00773
2165.23470	0.00876
2163.94894	0.00936
2162.66317	0.00923
2161.37740	0.00823
2160.09163	0.00649
2158.80586	0.00455
2157.52009	0.00310
2156.23432	0.00251
2154.94855	0.00266
2153.66278	0.00334
2152.37702	0.00432
2151.09125	0.00517
2149.80548	0.00551
2148.51971	0.00530
2147.23394	0.00496
2145.94817	0.00488
2144.66240	0.00512
2143.37663	0.00554
2142.09087	0.00610
2140.80510	0.00671
2139.51933	0.00721
2138.23356	0.00740
2136.94779	0.00727
2135.66202	0.00696
2134.37625	0.00664
2133.09048	0.00648
2131.80471	0.00667
2130.51895	0.00725
2129.23318	0.00789
2127.94741	0.00823
2126.66164	0.00823
2125.37587	0.00817
2124.09010	0.00822
2122.80433	0.00839
2121.51856	0.00863
2120.23280	0.00893
2118.94703	0.00923
2117.66126	0.00941
2116.37549	0.00945
2115.08972	0.00942
2113.80395	0.00948
2112.51818	0.00967
2111.23241	0.00985
2109.94664	0.00975
2108.66088	0.00928
2107.37511	0.00871
2106.08934	0.00840
2104.80357	0.00841
2103.51780	0.00857
2102.23203	0.00871
2100.94626	0.00868
2099.66049	0.00749
2098.37473	0.00655
2097.08896	0.00609
2095.80319	0.00602
2094.51742	0.00641
2093.23165	0.00720
2091.94588	0.00811
2090.66011	0.00885
2089.37434	0.00924
2088.08857	0.00932
2086.80281	0.00916
2085.51704	0.00881
2084.23127	0.00840
2082.94550	0.00808
2081.65973	0.00788
2080.37396	0.00766
2079.08819	0.00722
2077.80242	0.00660
2076.51666	0.00603
2075.23089	0.00572
2073.94512	0.00568
2072.65935	0.00578
2071.37358	0.00593
2070.08781	0.00611
2068.80204	0.00617
2067.51627	0.00589
2066.23050	0.00519
2064.94474	0.00443
2063.65897	0.00413
2062.37320	0.00445
2061.08743	0.00508
2059.80166	0.00561
2058.51589	0.00592
2057.23012	0.00609
2055.94435	0.00612
2054.65859	0.00594
2053.37282	0.00554
2052.08705	0.00501
2050.80128	0.00449
2049.51551	0.00405
2048.22974	0.00354
2046.94397	0.00268
2045.65820	0.00133
2044.37243	-0.00031
2043.08667	-0.00185
2041.80090	-0.00283
2040.51513	-0.00277
2039.22936	-0.00156
2037.94359	0.00018
2036.65782	0.00131
2035.37205	0.00110
2034.08628	-0.00011
2032.80052	-0.00142
2031.51475	-0.00215
2030.22898	-0.00219
2028.94321	-0.00160
2027.65744	-0.00046
2026.37167	0.00108
2025.08590	0.00251
2023.80013	0.00319
2022.51436	0.00283
2021.22860	0.00179
2019.94283	0.00085
2018.65706	0.00052
2017.37129	0.00063
2016.08552	0.00063
2014.79975	0.00016
2013.51398	-0.00062
2012.22821	-0.00122
2010.94245	-0.00130
2009.65668	-0.00080
2008.37091	0.00012
2007.08514	0.00125
2005.79937	0.00237
2004.51360	0.00320
2003.22783	0.00364
2001.94206	0.00380
2000.65629	0.00387
1999.37053	0.00402
1998.08476	0.00437
1996.79899	0.00501
1995.51322	0.00592
1994.22745	0.00684
1992.94168	0.00745
1991.65591	0.00766
1990.37014	0.00757
1989.08438	0.00730
1987.79861	0.00689
1986.51284	0.00632
1985.22707	0.00572
1983.94130	0.00526
1982.65553	0.00508
1981.36976	0.00516
1980.08399	0.00534
1978.79822	0.00531
1977.51246	0.00479
1976.22669	0.00390
1974.94092	0.00326
1973.65515	0.00348
1972.36938	0.00454
1971.08361	0.00569
1969.79784	0.00614
1968.51207	0.00563
1967.22631	0.00453
1965.94054	0.00347
1964.65477	0.00303
1963.36900	0.00346
1962.08323	0.00452
1960.79746	0.00563
1959.51169	0.00636
1958.22592	0.00678
1956.94015	0.00721
1955.65439	0.00777
1954.36862	0.00834
1953.08285	0.00876
1951.79708	0.00905
1950.51131	0.00919
1949.22554	0.00918
1947.93977	0.00907
1946.65400	0.00901
1945.36823	0.00900
1944.08247	0.00896
1942.79670	0.00889
1941.51093	0.00894
1940.22516	0.00910
1938.93939	0.00916
1937.65362	0.00889
1936.36785	0.00830
1935.08208	0.00772
1933.79632	0.00755
1932.51055	0.00794
1931.22478	0.00858
1929.93901	0.00899
1928.65324	0.00897
1927.36747	0.00873
1926.08170	0.00863
1924.79593	0.00878
1923.51016	0.00913
1922.22440	0.00953
1920.93863	0.00981
1919.65286	0.00986
1918.36709	0.00971
1917.08132	0.00946
1915.79555	0.00915
1914.50978	0.00886
1913.22401	0.00873
1911.93825	0.00881
1910.65248	0.00902
1909.36671	0.00921
1908.08094	0.00935
1906.79517	0.00947
1905.50940	0.00962
1904.22363	0.00977
1902.93786	0.00978
1901.65209	0.00960
1900.36633	0.00933
1899.08056	0.00914
1897.79479	0.00906
1896.50902	0.00903
1895.22325	0.00899
1893.93748	0.00906
1892.65171	0.00933
1891.36594	0.00974
1890.08018	0.01008
1888.79441	0.01016
1887.50864	0.00996
1886.22287	0.00966
1884.93710	0.00950
1883.65133	0.00958
1882.36556	0.00977
1881.07979	0.00993
1879.79402	0.00997
1878.50826	0.00995
1877.22249	0.00994
1875.93672	0.00997
1874.65095	0.01003
1873.36518	0.01008
1872.07941	0.01005
1870.79364	0.00993
1869.50787	0.00981
1868.22211	0.00981
1866.93634	0.00997
1865.65057	0.01017
1864.36480	0.01034
1863.07903	0.01043
1861.79326	0.01043
1860.50749	0.01035
1859.22172	0.01030
1857.93595	0.01037
1856.65019	0.01054
1855.36442	0.01071
1854.07865	0.01081
1852.79288	0.01082
1851.50711	0.01079
1850.22134	0.01076
1848.93557	0.01076
1847.64980	0.01078
1846.36404	0.01072
1845.07827	0.01054
1843.79250	0.01032
1842.50673	0.01012
1841.22096	0.00994
1839.93519	0.00985
1838.64942	0.00996
1837.36365	0.01029
1836.07788	0.01064
1834.79212	0.01087
1833.50635	0.01094
1832.22058	0.01091
1830.93481	0.01087
1829.64904	0.01087
1828.36327	0.01084
1827.07750	0.01063
1825.79173	0.01026
1824.50597	0.00994
1823.22020	0.00982
1821.93443	0.00982
1820.64866	0.00982
1819.36289	0.00981
1818.07712	0.00994
1816.79135	0.01029
1815.50558	0.01079
1814.21981	0.01122
1812.93405	0.01146
1811.64828	0.01153
1810.36251	0.01151
1809.07674	0.01146
1807.79097	0.01144
1806.50520	0.01149
1805.21943	0.01159
1803.93366	0.01161
1802.64790	0.01145
1801.36213	0.01122
1800.07636	0.01114
1798.79059	0.01130
1797.50482	0.01154
1796.21905	0.01169
1794.93328	0.01163
1793.64751	0.01143
1792.36174	0.01132
1791.07598	0.01143
1789.79021	0.01163
1788.50444	0.01173
1787.21867	0.01169
1785.93290	0.01160
1784.64713	0.01156
1783.36136	0.01155
1782.07559	0.01153
1780.78983	0.01152
1779.50406	0.01157
1778.21829	0.01164
1776.93252	0.01169
1775.64675	0.01170
1774.36098	0.01167
1773.07521	0.01172
1771.78944	0.01197
1770.50367	0.01228
1769.21791	0.01246
1767.93214	0.01247
1766.64637	0.01248
1765.36060	0.01248
1764.07483	0.01236
1762.78906	0.01217
1761.50329	0.01206
1760.21752	0.01209
1758.93176	0.01215
1757.64599	0.01219
1756.36022	0.01227
1755.07445	0.01242
1753.78868	0.01251
1752.50291	0.01249
1751.21714	0.01249
1749.93137	0.01260
1748.64560	0.01273
1747.35984	0.01280
1746.07407	0.01285
1744.78830	0.01291
1743.50253	0.01295
1742.21676	0.01293
1740.93099	0.01289
1739.64522	0.01299
1738.35945	0.01329
1737.07369	0.01351
1735.78792	0.01341
1734.50215	0.01322
1733.21638	0.01334
1731.93061	0.01375
1730.64484	0.01410
1729.35907	0.01424
1728.07330	0.01430
1726.78753	0.01438
1725.50177	0.01449
1724.21600	0.01465
1722.93023	0.01485
1721.64446	0.01502
1720.35869	0.01502
1719.07292	0.01488
1717.78715	0.01487
1716.50138	0.01517
1715.21561	0.01566
1713.92985	0.01611
1712.64408	0.01645
1711.35831	0.01672
1710.07254	0.01694
1708.78677	0.01714
1707.50100	0.01735
1706.21523	0.01765
1704.92946	0.01806
1703.64370	0.01841
1702.35793	0.01844
1701.07216	0.01834
1699.78639	0.01859
1698.50062	0.01913
1697.21485	0.01953
1695.92908	0.01984
1694.64331	0.02042
1693.35754	0.02113
1692.07178	0.02160
1690.78601	0.02185
1689.50024	0.02213
1688.21447	0.02242
1686.92870	0.02252
1685.64293	0.02248
1684.35716	0.02272
1683.07139	0.02336
1681.78563	0.02405
1680.49986	0.02451
1679.21409	0.02484
1677.92832	0.02513
1676.64255	0.02537
1675.35678	0.02565
1674.07101	0.02608
1672.78524	0.02650
1671.49947	0.02672
1670.21371	0.02687
1668.92794	0.02719
1667.64217	0.02772
1666.35640	0.02825
1665.07063	0.02858
1663.78486	0.02876
1662.49909	0.02898
1661.21332	0.02930
1659.92756	0.02967
1658.64179	0.03002
1657.35602	0.03032
1656.07025	0.03034
1654.78448	0.02996
1653.49871	0.02961
1652.21294	0.02989
1650.92717	0.03066
1649.64140	0.03125
1648.35564	0.03134
1647.06987	0.03126
1645.78410	0.03134
1644.49833	0.03157
1643.21256	0.03178
1641.92679	0.03191
1640.64102	0.03204
1639.35525	0.03217
1638.06949	0.03216
1636.78372	0.03201
1635.49795	0.03192
1634.21218	0.03205
1632.92641	0.03227
1631.64064	0.03237
1630.35487	0.03238
1629.06910	0.03243
1627.78333	0.03258
1626.49757	0.03277
1625.21180	0.03288
1623.92603	0.03293
1622.64026	0.03303
1621.35449	0.03325
1620.06872	0.03341
1618.78295	0.03336
1617.49718	0.03327
1616.21142	0.03342
1614.92565	0.03384
1613.63988	0.03424
1612.35411	0.03452
1611.06834	0.03477
1609.78257	0.03504
1608.49680	0.03528
1607.21103	0.03545
1605.92526	0.03560
1604.63950	0.03580
1603.35373	0.03608
1602.06796	0.03643
1600.78219	0.03677
1599.49642	0.03706
1598.21065	0.03728
1596.92488	0.03748
1595.63911	0.03767
1594.35335	0.03791
1593.06758	0.03819
1591.78181	0.03850
1590.49604	0.03882
1589.21027	0.03914
1587.92450	0.03946
1586.63873	0.03977
1585.35296	0.04006
1584.06719	0.04031
1582.78143	0.04056
1581.49566	0.04088
1580.20989	0.04125
1578.92412	0.04156
1577.63835	0.04169
1576.35258	0.04186
1575.06681	0.04234
1573.78104	0.04299
1572.49528	0.04346
1571.20951	0.04368
1569.92374	0.04385
1568.63797	0.04413
1567.35220	0.04443
1566.06643	0.04464
1564.78066	0.04483
1563.49489	0.04503
1562.20912	0.04507
1560.92336	0.04483
1559.63759	0.04458
1558.35182	0.04468
1557.06605	0.04504
1555.78028	0.04527
1554.49451	0.04529
1553.20874	0.04529
1551.92297	0.04533
1550.63721	0.04529
1549.35144	0.04520
1548.06567	0.04509
1546.77990	0.04493
1545.49413	0.04473
1544.20836	0.04452
1542.92259	0.04424
1541.63682	0.04380
1540.35105	0.04333
1539.06529	0.04312
1537.77952	0.04317
1536.49375	0.04318
1535.20798	0.04294
1533.92221	0.04265
1532.63644	0.04259
1531.35067	0.04274
1530.06490	0.04296
1528.77914	0.04316
1527.49337	0.04338
1526.20760	0.04367
1524.92183	0.04402
1523.63606	0.04432
1522.35029	0.04458
1521.06452	0.04502
1519.77875	0.04571
1518.49298	0.04645
1517.20722	0.04712
1515.92145	0.04784
1514.63568	0.04865
1513.34991	0.04951
1512.06414	0.05045
1510.77837	0.05144
1509.49260	0.05233
1508.20683	0.05305
1506.92107	0.05380
1505.63530	0.05487
1504.34953	0.05615
1503.06376	0.05726
1501.77799	0.05806
1500.49222	0.05870
1499.20645	0.05928
1497.92068	0.05982
1496.63491	0.06040
1495.34915	0.06109
1494.06338	0.06183
1492.77761	0.06245
1491.49184	0.06293
1490.20607	0.06340
1488.92030	0.06395
1487.63453	0.06462
1486.34876	0.06543
1485.06299	0.06637
1483.77723	0.06734
1482.49146	0.06827
1481.20569	0.06919
1479.91992	0.07014
1478.63415	0.07111
1477.34838	0.07206
1476.06261	0.07294
1474.77684	0.07369
1473.49108	0.07435
1472.20531	0.07505
1470.91954	0.07584
1469.63377	0.07658
1468.34800	0.07712
1467.06223	0.07746
1465.77646	0.07771
1464.49069	0.07805
1463.20492	0.07858
1461.91916	0.07920
1460.63339	0.07977
1459.34762	0.08016
1458.06185	0.08044
1456.77608	0.08084
1455.49031	0.08146
1454.20454	0.08208
1452.91877	0.08249
1451.63301	0.08278
1450.34724	0.08306
1449.06147	0.08330
1447.77570	0.08348
1446.48993	0.08362
1445.20416	0.08369
1443.91839	0.08366
1442.63262	0.08358
1441.34685	0.08348
1440.06109	0.08336
1438.77532	0.08319
1437.48955	0.08309
1436.20378	0.08326
1434.91801	0.08373
1433.63224	0.08430
1432.34647	0.08486
1431.06070	0.08546
1429.77494	0.08622
1428.48917	0.08718
1427.20340	0.08829
1425.91763	0.08946
1424.63186	0.09061
1423.34609	0.09173
1422.06032	0.09270
1420.77455	0.09348
1419.48878	0.09419
1418.20302	0.09491
1416.91725	0.09553
1415.63148	0.09588
1414.34571	0.09596
1413.05994	0.09587
1411.77417	0.09567
1410.48840	0.09533
1409.20263	0.09480
1407.91687	0.09406
1406.63110	0.09310
1405.34533	0.09197
1404.05956	0.09069
1402.77379	0.08927
1401.48802	0.08767
1400.20225	0.08592
1398.91648	0.08412
1397.63071	0.08230
1396.34495	0.08041
1395.05918	0.07846
1393.77341	0.07656
1392.48764	0.07474
1391.20187	0.07293
1389.91610	0.07109
1388.63033	0.06921
1387.34456	0.06739
1386.05880	0.06565
1384.77303	0.06395
1383.48726	0.06224
1382.20149	0.06055
1380.91572	0.05892
1379.62995	0.05734
1378.34418	0.05580
1377.05841	0.05423
1375.77264	0.05259
1374.48688	0.05089
1373.20111	0.04922
1371.91534	0.04761
1370.62957	0.04610
1369.34380	0.04468
1368.05803	0.04334
1366.77226	0.04208
1365.48649	0.04087
1364.20073	0.03969
1362.91496	0.03857
1361.62919	0.03756
1360.34342	0.03665
1359.05765	0.03582
1357.77188	0.03505
1356.48611	0.03432
1355.20034	0.03364
1353.91457	0.03302
1352.62881	0.03242
1351.34304	0.03182
1350.05727	0.03121
1348.77150	0.03063
1347.48573	0.03009
1346.19996	0.02962
1344.91419	0.02916
1343.62842	0.02869
1342.34266	0.02820
1341.05689	0.02772
1339.77112	0.02725
1338.48535	0.02684
1337.19958	0.02646
1335.91381	0.02611
1334.62804	0.02574
1333.34227	0.02534
1332.05650	0.02494
1330.77074	0.02458
1329.48497	0.02428
1328.19920	0.02403
1326.91343	0.02378
1325.62766	0.02352
1324.34189	0.02324
1323.05612	0.02300
1321.77035	0.02281
1320.48459	0.02265
1319.19882	0.02244
1317.91305	0.02218
1316.62728	0.02188
1315.34151	0.02161
1314.05574	0.02140
1312.76997	0.02125
1311.48420	0.02109
1310.19843	0.02089
1308.91267	0.02064
1307.62690	0.02039
1306.34113	0.02021
1305.05536	0.02008
1303.76959	0.02000
1302.48382	0.01991
1301.19805	0.01978
1299.91228	0.01965
1298.62652	0.01952
1297.34075	0.01939
1296.05498	0.01926
1294.76921	0.01911
1293.48344	0.01898
1292.19767	0.01889
1290.91190	0.01882
1289.62613	0.01876
1288.34036	0.01868
1287.05460	0.01861
1285.76883	0.01852
1284.48306	0.01841
1283.19729	0.01827
1281.91152	0.01818
1280.62575	0.01814
1279.33998	0.01814
1278.05421	0.01811
1276.76845	0.01799
1275.48268	0.01784
1274.19691	0.01768
1272.91114	0.01756
1271.62537	0.01750
1270.33960	0.01748
1269.05383	0.01749
1267.76806	0.01748
1266.48229	0.01742
1265.19653	0.01730
1263.91076	0.01711
1262.62499	0.01690
1261.33922	0.01673
1260.05345	0.01662
1258.76768	0.01657
1257.48191	0.01655
1256.19614	0.01656
1254.91037	0.01660
1253.62461	0.01666
1252.33884	0.01670
1251.05307	0.01670
1249.76730	0.01664
1248.48153	0.01657
1247.19576	0.01649
1245.90999	0.01642
1244.62422	0.01634
1243.33846	0.01626
1242.05269	0.01618
1240.76692	0.01612
1239.48115	0.01608
1238.19538	0.01604
1236.90961	0.01600
1235.62384	0.01594
1234.33807	0.01588
1233.05230	0.01583
1231.76654	0.01579
1230.48077	0.01575
1229.19500	0.01570
1227.90923	0.01563
1226.62346	0.01553
1225.33769	0.01541
1224.05192	0.01529
1222.76615	0.01520
1221.48039	0.01513
1220.19462	0.01507
1218.90885	0.01501
1217.62308	0.01497
1216.33731	0.01495
1215.05154	0.01496
1213.76577	0.01498
1212.48000	0.01499
1211.19423	0.01499
1209.90847	0.01499
1208.62270	0.01500
1207.33693	0.01498
1206.05116	0.01493
1204.76539	0.01487
1203.47962	0.01482
1202.19385	0.01482
1200.90808	0.01491
1199.62232	0.01511
1198.33655	0.01517
1197.05078	0.01523
1195.76501	0.01528
1194.47924	0.01528
1193.19347	0.01526
1191.90770	0.01523
1190.62193	0.01519
1189.33616	0.01512
1188.05040	0.01503
1186.76463	0.01496
1185.47886	0.01494
1184.19309	0.01497
1182.90732	0.01501
1181.62155	0.01506
1180.33578	0.01512
1179.05001	0.01522
1177.76425	0.01534
1176.47848	0.01547
1175.19271	0.01563
1173.90694	0.01584
1172.62117	0.01608
1171.33540	0.01631
1170.04963	0.01650
1168.76386	0.01663
1167.47809	0.01670
1166.19233	0.01679
1164.90656	0.01692
1163.62079	0.01712
1162.33502	0.01738
1161.04925	0.01767
1159.76348	0.01796
1158.47771	0.01823
1157.19194	0.01846
1155.90618	0.01871
1154.62041	0.01905
1153.33464	0.01948
1152.04887	0.01994
1150.76310	0.02039
1149.47733	0.02083
1148.19156	0.02127
1146.90579	0.02174
1145.62002	0.02224
1144.33426	0.02282
1143.04849	0.02350
1141.76272	0.02431
1140.47695	0.02522
1139.19118	0.02622
1137.90541	0.02730
1136.61964	0.02849
1135.33387	0.02981
1134.04811	0.03131
1132.76234	0.03297
1131.47657	0.03474
1130.19080	0.03662
1128.90503	0.03866
1127.61926	0.04092
1126.33349	0.04335
1125.04772	0.04588
1123.76195	0.04848
1122.47619	0.05120
1121.19042	0.05409
1119.90465	0.05713
1118.61888	0.06026
1117.33311	0.06339
1116.04734	0.06651
1114.76157	0.06960
1113.47580	0.07266
1112.19004	0.07566
1110.90427	0.07861
1109.61850	0.08153
1108.33273	0.08445
1107.04696	0.08736
1105.76119	0.09025
1104.47542	0.09314
1103.18965	0.09600
1101.90388	0.09878
1100.61812	0.10138
1099.33235	0.10374
1098.04658	0.10595
1096.76081	0.10814
1095.47504	0.11040
1094.18927	0.11268
1092.90350	0.11489
1091.61773	0.11700
1090.33197	0.11899
1089.04620	0.12090
1087.76043	0.12272
1086.47466	0.12446
1085.18889	0.12613
1083.90312	0.12783
1082.61735	0.12970
1081.33158	0.13181
1080.04581	0.13413
1078.76005	0.13653
1077.47428	0.13894
1076.18851	0.14138
1074.90274	0.14388
1073.61697	0.14645
1072.33120	0.14914
1071.04543	0.15198
1069.75966	0.15499
1068.47390	0.15809
1067.18813	0.16118
1065.90236	0.16420
1064.61659	0.16717
1063.33082	0.17017
1062.04505	0.17322
1060.75928	0.17630
1059.47351	0.17941
1058.18774	0.18252
1056.90198	0.18558
1055.61621	0.18855
1054.33044	0.19141
1053.04467	0.19422
1051.75890	0.19704
1050.47313	0.19995
1049.18736	0.20291
1047.90159	0.20587
1046.61583	0.20876
1045.33006	0.21165
1044.04429	0.21462
1042.75852	0.21771
1041.47275	0.22088
1040.18698	0.22404
1038.90121	0.22711
1037.61544	0.23003
1036.32967	0.23285
1035.04391	0.23562
1033.75814	0.23835
1032.47237	0.24094
1031.18660	0.24331
1029.90083	0.24539
1028.61506	0.24715
1027.32929	0.24860
1026.04352	0.24972
1024.75775	0.25053
1023.47199	0.25104
1022.18622	0.25122
1020.90045	0.25101
1019.61468	0.25039
1018.32891	0.24932
1017.04314	0.24777
1015.75737	0.24574
1014.47160	0.24322
1013.18584	0.24024
1011.90007	0.23687
1010.61430	0.23315
1009.32853	0.22908
1008.04276	0.22465
1006.75699	0.21986
1005.47122	0.21475
1004.18545	0.20936
1002.89968	0.20371
1001.61392	0.19786
1000.32815	0.19187
999.04238	0.18580
997.75661	0.17966
996.47084	0.17347
995.18507	0.16730
993.89930	0.16118
992.61353	0.15519
991.32777	0.14933
990.04200	0.14363
988.75623	0.13809
987.47046	0.13271
986.18469	0.12752
984.89892	0.12258
983.61315	0.11793
982.32738	0.11354
981.04161	0.10936
979.75585	0.10538
978.47008	0.10162
977.18431	0.09815
975.89854	0.09502
974.61277	0.09232
973.32700	0.09008
972.04123	0.08829
970.75546	0.08695
969.46970	0.08607
968.18393	0.08568
966.89816	0.08576
965.61239	0.08621
964.32662	0.08688
963.04085	0.08760
961.75508	0.08811
960.46931	0.08817
959.18354	0.08760
957.89778	0.08641
956.61201	0.08476
955.32624	0.08287
954.04047	0.08088
952.75470	0.07884
951.46893	0.07677
950.18316	0.07470
948.89739	0.07268
947.61163	0.07075
946.32586	0.06887
945.04009	0.06699
943.75432	0.06509
942.46855	0.06322
941.18278	0.06146
939.89701	0.05985
938.61124	0.05836
937.32547	0.05698
936.03971	0.05571
934.75394	0.05455
933.46817	0.05343
932.18240	0.05229
930.89663	0.05113
929.61086	0.05003
928.32509	0.04907
927.03932	0.04825
925.75356	0.04753
924.46779	0.04681
923.18202	0.04605
921.89625	0.04530
920.61048	0.04461
919.32471	0.04401
918.03894	0.04346
916.75317	0.04296
915.46740	0.04247
914.18164	0.04198
912.89587	0.04152
911.61010	0.04110
910.32433	0.04074
909.03856	0.04041
907.75279	0.04010
906.46702	0.03979
905.18125	0.03945
903.89549	0.03902
902.60972	0.03851
901.32395	0.03801
900.03818	0.03757
898.75241	0.03718
897.46664	0.03682
896.18087	0.03652
894.89510	0.03636
893.60933	0.03637
892.32357	0.03651
891.03780	0.03674
889.75203	0.03701
888.46626	0.03738
887.18049	0.03801
885.89472	0.03915
884.60895	0.04096
883.32318	0.04341
882.03742	0.04624
880.75165	0.04904
879.46588	0.05144
878.18011	0.05327
876.89434	0.05469
875.60857	0.05594
874.32280	0.05706
873.03703	0.05784
871.75126	0.05801
870.46550	0.05746
869.17973	0.05625
867.89396	0.05452
866.60819	0.05239
865.32242	0.05009
864.03665	0.04784
862.75088	0.04581
861.46511	0.04399
860.17935	0.04234
858.89358	0.04085
857.60781	0.03957
856.32204	0.03855
855.03627	0.03777
853.75050	0.03716
852.46473	0.03666
851.17896	0.03623
849.89319	0.03583
848.60743	0.03541
847.32166	0.03499
846.03589	0.03458
844.75012	0.03416
843.46435	0.03373
842.17858	0.03334
840.89281	0.03304
839.60704	0.03285
838.32128	0.03270
837.03551	0.03253
835.74974	0.03232
834.46397	0.03207
833.17820	0.03179
831.89243	0.03155
830.60666	0.03139
829.32089	0.03131
828.03512	0.03125
826.74936	0.03118
825.46359	0.03113
824.17782	0.03107
822.89205	0.03099
821.60628	0.03089
820.32051	0.03077
819.03474	0.03063
817.74897	0.03048
816.46321	0.03033
815.17744	0.03019
813.89167	0.03011
812.60590	0.03008
811.32013	0.03009
810.03436	0.03012
808.74859	0.03016
807.46282	0.03020
806.17705	0.03017
804.89129	0.03003
803.60552	0.02984
802.31975	0.02971
801.03398	0.02972
799.74821	0.02988
798.46244	0.03010
797.17667	0.03027
795.89090	0.03031
794.60513	0.03022
793.31937	0.03003
792.03360	0.02986
790.74783	0.02975
789.46206	0.02970
788.17629	0.02968
786.89052	0.02970
785.60475	0.02976
784.31898	0.02981
783.03322	0.02976
781.74745	0.02958
780.46168	0.02935
779.17591	0.02918
777.89014	0.02906
776.60437	0.02898
775.31860	0.02890
774.03283	0.02884
772.74706	0.02885
771.46130	0.02896
770.17553	0.02911
768.88976	0.02922
767.60399	0.02923
766.31822	0.02920
765.03245	0.02919
763.74668	0.02924
762.46091	0.02933
761.17515	0.02941
759.88938	0.02949
758.60361	0.02956
757.31784	0.02961
756.03207	0.02961
754.74630	0.02957
753.46053	0.02952
752.17476	0.02947
750.88899	0.02940
749.60323	0.02931
748.31746	0.02922
747.03169	0.02917
745.74592	0.02916
744.46015	0.02919
743.17438	0.02925
741.88861	0.02928
740.60284	0.02922
739.31708	0.02907
738.03131	0.02891
736.74554	0.02885
735.45977	0.02891
734.17400	0.02902
732.88823	0.02913
731.60246	0.02923
730.31669	0.02931
729.03092	0.02936
727.74516	0.02939
726.45939	0.02940
725.17362	0.02945
723.88785	0.02967
722.60208	0.02940
721.31631	0.02885
720.03054	0.02837
718.74477	0.02809
717.45901	0.02803
716.17324	0.02813
714.88747	0.02832
713.60170	0.02857
712.31593	0.02882
711.03016	0.02900
709.74439	0.02910
708.45862	0.02912
707.17285	0.02910
705.88709	0.02907
704.60132	0.02903
703.31555	0.02897
702.02978	0.02889
700.74401	0.02880
699.45824	0.02869
698.17247	0.02858
696.88670	0.02847
695.60094	0.02839
694.31517	0.02837
693.02940	0.02839
691.74363	0.02841
690.45786	0.02840
689.17209	0.02836
687.88632	0.02835
686.60055	0.02843
685.31478	0.02858
684.02902	0.02871
682.74325	0.02871
681.45748	0.02861
680.17171	0.02849
678.88594	0.02843
677.60017	0.02846
676.31440	0.02855
675.02863	0.02867
673.74287	0.02881
672.45710	0.02893
671.17133	0.02897
669.88556	0.02894
668.59979	0.02904
667.31402	0.02907
666.02825	0.02892
664.74248	0.02895
663.45671	0.02893
662.17095	0.02883
660.88518	0.02875
659.59941	0.02865
658.31364	0.02849
657.02787	0.02824
655.74210	0.02801
654.45633	0.02788
653.17056	0.02788
651.88480	0.02793
650.59903	0.02796
649.31326	0.02793
648.02749	0.02785
646.74172	0.02775
645.45595	0.02769
644.17018	0.02769
642.88441	0.02772
641.59864	0.02778
640.31288	0.02791
639.02711	0.02817
637.74134	0.02856
636.45557	0.02903
635.16980	0.02954
633.88403	0.03007
632.59826	0.03066
631.31249	0.03114
630.02673	0.03099
628.74096	0.03047
627.45519	0.03161
626.16942	0.03090
624.88365	0.02904
623.59788	0.02774
622.31211	0.02804
621.02634	0.03054
619.74057	0.03511
618.45481	0.04093
617.16904	0.04696
615.88327	0.05219
614.59750	0.05593
613.31173	0.05828
612.02596	0.06040
610.74019	0.06393
609.45442	0.06950
608.16866	0.07593
606.88289	0.08152
605.59712	0.08555
604.31135	0.08814
603.02558	0.08949
601.73981	0.08976
600.45404	0.08916
599.16827	0.08788
597.88250	0.08603
596.59674	0.08373
595.31097	0.08129
594.02520	0.07905
592.73943	0.07726
591.45366	0.07600
590.16789	0.07529
588.88212	0.07518
587.59635	0.07569
586.31059	0.07676
585.02482	0.07823
583.73905	0.08006
582.45328	0.08222
581.16751	0.08471
579.88174	0.08745
578.59597	0.09028
577.31020	0.09302
576.02443	0.09549
574.73867	0.09764
573.45290	0.09958
572.16713	0.10156
570.88136	0.10383
569.59559	0.10649
568.30982	0.10946
567.02405	0.11254
565.73828	0.11549
564.45251	0.11801
563.16675	0.11972
561.88098	0.12019
560.59521	0.11911
559.30944	0.11641
558.02367	0.11225
556.73790	0.10711
555.45213	0.10162
554.16636	0.09624
552.88060	0.09112
551.59483	0.08620
550.30906	0.08147
549.02329	0.07706
547.73752	0.07312
546.45175	0.06971
545.16598	0.06672
543.88021	0.06399
542.59444	0.06144
541.30868	0.05909
540.02291	0.05702
538.73714	0.05523
537.45137	0.05360
536.16560	0.05206
534.87983	0.05057
533.59406	0.04918
532.30829	0.04789
531.02253	0.04669
529.73676	0.04555
528.45099	0.04447
527.16522	0.04342
525.87945	0.04232
524.59368	0.04116
523.30791	0.04002
522.02214	0.03902
520.73637	0.03820
519.45061	0.03754
518.16484	0.03698
516.87907	0.03646
515.59330	0.03593
514.30753	0.03533
513.02176	0.03467
511.73599	0.03402
510.45022	0.03346
509.16446	0.03299
507.87869	0.03259
506.59292	0.03221
505.30715	0.03181
504.02138	0.03142
502.73561	0.03106
501.44984	0.03074
500.16407	0.03042
498.87830	0.03006
497.59254	0.02974
496.30677	0.02953
495.02100	0.02944
493.73523	0.02935
492.44946	0.02920
491.16369	0.02900
489.87792	0.02884
488.59215	0.02877
487.30639	0.02880
486.02062	0.02889
484.73485	0.02903
483.44908	0.02916
482.16331	0.02926
480.87754	0.02937
479.59177	0.02954
478.30600	0.02980
477.02023	0.03008
475.73447	0.03033
474.44870	0.03054
473.16293	0.03075
471.87716	0.03099
470.59139	0.03117
469.30562	0.03114
468.01985	0.03087
466.73408	0.03045
465.44832	0.03000
464.16255	0.02960
462.87678	0.02924
461.59101	0.02893
460.30524	0.02869
459.01947	0.02850
457.73370	0.02832
456.44793	0.02807
455.16216	0.02772
453.87640	0.02734
452.59063	0.02701
451.30486	0.02674
450.01909	0.02652
448.73332	0.02638
447.44755	0.02632
446.16178	0.02629
444.87601	0.02622
443.59025	0.02609
442.30448	0.02592
441.01871	0.02578
439.73294	0.02565
438.44717	0.02554
437.16140	0.02546
435.87563	0.02543
434.58986	0.02542
433.30409	0.02539
432.01833	0.02533
430.73256	0.02525
429.44679	0.02518
428.16102	0.02513
426.87525	0.02509
425.58948	0.02504
424.30371	0.02498
423.01794	0.02491
421.73218	0.02482
420.44641	0.02470
419.16064	0.02461
417.87487	0.02456
416.58910	0.02454
415.30333	0.02453
414.01756	0.02453
412.73179	0.02453
411.44602	0.02452
410.16026	0.02451
408.87449	0.02454
407.58872	0.02462
406.30295	0.02473
405.01718	0.02483
403.73141	0.02490
402.44564	0.02499
401.15987	0.02509
399.87411	0.02520
