3997.45528	0.06704
3996.16951	0.06625
3994.88374	0.06548
3993.59798	0.06500
3992.31221	0.06505
3991.02644	0.06555
3989.74067	0.06610
3988.45490	0.06640
3987.16913	0.06650
3985.88336	0.06672
3984.59759	0.06716
3983.31183	0.06759
3982.02606	0.06774
3980.74029	0.06770
3979.45452	0.06792
3978.16875	0.06872
3976.88298	0.06990
3975.59721	0.07073
3974.31144	0.07054
3973.02567	0.06921
3971.73991	0.06740
3970.45414	0.06595
3969.16837	0.06528
3967.88260	0.06529
3966.59683	0.06571
3965.31106	0.06634
3964.02529	0.06694
3962.73952	0.06727
3961.45376	0.06721
3960.16799	0.06696
3958.88222	0.06672
3957.59645	0.06658
3956.31068	0.06661
3955.02491	0.06697
3953.73914	0.06767
3952.45337	0.06833
3951.16760	0.06845
3949.88184	0.06795
3948.59607	0.06715
3947.31030	0.06645
3946.02453	0.06601
3944.73876	0.06592
3943.45299	0.06628
3942.16722	0.06707
3940.88145	0.06802
3939.59569	0.06861
3938.30992	0.06830
3937.02415	0.06689
3935.73838	0.06479
3934.45261	0.06301
3933.16684	0.06260
3931.88107	0.06392
3930.59530	0.06616
3929.30953	0.06783
3928.02377	0.06793
3926.73800	0.06672
3925.45223	0.06541
3924.16646	0.06503
3922.88069	0.06573
3921.59492	0.06695
3920.30915	0.06814
3919.02338	0.06907
3917.73762	0.06971
3916.45185	0.06995
3915.16608	0.06962
3913.88031	0.06869
3912.59454	0.06743
3911.30877	0.06627
3910.02300	0.06561
3908.73723	0.06547
3907.45146	0.06547
3906.16570	0.06511
3904.87993	0.06428
3903.59416	0.06348
3902.30839	0.06337
3901.02262	0.06402
3899.73685	0.06476
3898.45108	0.06486
3897.16531	0.06430
3895.87955	0.06348
3894.59378	0.06266
3893.30801	0.06187
3892.02224	0.06121
3890.73647	0.06094
3889.45070	0.06123
3888.16493	0.06185
3886.87916	0.06241
3885.59339	0.06267
3884.30763	0.06266
3883.02186	0.06266
3881.73609	0.06301
3880.45032	0.06383
3879.16455	0.06489
3877.87878	0.06579
3876.59301	0.06631
3875.30724	0.06658
3874.02148	0.06688
3872.73571	0.06725
3871.44994	0.06736
3870.16417	0.06685
3868.87840	0.06570
3867.59263	0.06422
3866.30686	0.06274
3865.02109	0.06146
3863.73532	0.06054
3862.44956	0.06021
3861.16379	0.06051
3859.87802	0.06119
3858.59225	0.06191
3857.30648	0.06252
3856.02071	0.06307
3854.73494	0.06361
3853.44917	0.06406
3852.16341	0.06430
3850.87764	0.06427
3849.59187	0.06407
3848.30610	0.06392
3847.02033	0.06393
3845.73456	0.06394
3844.44879	0.06364
3843.16302	0.06291
3841.87725	0.06197
3840.59149	0.06113
3839.30572	0.06055
3838.01995	0.06029
3836.73418	0.06037
3835.44841	0.06079
3834.16264	0.06131
3832.87687	0.06156
3831.59110	0.06140
3830.30534	0.06110
3829.01957	0.06119
3827.73380	0.06190
3826.44803	0.06285
3825.16226	0.06343
3823.87649	0.06329
3822.59072	0.06255
3821.30495	0.06154
3820.01918	0.06064
3818.73342	0.06017
3817.44765	0.06032
3816.16188	0.06101
3814.87611	0.06189
3813.59034	0.06249
3812.30457	0.06244
3811.01880	0.06172
3809.73303	0.06069
3808.44726	0.05997
3807.16150	0.05997
3805.87573	0.06053
3804.58996	0.06115
3803.30419	0.06139
3802.01842	0.06118
3800.73265	0.06076
3799.44688	0.06035
3798.16111	0.06008
3796.87535	0.06005
3795.58958	0.06025
3794.30381	0.06057
3793.01804	0.06082
3791.73227	0.06095
3790.44650	0.06109
3789.16073	0.06137
3787.87496	0.06177
3786.58919	0.06214
3785.30343	0.06236
3784.01766	0.06234
3782.73189	0.06208
3781.44612	0.06178
3780.16035	0.06171
3778.87458	0.06198
3777.58881	0.06230
3776.30304	0.06219
3775.01728	0.06127
3773.73151	0.05964
3772.44574	0.05786
3771.15997	0.05676
3769.87420	0.05694
3768.58843	0.05829
3767.30266	0.06002
3766.01689	0.06111
3764.73112	0.06103
3763.44536	0.06000
3762.15959	0.05870
3760.87382	0.05775
3759.58805	0.05731
3758.30228	0.05713
3757.01651	0.05705
3755.73074	0.05713
3754.44497	0.05741
3753.15921	0.05766
3751.87344	0.05768
3750.58767	0.05757
3749.30190	0.05749
3748.01613	0.05742
3746.73036	0.05730
3745.44459	0.05719
3744.15882	0.05716
3742.87305	0.05709
3741.58729	0.05679
3740.30152	0.05629
3739.01575	0.05583
3737.72998	0.05571
3736.44421	0.05608
3735.15844	0.05677
3733.87267	0.05738
3732.58690	0.05748
3731.30114	0.05709
3730.01537	0.05670
3728.72960	0.05667
3727.44383	0.05684
3726.15806	0.05674
3724.87229	0.05618
3723.58652	0.05554
3722.30075	0.05520
3721.01498	0.05510
3719.72922	0.05494
3718.44345	0.05457
3717.15768	0.05413
3715.87191	0.05385
3714.58614	0.05397
3713.30037	0.05455
3712.01460	0.05535
3710.72883	0.05602
3709.44307	0.05654
3708.15730	0.05702
3706.87153	0.05735
3705.58576	0.05710
3704.29999	0.05616
3703.01422	0.05491
3701.72845	0.05383
3700.44268	0.05305
3699.15691	0.05255
3697.87115	0.05234
3696.58538	0.05243
3695.29961	0.05293
3694.01384	0.05372
3692.72807	0.05432
3691.44230	0.05459
3690.15653	0.05484
3688.87076	0.05511
3687.58500	0.05528
3686.29923	0.05526
3685.01346	0.05490
3683.72769	0.05423
3682.44192	0.05352
3681.15615	0.05298
3679.87038	0.05293
3678.58461	0.05369
3677.29884	0.05520
3676.01308	0.05712
3674.72731	0.05894
3673.44154	0.06033
3672.15577	0.06135
3670.87000	0.06198
3669.58423	0.06197
3668.29846	0.06114
3667.01269	0.05983
3665.72693	0.05876
3664.44116	0.05835
3663.15539	0.05853
3661.86962	0.05891
3660.58385	0.05913
3659.29808	0.05903
3658.01231	0.05865
3656.72654	0.05828
3655.44077	0.05819
3654.15501	0.05838
3652.86924	0.05855
3651.58347	0.05854
3650.29770	0.05854
3649.01193	0.05880
3647.72616	0.05923
3646.44039	0.05952
3645.15462	0.05971
3643.86886	0.06021
3642.58309	0.06124
3641.29732	0.06231
3640.01155	0.06263
3638.72578	0.06191
3637.44001	0.06061
3636.15424	0.05954
3634.86847	0.05927
3633.58270	0.05982
3632.29694	0.06078
3631.01117	0.06180
3629.72540	0.06276
3628.43963	0.06365
3627.15386	0.06424
3625.86809	0.06428
3624.58232	0.06377
3623.29655	0.06326
3622.01079	0.06328
3620.72502	0.06405
3619.43925	0.06535
3618.15348	0.06677
3616.86771	0.06787
3615.58194	0.06821
3614.29617	0.06774
3613.01040	0.06695
3611.72463	0.06655
3610.43887	0.06688
3609.15310	0.06763
3607.86733	0.06820
3606.58156	0.06827
3605.29579	0.06800
3604.01002	0.06785
3602.72425	0.06809
3601.43848	0.06853
3600.15272	0.06877
3598.86695	0.06870
3597.58118	0.06845
3596.29541	0.06820
3595.00964	0.06827
3593.72387	0.06901
3592.43810	0.07026
3591.15233	0.07144
3589.86656	0.07212
3588.58080	0.07220
3587.29503	0.07182
3586.00926	0.07131
3584.72349	0.07097
3583.43772	0.07085
3582.15195	0.07082
3580.86618	0.07081
3579.58041	0.07083
3578.29464	0.07111
3577.00888	0.07186
3575.72311	0.07299
3574.43734	0.07428
3573.15157	0.07555
3571.86580	0.07669
3570.58003	0.07753
3569.29426	0.07775
3568.00849	0.07731
3566.72273	0.07667
3565.43696	0.07648
3564.15119	0.07690
3562.86542	0.07757
3561.57965	0.07812
3560.29388	0.07853
3559.00811	0.07884
3557.72234	0.07905
3556.43657	0.07916
3555.15081	0.07939
3553.86504	0.07991
3552.57927	0.08054
3551.29350	0.08093
3550.00773	0.08098
3548.72196	0.08096
3547.43619	0.08113
3546.15042	0.08146
3544.86466	0.08176
3543.57889	0.08202
3542.29312	0.08231
3541.00735	0.08258
3539.72158	0.08267
3538.43581	0.08255
3537.15004	0.08243
3535.86427	0.08253
3534.57850	0.08286
3533.29274	0.08321
3532.00697	0.08335
3530.72120	0.08318
3529.43543	0.08278
3528.14966	0.08244
3526.86389	0.08252
3525.57812	0.08308
3524.29235	0.08387
3523.00659	0.08457
3521.72082	0.08514
3520.43505	0.08573
3519.14928	0.08647
3517.86351	0.08727
3516.57774	0.08791
3515.29197	0.08809
3514.00620	0.08771
3512.72043	0.08702
3511.43467	0.08645
3510.14890	0.08622
3508.86313	0.08619
3507.57736	0.08616
3506.29159	0.08611
3505.00582	0.08623
3503.72005	0.08664
3502.43428	0.08727
3501.14852	0.08793
3499.86275	0.08847
3498.57698	0.08887
3497.29121	0.08919
3496.00544	0.08941
3494.71967	0.08953
3493.43390	0.08958
3492.14813	0.08974
3490.86236	0.09021
3489.57660	0.09108
3488.29083	0.09221
3487.00506	0.09322
3485.71929	0.09376
3484.43352	0.09365
3483.14775	0.09300
3481.86198	0.09219
3480.57621	0.09174
3479.29045	0.09205
3478.00468	0.09313
3476.71891	0.09456
3475.43314	0.09573
3474.14737	0.09623
3472.86160	0.09605
3471.57583	0.09546
3470.29006	0.09477
3469.00429	0.09432
3467.71853	0.09444
3466.43276	0.09528
3465.14699	0.09654
3463.86122	0.09756
3462.57545	0.09788
3461.28968	0.09751
3460.00391	0.09690
3458.71814	0.09648
3457.43238	0.09648
3456.14661	0.09690
3454.86084	0.09760
3453.57507	0.09835
3452.28930	0.09883
3451.00353	0.09888
3449.71776	0.09861
3448.43199	0.09829
3447.14622	0.09810
3445.86046	0.09804
3444.57469	0.09811
3443.28892	0.09834
3442.00315	0.09876
3440.71738	0.09923
3439.43161	0.09954
3438.14584	0.09963
3436.86007	0.09965
3435.57431	0.09981
3434.28854	0.10020
3433.00277	0.10071
3431.71700	0.10115
3430.43123	0.10141
3429.14546	0.10146
3427.85969	0.10136
3426.57392	0.10117
3425.28815	0.10093
3424.00239	0.10073
3422.71662	0.10075
3421.43085	0.10112
3420.14508	0.10181
3418.85931	0.10251
3417.57354	0.10284
3416.28777	0.10262
3415.00200	0.10206
3413.71624	0.10161
3412.43047	0.10163
3411.14470	0.10215
3409.85893	0.10294
3408.57316	0.10362
3407.28739	0.10395
3406.00162	0.10392
3404.71585	0.10375
3403.43008	0.10360
3402.14432	0.10344
3400.85855	0.10316
3399.57278	0.10279
3398.28701	0.10261
3397.00124	0.10279
3395.71547	0.10324
3394.42970	0.10362
3393.14393	0.10371
3391.85817	0.10367
3390.57240	0.10385
3389.28663	0.10436
3388.00086	0.10495
3386.71509	0.10534
3385.42932	0.10561
3384.14355	0.10602
3382.85778	0.10659
3381.57201	0.10690
3380.28625	0.10650
3379.00048	0.10544
3377.71471	0.10434
3376.42894	0.10384
3375.14317	0.10407
3373.85740	0.10467
3372.57163	0.10519
3371.28586	0.10552
3370.00010	0.10572
3368.71433	0.10596
3367.42856	0.10637
3366.14279	0.10700
3364.85702	0.10773
3363.57125	0.10820
3362.28548	0.10812
3360.99971	0.10759
3359.71394	0.10699
3358.42818	0.10663
3357.14241	0.10656
3355.85664	0.10669
3354.57087	0.10694
3353.28510	0.10728
3351.99933	0.10762
3350.71356	0.10779
3349.42779	0.10766
3348.14202	0.10717
3346.85626	0.10643
3345.57049	0.10559
3344.28472	0.10487
3342.99895	0.10444
3341.71318	0.10447
3340.42741	0.10493
3339.14164	0.10561
3337.85587	0.10625
3336.57011	0.10675
3335.28434	0.10710
3333.99857	0.10734
3332.71280	0.10743
3331.42703	0.10730
3330.14126	0.10691
3328.85549	0.10641
3327.56972	0.10611
3326.28395	0.10619
3324.99819	0.10655
3323.71242	0.10687
3322.42665	0.10688
3321.14088	0.10658
3319.85511	0.10618
3318.56934	0.10598
3317.28357	0.10610
3315.99780	0.10641
3314.71204	0.10677
3313.42627	0.10708
3312.14050	0.10717
3310.85473	0.10684
3309.56896	0.10610
3308.28319	0.10533
3306.99742	0.10494
3305.71165	0.10508
3304.42588	0.10553
3303.14012	0.10595
3301.85435	0.10600
3300.56858	0.10560
3299.28281	0.10499
3297.99704	0.10466
3296.71127	0.10493
3295.42550	0.10561
3294.13973	0.10628
3292.85397	0.10666
3291.56820	0.10676
3290.28243	0.10673
3288.99666	0.10671
3287.71089	0.10669
3286.42512	0.10661
3285.13935	0.10635
3283.85358	0.10596
3282.56781	0.10556
3281.28205	0.10524
3279.99628	0.10490
3278.71051	0.10444
3277.42474	0.10393
3276.13897	0.10356
3274.85320	0.10350
3273.56743	0.10381
3272.28166	0.10448
3270.99590	0.10540
3269.71013	0.10628
3268.42436	0.10671
3267.13859	0.10653
3265.85282	0.10590
3264.56705	0.10516
3263.28128	0.10451
3261.99551	0.10404
3260.70974	0.10376
3259.42398	0.10363
3258.13821	0.10363
3256.85244	0.10381
3255.56667	0.10416
3254.28090	0.10450
3252.99513	0.10450
3251.70936	0.10409
3250.42359	0.10354
3249.13783	0.10329
3247.85206	0.10344
3246.56629	0.10374
3245.28052	0.10387
3243.99475	0.10372
3242.70898	0.10345
3241.42321	0.10333
3240.13744	0.10339
3238.85167	0.10338
3237.56591	0.10308
3236.28014	0.10254
3234.99437	0.10198
3233.70860	0.10157
3232.42283	0.10132
3231.13706	0.10126
3229.85129	0.10143
3228.56552	0.10176
3227.27976	0.10208
3225.99399	0.10231
3224.70822	0.10242
3223.42245	0.10245
3222.13668	0.10235
3220.85091	0.10211
3219.56514	0.10173
3218.27937	0.10127
3216.99360	0.10089
3215.70784	0.10084
3214.42207	0.10122
3213.13630	0.10179
3211.85053	0.10220
3210.56476	0.10226
3209.27899	0.10202
3207.99322	0.10165
3206.70745	0.10125
3205.42169	0.10088
3204.13592	0.10050
3202.85015	0.10008
3201.56438	0.09965
3200.27861	0.09925
3198.99284	0.09889
3197.70707	0.09857
3196.42130	0.09834
3195.13553	0.09836
3193.84977	0.09867
3192.56400	0.09916
3191.27823	0.09962
3189.99246	0.09988
3188.70669	0.09984
3187.42092	0.09954
3186.13515	0.09919
3184.84938	0.09908
3183.56362	0.09926
3182.27785	0.09950
3180.99208	0.09952
3179.70631	0.09927
3178.42054	0.09898
3177.13477	0.09888
3175.84900	0.09901
3174.56323	0.09925
3173.27746	0.09944
3171.99170	0.09945
3170.70593	0.09923
3169.42016	0.09885
3168.13439	0.09849
3166.84862	0.09826
3165.56285	0.09813
3164.27708	0.09800
3162.99131	0.09786
3161.70555	0.09781
3160.41978	0.09794
3159.13401	0.09821
3157.84824	0.09852
3156.56247	0.09875
3155.27670	0.09886
3153.99093	0.09879
3152.70516	0.09850
3151.41939	0.09804
3150.13363	0.09758
3148.84786	0.09725
3147.56209	0.09699
3146.27632	0.09666
3144.99055	0.09628
3143.70478	0.09593
3142.41901	0.09555
3141.13324	0.09500
3139.84748	0.09426
3138.56171	0.09359
3137.27594	0.09331
3135.99017	0.09345
3134.70440	0.09379
3133.41863	0.09406
3132.13286	0.09423
3130.84709	0.09438
3129.56132	0.09451
3128.27556	0.09447
3126.98979	0.09424
3125.70402	0.09400
3124.41825	0.09387
3123.13248	0.09379
3121.84671	0.09360
3120.56094	0.09319
3119.27517	0.09264
3117.98940	0.09211
3116.70364	0.09175
3115.41787	0.09160
3114.13210	0.09166
3112.84633	0.09189
3111.56056	0.09222
3110.27479	0.09255
3108.98902	0.09274
3107.70325	0.09271
3106.41749	0.09248
3105.13172	0.09219
3103.84595	0.09202
3102.56018	0.09199
3101.27441	0.09190
3099.98864	0.09150
3098.70287	0.09087
3097.41710	0.09030
3096.13133	0.09001
3094.84557	0.08991
3093.55980	0.08985
3092.27403	0.08982
3090.98826	0.08991
3089.70249	0.09000
3088.41672	0.08986
3087.13095	0.08944
3085.84518	0.08895
3084.55942	0.08864
3083.27365	0.08856
3081.98788	0.08857
3080.70211	0.08858
3079.41634	0.08854
3078.13057	0.08850
3076.84480	0.08853
3075.55903	0.08869
3074.27326	0.08899
3072.98750	0.08924
3071.70173	0.08923
3070.41596	0.08895
3069.13019	0.08862
3067.84442	0.08846
3066.55865	0.08846
3065.27288	0.08848
3063.98711	0.08844
3062.70135	0.08832
3061.41558	0.08815
3060.12981	0.08799
3058.84404	0.08785
3057.55827	0.08770
3056.27250	0.08747
3054.98673	0.08716
3053.70096	0.08689
3052.41519	0.08676
3051.12943	0.08682
3049.84366	0.08700
3048.55789	0.08716
3047.27212	0.08719
3045.98635	0.08709
3044.70058	0.08690
3043.41481	0.08675
3042.12904	0.08667
3040.84328	0.08666
3039.55751	0.08673
3038.27174	0.08687
3036.98597	0.08700
3035.70020	0.08695
3034.41443	0.08659
3033.12866	0.08594
3031.84289	0.08521
3030.55712	0.08469
3029.27136	0.08455
3027.98559	0.08476
3026.69982	0.08505
3025.41405	0.08509
3024.12828	0.08483
3022.84251	0.08448
3021.55674	0.08428
3020.27097	0.08423
3018.98521	0.08409
3017.69944	0.08369
3016.41367	0.08312
3015.12790	0.08263
3013.84213	0.08237
3012.55636	0.08234
3011.27059	0.08243
3009.98482	0.08255
3008.69905	0.08263
3007.41329	0.08264
3006.12752	0.08252
3004.84175	0.08223
3003.55598	0.08174
3002.27021	0.08111
3000.98444	0.08048
2999.69867	0.07998
2998.41290	0.07974
2997.12714	0.07972
2995.84137	0.07994
2994.55560	0.08035
2993.26983	0.08074
2991.98406	0.08086
2990.69829	0.08074
2989.41252	0.08057
2988.12675	0.08050
2986.84098	0.08047
2985.55522	0.08049
2984.26945	0.08078
2982.98368	0.08154
2981.69791	0.08274
2980.41214	0.08410
2979.12637	0.08532
2977.84060	0.08625
2976.55483	0.08691
2975.26907	0.08744
2973.98330	0.08809
2972.69753	0.08911
2971.41176	0.09071
2970.12599	0.09278
2968.84022	0.09497
2967.55445	0.09693
2966.26868	0.09871
2964.98291	0.10066
2963.69715	0.10298
2962.41138	0.10544
2961.12561	0.10766
2959.83984	0.10958
2958.55407	0.11133
2957.26830	0.11297
2955.98253	0.11434
2954.69676	0.11527
2953.41100	0.11576
2952.12523	0.11602
2950.83946	0.11624
2949.55369	0.11647
2948.26792	0.11662
2946.98215	0.11665
2945.69638	0.11656
2944.41061	0.11641
2943.12484	0.11629
2941.83908	0.11632
2940.55331	0.11668
2939.26754	0.11750
2937.98177	0.11881
2936.69600	0.12049
2935.41023	0.12232
2934.12446	0.12408
2932.83869	0.12567
2931.55293	0.12715
2930.26716	0.12868
2928.98139	0.13037
2927.69562	0.13218
2926.40985	0.13394
2925.12408	0.13537
2923.83831	0.13616
2922.55254	0.13615
2921.26677	0.13546
2919.98101	0.13448
2918.69524	0.13355
2917.40947	0.13273
2916.12370	0.13189
2914.83793	0.13090
2913.55216	0.12979
2912.26639	0.12865
2910.98062	0.12748
2909.69486	0.12609
2908.40909	0.12438
2907.12332	0.12243
2905.83755	0.12049
2904.55178	0.11885
2903.26601	0.11761
2901.98024	0.11672
2900.69447	0.11601
2899.40870	0.11528
2898.12294	0.11440
2896.83717	0.11329
2895.55140	0.11203
2894.26563	0.11075
2892.97986	0.10960
2891.69409	0.10857
2890.40832	0.10753
2889.12255	0.10641
2887.83678	0.10523
2886.55102	0.10413
2885.26525	0.10319
2883.97948	0.10235
2882.69371	0.10155
2881.40794	0.10088
2880.12217	0.10057
2878.83640	0.10074
2877.55063	0.10134
2876.26487	0.10224
2874.97910	0.10332
2873.69333	0.10444
2872.40756	0.10539
2871.12179	0.10609
2869.83602	0.10656
2868.55025	0.10690
2867.26448	0.10716
2865.97871	0.10737
2864.69295	0.10762
2863.40718	0.10792
2862.12141	0.10817
2860.83564	0.10821
2859.54987	0.10804
2858.26410	0.10777
2856.97833	0.10751
2855.69256	0.10733
2854.40680	0.10721
2853.12103	0.10709
2851.83526	0.10685
2850.54949	0.10636
2849.26372	0.10551
2847.97795	0.10432
2846.69218	0.10289
2845.40641	0.10132
2844.12064	0.09972
2842.83488	0.09816
2841.54911	0.09663
2840.26334	0.09505
2838.97757	0.09336
2837.69180	0.09168
2836.40603	0.09018
2835.12026	0.08891
2833.83449	0.08774
2832.54873	0.08650
2831.26296	0.08520
2829.97719	0.08397
2828.69142	0.08299
2827.40565	0.08225
2826.11988	0.08163
2824.83411	0.08092
2823.54834	0.07995
2822.26257	0.07879
2820.97681	0.07774
2819.69104	0.07707
2818.40527	0.07673
2817.11950	0.07647
2815.83373	0.07610
2814.54796	0.07569
2813.26219	0.07532
2811.97642	0.07497
2810.69066	0.07457
2809.40489	0.07414
2808.11912	0.07379
2806.83335	0.07357
2805.54758	0.07338
2804.26181	0.07315
2802.97604	0.07282
2801.69027	0.07242
2800.40450	0.07202
2799.11874	0.07170
2797.83297	0.07150
2796.54720	0.07145
2795.26143	0.07150
2793.97566	0.07153
2792.68989	0.07143
2791.40412	0.07119
2790.11835	0.07090
2788.83259	0.07061
2787.54682	0.07026
2786.26105	0.06985
2784.97528	0.06955
2783.68951	0.06949
2782.40374	0.06964
2781.11797	0.06977
2779.83220	0.06975
2778.54643	0.06960
2777.26067	0.06939
2775.97490	0.06917
2774.68913	0.06893
2773.40336	0.06866
2772.11759	0.06843
2770.83182	0.06830
2769.54605	0.06827
2768.26028	0.06823
2766.97452	0.06813
2765.68875	0.06793
2764.40298	0.06766
2763.11721	0.06735
2761.83144	0.06706
2760.54567	0.06685
2759.25990	0.06678
2757.97413	0.06687
2756.68836	0.06707
2755.40260	0.06729
2754.11683	0.06737
2752.83106	0.06716
2751.54529	0.06670
2750.25952	0.06624
2748.97375	0.06600
2747.68798	0.06593
2746.40221	0.06579
2745.11645	0.06546
2743.83068	0.06513
2742.54491	0.06505
2741.25914	0.06524
2739.97337	0.06548
2738.68760	0.06555
2737.40183	0.06541
2736.11606	0.06521
2734.83029	0.06505
2733.54453	0.06490
2732.25876	0.06462
2730.97299	0.06424
2729.68722	0.06396
2728.40145	0.06396
2727.11568	0.06416
2725.82991	0.06428
2724.54414	0.06407
2723.25838	0.06361
2721.97261	0.06320
2720.68684	0.06308
2719.40107	0.06322
2718.11530	0.06341
2716.82953	0.06346
2715.54376	0.06332
2714.25799	0.06306
2712.97222	0.06282
2711.68646	0.06270
2710.40069	0.06275
2709.11492	0.06291
2707.82915	0.06304
2706.54338	0.06299
2705.25761	0.06273
2703.97184	0.06238
2702.68607	0.06209
2701.40031	0.06194
2700.11454	0.06192
2698.82877	0.06196
2697.54300	0.06199
2696.25723	0.06193
2694.97146	0.06181
2693.68569	0.06167
2692.39992	0.06157
2691.11415	0.06152
2689.82839	0.06141
2688.54262	0.06112
2687.25685	0.06065
2685.97108	0.06012
2684.68531	0.05977
2683.39954	0.05972
2682.11377	0.05990
2680.82800	0.06015
2679.54224	0.06035
2678.25647	0.06047
2676.97070	0.06053
2675.68493	0.06052
2674.39916	0.06043
2673.11339	0.06019
2671.82762	0.05984
2670.54185	0.05953
2669.25608	0.05940
2667.97032	0.05951
2666.68455	0.05974
2665.39878	0.05994
2664.11301	0.05999
2662.82724	0.05987
2661.54147	0.05957
2660.25570	0.05909
2658.96993	0.05849
2657.68417	0.05787
2656.39840	0.05737
2655.11263	0.05710
2653.82686	0.05703
2652.54109	0.05706
2651.25532	0.05711
2649.96955	0.05719
2648.68378	0.05729
2647.39801	0.05733
2646.11225	0.05720
2644.82648	0.05689
2643.54071	0.05652
2642.25494	0.05622
2640.96917	0.05603
2639.68340	0.05593
2638.39763	0.05586
2637.11186	0.05579
2635.82609	0.05571
2634.54033	0.05557
2633.25456	0.05531
2631.96879	0.05488
2630.68302	0.05434
2629.39725	0.05383
2628.11148	0.05351
2626.82571	0.05334
2625.53994	0.05316
2624.25418	0.05285
2622.96841	0.05251
2621.68264	0.05228
2620.39687	0.05217
2619.11110	0.05216
2617.82533	0.05227
2616.53956	0.05241
2615.25379	0.05233
2613.96802	0.05181
2612.68226	0.05107
2611.39649	0.05058
2610.11072	0.05054
2608.82495	0.05072
2607.53918	0.05072
2606.25341	0.05026
2604.96764	0.04936
2603.68187	0.04838
2602.39611	0.04775
2601.11034	0.04772
2599.82457	0.04818
2598.53880	0.04884
2597.25303	0.04941
2595.96726	0.04971
2594.68149	0.04964
2593.39572	0.04927
2592.10995	0.04876
2590.82419	0.04833
2589.53842	0.04822
2588.25265	0.04850
2586.96688	0.04889
2585.68111	0.04899
2584.39534	0.04866
2583.10957	0.04824
2581.82380	0.04813
2580.53804	0.04828
2579.25227	0.04830
2577.96650	0.04788
2576.68073	0.04710
2575.39496	0.04633
2574.10919	0.04588
2572.82342	0.04581
2571.53765	0.04585
2570.25188	0.04570
2568.96612	0.04528
2567.68035	0.04486
2566.39458	0.04482
2565.10881	0.04533
2563.82304	0.04602
2562.53727	0.04635
2561.25150	0.04603
2559.96573	0.04531
2558.67997	0.04468
2557.39420	0.04442
2556.10843	0.04457
2554.82266	0.04507
2553.53689	0.04578
2552.25112	0.04642
2550.96535	0.04670
2549.67958	0.04664
2548.39381	0.04653
2547.10805	0.04664
2545.82228	0.04685
2544.53651	0.04681
2543.25074	0.04633
2541.96497	0.04560
2540.67920	0.04497
2539.39343	0.04456
2538.10766	0.04424
2536.82190	0.04387
2535.53613	0.04354
2534.25036	0.04336
2532.96459	0.04328
2531.67882	0.04322
2530.39305	0.04327
2529.10728	0.04360
2527.82151	0.04427
2526.53574	0.04499
2525.24998	0.04536
2523.96421	0.04520
2522.67844	0.04467
2521.39267	0.04421
2520.10690	0.04409
2518.82113	0.04425
2517.53536	0.04439
2516.24959	0.04432
2514.96383	0.04405
2513.67806	0.04369
2512.39229	0.04334
2511.10652	0.04311
2509.82075	0.04312
2508.53498	0.04340
2507.24921	0.04381
2505.96344	0.04423
2504.67767	0.04459
2503.39191	0.04478
2502.10614	0.04474
2500.82037	0.04447
2499.53460	0.04401
2498.24883	0.04340
2496.96306	0.04268
2495.67729	0.04212
2494.39152	0.04196
2493.10576	0.04220
2491.81999	0.04255
2490.53422	0.04275
2489.24845	0.04279
2487.96268	0.04274
2486.67691	0.04263
2485.39114	0.04245
2484.10537	0.04233
2482.81960	0.04241
2481.53384	0.04272
2480.24807	0.04299
2478.96230	0.04295
2477.67653	0.04254
2476.39076	0.04207
2475.10499	0.04193
2473.81922	0.04223
2472.53345	0.04276
2471.24769	0.04319
2469.96192	0.04330
2468.67615	0.04308
2467.39038	0.04265
2466.10461	0.04228
2464.81884	0.04222
2463.53307	0.04255
2462.24730	0.04307
2460.96153	0.04349
2459.67577	0.04362
2458.39000	0.04351
2457.10423	0.04334
2455.81846	0.04331
2454.53269	0.04339
2453.24692	0.04332
2451.96115	0.04279
2450.67538	0.04179
2449.38962	0.04077
2448.10385	0.04018
2446.81808	0.04014
2445.53231	0.04041
2444.24654	0.04071
2442.96077	0.04094
2441.67500	0.04109
2440.38923	0.04113
2439.10346	0.04103
2437.81770	0.04087
2436.53193	0.04076
2435.24616	0.04078
2433.96039	0.04089
2432.67462	0.04101
2431.38885	0.04104
2430.10308	0.04094
2428.81731	0.04075
2427.53155	0.04059
2426.24578	0.04054
2424.96001	0.04062
2423.67424	0.04077
2422.38847	0.04089
2421.10270	0.04086
2419.81693	0.04063
2418.53116	0.04032
2417.24539	0.04017
2415.95963	0.04028
2414.67386	0.04049
2413.38809	0.04052
2412.10232	0.04030
2410.81655	0.03996
2409.53078	0.03972
2408.24501	0.03965
2406.95924	0.03964
2405.67347	0.03955
2404.38771	0.03943
2403.10194	0.03947
2401.81617	0.03978
2400.53040	0.04028
2399.24463	0.04083
2397.95886	0.04094
2396.67309	0.04057
2395.38732	0.03999
2394.10156	0.03949
2392.81579	0.03920
2391.53002	0.03910
2390.24425	0.03910
2388.95848	0.03919
2387.67271	0.03936
2386.38694	0.03958
2385.10117	0.03981
2383.81540	0.04004
2382.52964	0.04020
2381.24387	0.04018
2379.95810	0.03987
2378.67233	0.03926
2377.38656	0.03847
2376.10079	0.03766
2374.81502	0.03710
2373.52925	0.03675
2372.24349	0.03670
2370.95772	0.03666
2369.67195	0.03690
2368.38618	0.03720
2367.10041	0.03727
2365.81464	0.03691
2364.52887	0.03688
2363.24310	0.03716
2361.95733	0.03742
2360.67157	0.03720
2359.38580	0.03721
2358.10003	0.03724
2356.81426	0.03720
2355.52849	0.03710
2354.24272	0.03697
2352.95695	0.03704
2351.67118	0.03683
2350.38542	0.03626
2349.09965	0.03618
2347.81388	0.03704
2346.52811	0.03747
2345.24234	0.03728
2343.95657	0.03752
2342.67080	0.03865
2341.38503	0.03882
2340.09926	0.03756
2338.81350	0.03716
2337.52773	0.03802
2336.24196	0.03762
2334.95619	0.03616
2333.67042	0.03619
2332.38465	0.03749
2331.09888	0.03632
2329.81311	0.03493
2328.52735	0.03646
2327.24158	0.03632
2325.95581	0.03556
2324.67004	0.03775
2323.38427	0.03908
2322.09850	0.03860
2320.81273	0.03995
2319.52696	0.04002
2318.24119	0.03931
2316.95543	0.04014
2315.66966	0.03993
2314.38389	0.03925
2313.09812	0.03935
2311.81235	0.03878
2310.52658	0.03873
2309.24081	0.03872
2307.95504	0.03817
2306.66928	0.03804
2305.38351	0.03761
2304.09774	0.03720
2302.81197	0.03696
2301.52620	0.03664
2300.24043	0.03666
2298.95466	0.03670
2297.66889	0.03681
2296.38312	0.03686
2295.09736	0.03676
2293.81159	0.03661
2292.52582	0.03633
2291.24005	0.03614
2289.95428	0.03614
2288.66851	0.03638
2287.38274	0.03669
2286.09697	0.03690
2284.81121	0.03696
2283.52544	0.03688
2282.23967	0.03676
2280.95390	0.03664
2279.66813	0.03649
2278.38236	0.03620
2277.09659	0.03573
2275.81082	0.03506
2274.52505	0.03433
2273.23929	0.03369
2271.95352	0.03316
2270.66775	0.03268
2269.38198	0.03229
2268.09621	0.03210
2266.81044	0.03204
2265.52467	0.03191
2264.23890	0.03171
2262.95314	0.03159
2261.66737	0.03169
2260.38160	0.03198
2259.09583	0.03227
2257.81006	0.03233
2256.52429	0.03201
2255.23852	0.03134
2253.95275	0.03035
2252.66698	0.02926
2251.38122	0.02850
2250.09545	0.02861
2248.80968	0.02966
2247.52391	0.03008
2246.23814	0.02994
2244.95237	0.02925
2243.66660	0.02850
2242.38083	0.02817
2241.09507	0.02817
2239.80930	0.02804
2238.52353	0.02753
2237.23776	0.02696
2235.95199	0.02678
2234.66622	0.02703
2233.38045	0.02744
2232.09468	0.02788
2230.80891	0.02833
2229.52315	0.02867
2228.23738	0.02867
2226.95161	0.02834
2225.66584	0.02795
2224.38007	0.02767
2223.09430	0.02746
2221.80853	0.02725
2220.52276	0.02718
2219.23700	0.02727
2217.95123	0.02722
2216.66546	0.02668
2215.37969	0.02582
2214.09392	0.02528
2212.80815	0.02542
2211.52238	0.02582
2210.23661	0.02571
2208.95084	0.02482
2207.66508	0.02368
2206.37931	0.02300
2205.09354	0.02289
2203.80777	0.02289
2202.52200	0.02262
2201.23623	0.02218
2199.95046	0.02190
2198.66469	0.02188
2197.37893	0.02182
2196.09316	0.02140
2194.80739	0.02053
2193.52162	0.01951
2192.23585	0.01887
2190.95008	0.01910
2189.66431	0.02022
2188.37854	0.02164
2187.09277	0.02247
2185.80701	0.02217
2184.52124	0.02104
2183.23547	0.02005
2181.94970	0.01989
2180.66393	0.02038
2179.37816	0.02077
2178.09239	0.02061
2176.80662	0.02012
2175.52085	0.01988
2174.23509	0.02025
2172.94932	0.02106
2171.66355	0.02156
2170.37778	0.02083
2169.09201	0.01866
2167.80624	0.01600
2166.52047	0.01445
2165.23470	0.01483
2163.94894	0.01627
2162.66317	0.01694
2161.37740	0.01579
2160.09163	0.01348
2158.80586	0.01173
2157.52009	0.01168
2156.23432	0.01308
2154.94855	0.01480
2153.66278	0.01592
2152.37702	0.01627
2151.09125	0.01628
2149.80548	0.01638
2148.51971	0.01672
2147.23394	0.01733
2145.94817	0.01826
2144.66240	0.01926
2143.37663	0.01993
2142.09087	0.02015
2140.80510	0.02022
2139.51933	0.02043
2138.23356	0.02073
2136.94779	0.02086
2135.66202	0.02064
2134.37625	0.02031
2133.09048	0.02036
2131.80471	0.02109
2130.51895	0.02216
2129.23318	0.02286
2127.94741	0.02282
2126.66164	0.02238
2125.37587	0.02217
2124.09010	0.02237
2122.80433	0.02273
2121.51856	0.02302
2120.23280	0.02329
2118.94703	0.02360
2117.66126	0.02380
2116.37549	0.02378
2115.08972	0.02373
2113.80395	0.02384
2112.51818	0.02406
2111.23241	0.02418
2109.94664	0.02415
2108.66088	0.02398
2107.37511	0.02364
2106.08934	0.02307
2104.80357	0.02241
2103.51780	0.02190
2102.23203	0.02163
2100.94626	0.02153
2099.66049	0.02191
2098.37473	0.02192
2097.08896	0.02158
2095.80319	0.02118
2094.51742	0.02095
2093.23165	0.02104
2091.94588	0.02136
2090.66011	0.02161
2089.37434	0.02149
2088.08857	0.02108
2086.80281	0.02089
2085.51704	0.02134
2084.23127	0.02229
2082.94550	0.02309
2081.65973	0.02319
2080.37396	0.02262
2079.08819	0.02183
2077.80242	0.02117
2076.51666	0.02060
2075.23089	0.01993
2073.94512	0.01920
2072.65935	0.01875
2071.37358	0.01896
2070.08781	0.01983
2068.80204	0.02087
2067.51627	0.02143
2066.23050	0.02116
2064.94474	0.02024
2063.65897	0.01912
2062.37320	0.01819
2061.08743	0.01765
2059.80166	0.01764
2058.51589	0.01811
2057.23012	0.01878
2055.94435	0.01920
2054.65859	0.01911
2053.37282	0.01852
2052.08705	0.01765
2050.80128	0.01672
2049.51551	0.01584
2048.22974	0.01509
2046.94397	0.01458
2045.65820	0.01447
2044.37243	0.01480
2043.08667	0.01529
2041.80090	0.01551
2040.51513	0.01518
2039.22936	0.01443
2037.94359	0.01359
2036.65782	0.01287
2035.37205	0.01232
2034.08628	0.01203
2032.80052	0.01219
2031.51475	0.01265
2030.22898	0.01285
2028.94321	0.01231
2027.65744	0.01128
2026.37167	0.01055
2025.08590	0.01064
2023.80013	0.01136
2022.51436	0.01215
2021.22860	0.01264
2019.94283	0.01276
2018.65706	0.01248
2017.37129	0.01178
2016.08552	0.01086
2014.79975	0.01018
2013.51398	0.01005
2012.22821	0.01048
2010.94245	0.01125
2009.65668	0.01216
2008.37091	0.01307
2007.08514	0.01388
2005.79937	0.01449
2004.51360	0.01484
2003.22783	0.01496
2001.94206	0.01493
2000.65629	0.01480
1999.37053	0.01455
1998.08476	0.01415
1996.79899	0.01376
1995.51322	0.01369
1994.22745	0.01404
1992.94168	0.01464
1991.65591	0.01523
1990.37014	0.01570
1989.08438	0.01608
1987.79861	0.01640
1986.51284	0.01659
1985.22707	0.01665
1983.94130	0.01671
1982.65553	0.01690
1981.36976	0.01722
1980.08399	0.01748
1978.79822	0.01734
1977.51246	0.01661
1976.22669	0.01536
1974.94092	0.01394
1973.65515	0.01284
1972.36938	0.01253
1971.08361	0.01324
1969.79784	0.01472
1968.51207	0.01621
1967.22631	0.01701
1965.94054	0.01707
1964.65477	0.01694
1963.36900	0.01719
1962.08323	0.01796
1960.79746	0.01898
1959.51169	0.01994
1958.22592	0.02065
1956.94015	0.02114
1955.65439	0.02145
1954.36862	0.02156
1953.08285	0.02134
1951.79708	0.02072
1950.51131	0.01982
1949.22554	0.01903
1947.93977	0.01868
1946.65400	0.01887
1945.36823	0.01935
1944.08247	0.01978
1942.79670	0.01998
1941.51093	0.01994
1940.22516	0.01976
1938.93939	0.01949
1937.65362	0.01920
1936.36785	0.01907
1935.08208	0.01938
1933.79632	0.02012
1932.51055	0.02090
1931.22478	0.02126
1929.93901	0.02113
1928.65324	0.02080
1927.36747	0.02056
1926.08170	0.02048
1924.79593	0.02052
1923.51016	0.02063
1922.22440	0.02080
1920.93863	0.02111
1919.65286	0.02157
1918.36709	0.02201
1917.08132	0.02219
1915.79555	0.02201
1914.50978	0.02169
1913.22401	0.02153
1911.93825	0.02160
1910.65248	0.02178
1909.36671	0.02196
1908.08094	0.02211
1906.79517	0.02228
1905.50940	0.02248
1904.22363	0.02264
1902.93786	0.02274
1901.65209	0.02284
1900.36633	0.02309
1899.08056	0.02349
1897.79479	0.02381
1896.50902	0.02376
1895.22325	0.02328
1893.93748	0.02268
1892.65171	0.02233
1891.36594	0.02239
1890.08018	0.02266
1888.79441	0.02285
1887.50864	0.02286
1886.22287	0.02278
1884.93710	0.02273
1883.65133	0.02276
1882.36556	0.02281
1881.07979	0.02280
1879.79402	0.02269
1878.50826	0.02255
1877.22249	0.02249
1875.93672	0.02259
1874.65095	0.02278
1873.36518	0.02294
1872.07941	0.02303
1870.79364	0.02305
1869.50787	0.02306
1868.22211	0.02316
1866.93634	0.02340
1865.65057	0.02370
1864.36480	0.02392
1863.07903	0.02391
1861.79326	0.02371
1860.50749	0.02347
1859.22172	0.02337
1857.93595	0.02342
1856.65019	0.02349
1855.36442	0.02349
1854.07865	0.02342
1852.79288	0.02336
1851.50711	0.02333
1850.22134	0.02328
1848.93557	0.02321
1847.64980	0.02318
1846.36404	0.02321
1845.07827	0.02322
1843.79250	0.02317
1842.50673	0.02314
1841.22096	0.02325
1839.93519	0.02349
1838.64942	0.02374
1837.36365	0.02389
1836.07788	0.02397
1834.79212	0.02400
1833.50635	0.02402
1832.22058	0.02402
1830.93481	0.02400
1829.64904	0.02397
1828.36327	0.02396
1827.07750	0.02400
1825.79173	0.02412
1824.50597	0.02431
1823.22020	0.02452
1821.93443	0.02464
1820.64866	0.02460
1819.36289	0.02434
1818.07712	0.02396
1816.79135	0.02360
1815.50558	0.02338
1814.21981	0.02336
1812.93405	0.02348
1811.64828	0.02369
1810.36251	0.02388
1809.07674	0.02398
1807.79097	0.02400
1806.50520	0.02398
1805.21943	0.02403
1803.93366	0.02418
1802.64790	0.02435
1801.36213	0.02446
1800.07636	0.02447
1798.79059	0.02444
1797.50482	0.02444
1796.21905	0.02451
1794.93328	0.02461
1793.64751	0.02465
1792.36174	0.02462
1791.07598	0.02456
1789.79021	0.02456
1788.50444	0.02466
1787.21867	0.02481
1785.93290	0.02494
1784.64713	0.02503
1783.36136	0.02509
1782.07559	0.02514
1780.78983	0.02515
1779.50406	0.02512
1778.21829	0.02505
1776.93252	0.02500
1775.64675	0.02500
1774.36098	0.02503
1773.07521	0.02506
1771.78944	0.02507
1770.50367	0.02512
1769.21791	0.02523
1767.93214	0.02536
1766.64637	0.02545
1765.36060	0.02544
1764.07483	0.02535
1762.78906	0.02521
1761.50329	0.02509
1760.21752	0.02505
1758.93176	0.02510
1757.64599	0.02524
1756.36022	0.02540
1755.07445	0.02555
1753.78868	0.02567
1752.50291	0.02577
1751.21714	0.02584
1749.93137	0.02585
1748.64560	0.02581
1747.35984	0.02575
1746.07407	0.02572
1744.78830	0.02573
1743.50253	0.02576
1742.21676	0.02581
1740.93099	0.02589
1739.64522	0.02603
1738.35945	0.02623
1737.07369	0.02648
1735.78792	0.02676
1734.50215	0.02702
1733.21638	0.02719
1731.93061	0.02723
1730.64484	0.02716
1729.35907	0.02705
1728.07330	0.02698
1726.78753	0.02700
1725.50177	0.02709
1724.21600	0.02719
1722.93023	0.02728
1721.64446	0.02742
1720.35869	0.02765
1719.07292	0.02796
1717.78715	0.02830
1716.50138	0.02861
1715.21561	0.02885
1713.92985	0.02907
1712.64408	0.02931
1711.35831	0.02963
1710.07254	0.03005
1708.78677	0.03054
1707.50100	0.03106
1706.21523	0.03155
1704.92946	0.03200
1703.64370	0.03243
1702.35793	0.03285
1701.07216	0.03325
1699.78639	0.03357
1698.50062	0.03379
1697.21485	0.03396
1695.92908	0.03412
1694.64331	0.03432
1693.35754	0.03458
1692.07178	0.03491
1690.78601	0.03531
1689.50024	0.03574
1688.21447	0.03616
1686.92870	0.03656
1685.64293	0.03688
1684.35716	0.03711
1683.07139	0.03724
1681.78563	0.03735
1680.49986	0.03752
1679.21409	0.03779
1677.92832	0.03817
1676.64255	0.03858
1675.35678	0.03895
1674.07101	0.03925
1672.78524	0.03950
1671.49947	0.03975
1670.21371	0.04001
1668.92794	0.04031
1667.64217	0.04065
1666.35640	0.04104
1665.07063	0.04151
1663.78486	0.04198
1662.49909	0.04240
1661.21332	0.04269
1659.92756	0.04287
1658.64179	0.04305
1657.35602	0.04332
1656.07025	0.04370
1654.78448	0.04412
1653.49871	0.04448
1652.21294	0.04468
1650.92717	0.04471
1649.64140	0.04469
1648.35564	0.04473
1647.06987	0.04488
1645.78410	0.04507
1644.49833	0.04522
1643.21256	0.04528
1641.92679	0.04530
1640.64102	0.04532
1639.35525	0.04538
1638.06949	0.04547
1636.78372	0.04556
1635.49795	0.04561
1634.21218	0.04560
1632.92641	0.04555
1631.64064	0.04553
1630.35487	0.04557
1629.06910	0.04564
1627.78333	0.04573
1626.49757	0.04581
1625.21180	0.04589
1623.92603	0.04596
1622.64026	0.04605
1621.35449	0.04616
1620.06872	0.04629
1618.78295	0.04643
1617.49718	0.04654
1616.21142	0.04663
1614.92565	0.04672
1613.63988	0.04683
1612.35411	0.04698
1611.06834	0.04715
1609.78257	0.04733
1608.49680	0.04752
1607.21103	0.04773
1605.92526	0.04794
1604.63950	0.04816
1603.35373	0.04839
1602.06796	0.04864
1600.78219	0.04885
1599.49642	0.04899
1598.21065	0.04906
1596.92488	0.04911
1595.63911	0.04921
1594.35335	0.04939
1593.06758	0.04962
1591.78181	0.04989
1590.49604	0.05019
1589.21027	0.05051
1587.92450	0.05084
1586.63873	0.05115
1585.35296	0.05143
1584.06719	0.05174
1582.78143	0.05210
1581.49566	0.05251
1580.20989	0.05295
1578.92412	0.05338
1577.63835	0.05381
1576.35258	0.05428
1575.06681	0.05477
1573.78104	0.05529
1572.49528	0.05583
1571.20951	0.05640
1569.92374	0.05694
1568.63797	0.05742
1567.35220	0.05782
1566.06643	0.05819
1564.78066	0.05861
1563.49489	0.05911
1562.20912	0.05965
1560.92336	0.06020
1559.63759	0.06068
1558.35182	0.06108
1557.06605	0.06141
1555.78028	0.06172
1554.49451	0.06206
1553.20874	0.06245
1551.92297	0.06286
1550.63721	0.06326
1549.35144	0.06357
1548.06567	0.06378
1546.77990	0.06390
1545.49413	0.06399
1544.20836	0.06405
1542.92259	0.06403
1541.63682	0.06390
1540.35105	0.06368
1539.06529	0.06344
1537.77952	0.06323
1536.49375	0.06306
1535.20798	0.06293
1533.92221	0.06278
1532.63644	0.06264
1531.35067	0.06255
1530.06490	0.06258
1528.77914	0.06276
1527.49337	0.06306
1526.20760	0.06341
1524.92183	0.06380
1523.63606	0.06424
1522.35029	0.06475
1521.06452	0.06539
1519.77875	0.06619
1518.49298	0.06714
1517.20722	0.06821
1515.92145	0.06933
1514.63568	0.07048
1513.34991	0.07164
1512.06414	0.07285
1510.77837	0.07414
1509.49260	0.07553
1508.20683	0.07701
1506.92107	0.07853
1505.63530	0.08000
1504.34953	0.08134
1503.06376	0.08255
1501.77799	0.08367
1500.49222	0.08474
1499.20645	0.08576
1497.92068	0.08673
1496.63491	0.08762
1495.34915	0.08842
1494.06338	0.08912
1492.77761	0.08980
1491.49184	0.09053
1490.20607	0.09140
1488.92030	0.09241
1487.63453	0.09354
1486.34876	0.09478
1485.06299	0.09610
1483.77723	0.09751
1482.49146	0.09897
1481.20569	0.10045
1479.91992	0.10191
1478.63415	0.10336
1477.34838	0.10479
1476.06261	0.10624
1474.77684	0.10767
1473.49108	0.10902
1472.20531	0.11024
1470.91954	0.11134
1469.63377	0.11241
1468.34800	0.11349
1467.06223	0.11458
1465.77646	0.11558
1464.49069	0.11645
1463.20492	0.11723
1461.91916	0.11798
1460.63339	0.11881
1459.34762	0.11975
1458.06185	0.12073
1456.77608	0.12160
1455.49031	0.12228
1454.20454	0.12277
1452.91877	0.12316
1451.63301	0.12348
1450.34724	0.12372
1449.06147	0.12386
1447.77570	0.12389
1446.48993	0.12380
1445.20416	0.12360
1443.91839	0.12326
1442.63262	0.12279
1441.34685	0.12220
1440.06109	0.12155
1438.77532	0.12089
1437.48955	0.12031
1436.20378	0.11992
1434.91801	0.11983
1433.63224	0.12009
1432.34647	0.12072
1431.06070	0.12166
1429.77494	0.12282
1428.48917	0.12418
1427.20340	0.12573
1425.91763	0.12749
1424.63186	0.12942
1423.34609	0.13141
1422.06032	0.13335
1420.77455	0.13517
1419.48878	0.13679
1418.20302	0.13822
1416.91725	0.13947
1415.63148	0.14057
1414.34571	0.14152
1413.05994	0.14225
1411.77417	0.14268
1410.48840	0.14277
1409.20263	0.14253
1407.91687	0.14200
1406.63110	0.14121
1405.34533	0.14014
1404.05956	0.13878
1402.77379	0.13716
1401.48802	0.13531
1400.20225	0.13326
1398.91648	0.13101
1397.63071	0.12857
1396.34495	0.12599
1395.05918	0.12331
1393.77341	0.12060
1392.48764	0.11790
1391.20187	0.11526
1389.91610	0.11273
1388.63033	0.11031
1387.34456	0.10803
1386.05880	0.10585
1384.77303	0.10373
1383.48726	0.10165
1382.20149	0.09962
1380.91572	0.09765
1379.62995	0.09570
1378.34418	0.09367
1377.05841	0.09147
1375.77264	0.08905
1374.48688	0.08644
1373.20111	0.08371
1371.91534	0.08092
1370.62957	0.07817
1369.34380	0.07553
1368.05803	0.07307
1366.77226	0.07079
1365.48649	0.06867
1364.20073	0.06662
1362.91496	0.06459
1361.62919	0.06259
1360.34342	0.06069
1359.05765	0.05894
1357.77188	0.05736
1356.48611	0.05592
1355.20034	0.05459
1353.91457	0.05339
1352.62881	0.05233
1351.34304	0.05137
1350.05727	0.05046
1348.77150	0.04956
1347.48573	0.04869
1346.19996	0.04787
1344.91419	0.04710
1343.62842	0.04638
1342.34266	0.04569
1341.05689	0.04502
1339.77112	0.04437
1338.48535	0.04375
1337.19958	0.04321
1335.91381	0.04276
1334.62804	0.04238
1333.34227	0.04201
1332.05650	0.04159
1330.77074	0.04111
1329.48497	0.04062
1328.19920	0.04014
1326.91343	0.03972
1325.62766	0.03935
1324.34189	0.03906
1323.05612	0.03882
1321.77035	0.03858
1320.48459	0.03831
1319.19882	0.03802
1317.91305	0.03772
1316.62728	0.03743
1315.34151	0.03715
1314.05574	0.03689
1312.76997	0.03664
1311.48420	0.03639
1310.19843	0.03612
1308.91267	0.03584
1307.62690	0.03556
1306.34113	0.03529
1305.05536	0.03504
1303.76959	0.03481
1302.48382	0.03460
1301.19805	0.03437
1299.91228	0.03410
1298.62652	0.03380
1297.34075	0.03350
1296.05498	0.03324
1294.76921	0.03306
1293.48344	0.03292
1292.19767	0.03279
1290.91190	0.03262
1289.62613	0.03237
1288.34036	0.03206
1287.05460	0.03171
1285.76883	0.03141
1284.48306	0.03116
1283.19729	0.03097
1281.91152	0.03079
1280.62575	0.03059
1279.33998	0.03040
1278.05421	0.03023
1276.76845	0.03009
1275.48268	0.02995
1274.19691	0.02979
1272.91114	0.02962
1271.62537	0.02941
1270.33960	0.02918
1269.05383	0.02893
1267.76806	0.02870
1266.48229	0.02852
1265.19653	0.02841
1263.91076	0.02834
1262.62499	0.02827
1261.33922	0.02814
1260.05345	0.02797
1258.76768	0.02779
1257.48191	0.02765
1256.19614	0.02756
1254.91037	0.02748
1253.62461	0.02735
1252.33884	0.02714
1251.05307	0.02690
1249.76730	0.02669
1248.48153	0.02654
1247.19576	0.02641
1245.90999	0.02626
1244.62422	0.02608
1243.33846	0.02590
1242.05269	0.02576
1240.76692	0.02565
1239.48115	0.02555
1238.19538	0.02545
1236.90961	0.02533
1235.62384	0.02522
1234.33807	0.02513
1233.05230	0.02503
1231.76654	0.02490
1230.48077	0.02475
1229.19500	0.02460
1227.90923	0.02447
1226.62346	0.02438
1225.33769	0.02429
1224.05192	0.02416
1222.76615	0.02400
1221.48039	0.02384
1220.19462	0.02373
1218.90885	0.02366
1217.62308	0.02360
1216.33731	0.02352
1215.05154	0.02344
1213.76577	0.02336
1212.48000	0.02328
1211.19423	0.02318
1209.90847	0.02308
1208.62270	0.02299
1207.33693	0.02289
1206.05116	0.02281
1204.76539	0.02273
1203.47962	0.02267
1202.19385	0.02262
1200.90808	0.02254
1199.62232	0.02242
1198.33655	0.02239
1197.05078	0.02237
1195.76501	0.02229
1194.47924	0.02215
1193.19347	0.02197
1191.90770	0.02181
1190.62193	0.02172
1189.33616	0.02171
1188.05040	0.02174
1186.76463	0.02176
1185.47886	0.02178
1184.19309	0.02180
1182.90732	0.02181
1181.62155	0.02180
1180.33578	0.02174
1179.05001	0.02164
1177.76425	0.02153
1176.47848	0.02147
1175.19271	0.02146
1173.90694	0.02154
1172.62117	0.02166
1171.33540	0.02180
1170.04963	0.02194
1168.76386	0.02208
1167.47809	0.02225
1166.19233	0.02246
1164.90656	0.02271
1163.62079	0.02296
1162.33502	0.02318
1161.04925	0.02337
1159.76348	0.02361
1158.47771	0.02392
1157.19194	0.02423
1155.90618	0.02450
1154.62041	0.02476
1153.33464	0.02513
1152.04887	0.02568
1150.76310	0.02637
1149.47733	0.02709
1148.19156	0.02774
1146.90579	0.02832
1145.62002	0.02890
1144.33426	0.02956
1143.04849	0.03033
1141.76272	0.03122
1140.47695	0.03225
1139.19118	0.03346
1137.90541	0.03485
1136.61964	0.03638
1135.33387	0.03801
1134.04811	0.03972
1132.76234	0.04156
1131.47657	0.04357
1130.19080	0.04583
1128.90503	0.04839
1127.61926	0.05130
1126.33349	0.05453
1125.04772	0.05797
1123.76195	0.06158
1122.47619	0.06536
1121.19042	0.06929
1119.90465	0.07328
1118.61888	0.07725
1117.33311	0.08120
1116.04734	0.08517
1114.76157	0.08918
1113.47580	0.09319
1112.19004	0.09716
1110.90427	0.10108
1109.61850	0.10495
1108.33273	0.10874
1107.04696	0.11239
1105.76119	0.11587
1104.47542	0.11921
1103.18965	0.12243
1101.90388	0.12556
1100.61812	0.12863
1099.33235	0.13159
1098.04658	0.13437
1096.76081	0.13695
1095.47504	0.13939
1094.18927	0.14176
1092.90350	0.14408
1091.61773	0.14628
1090.33197	0.14834
1089.04620	0.15036
1087.76043	0.15240
1086.47466	0.15443
1085.18889	0.15636
1083.90312	0.15818
1082.61735	0.16004
1081.33158	0.16214
1080.04581	0.16452
1078.76005	0.16709
1077.47428	0.16978
1076.18851	0.17257
1074.90274	0.17549
1073.61697	0.17855
1072.33120	0.18174
1071.04543	0.18502
1069.75966	0.18838
1068.47390	0.19182
1067.18813	0.19535
1065.90236	0.19900
1064.61659	0.20275
1063.33082	0.20656
1062.04505	0.21035
1060.75928	0.21408
1059.47351	0.21777
1058.18774	0.22149
1056.90198	0.22519
1055.61621	0.22879
1054.33044	0.23227
1053.04467	0.23571
1051.75890	0.23922
1050.47313	0.24282
1049.18736	0.24655
1047.90159	0.25045
1046.61583	0.25454
1045.33006	0.25874
1044.04429	0.26298
1042.75852	0.26725
1041.47275	0.27158
1040.18698	0.27598
1038.90121	0.28045
1037.61544	0.28498
1036.32967	0.28957
1035.04391	0.29416
1033.75814	0.29862
1032.47237	0.30287
1031.18660	0.30685
1029.90083	0.31056
1028.61506	0.31398
1027.32929	0.31706
1026.04352	0.31976
1024.75775	0.32206
1023.47199	0.32398
1022.18622	0.32553
1020.90045	0.32670
1019.61468	0.32748
1018.32891	0.32784
1017.04314	0.32776
1015.75737	0.32719
1014.47160	0.32613
1013.18584	0.32458
1011.90007	0.32253
1010.61430	0.31995
1009.32853	0.31686
1008.04276	0.31331
1006.75699	0.30931
1005.47122	0.30484
1004.18545	0.29990
1002.89968	0.29454
1001.61392	0.28880
1000.32815	0.28269
999.04238	0.27622
997.75661	0.26941
996.47084	0.26236
995.18507	0.25515
993.89930	0.24779
992.61353	0.24029
991.32777	0.23275
990.04200	0.22533
988.75623	0.21817
987.47046	0.21126
986.18469	0.20452
984.89892	0.19789
983.61315	0.19146
982.32738	0.18533
981.04161	0.17956
979.75585	0.17411
978.47008	0.16895
977.18431	0.16408
975.89854	0.15960
974.61277	0.15560
973.32700	0.15214
972.04123	0.14925
970.75546	0.14699
969.46970	0.14547
968.18393	0.14474
966.89816	0.14477
965.61239	0.14536
964.32662	0.14629
963.04085	0.14732
961.75508	0.14816
960.46931	0.14851
959.18354	0.14813
957.89778	0.14690
956.61201	0.14488
955.32624	0.14230
954.04047	0.13940
952.75470	0.13637
951.46893	0.13330
950.18316	0.13022
948.89739	0.12712
947.61163	0.12403
946.32586	0.12097
945.04009	0.11802
943.75432	0.11518
942.46855	0.11241
941.18278	0.10966
939.89701	0.10694
938.61124	0.10434
937.32547	0.10194
936.03971	0.09972
934.75394	0.09766
933.46817	0.09572
932.18240	0.09390
930.89663	0.09216
929.61086	0.09050
928.32509	0.08891
927.03932	0.08742
925.75356	0.08604
924.46779	0.08477
923.18202	0.08360
921.89625	0.08249
920.61048	0.08141
919.32471	0.08034
918.03894	0.07932
916.75317	0.07837
915.46740	0.07749
914.18164	0.07659
912.89587	0.07566
911.61010	0.07470
910.32433	0.07376
909.03856	0.07284
907.75279	0.07194
906.46702	0.07113
905.18125	0.07042
903.89549	0.06981
902.60972	0.06929
901.32395	0.06883
900.03818	0.06842
898.75241	0.06802
897.46664	0.06766
896.18087	0.06735
894.89510	0.06703
893.60933	0.06660
892.32357	0.06603
891.03780	0.06547
889.75203	0.06512
888.46626	0.06516
887.18049	0.06574
885.89472	0.06702
884.60895	0.06918
883.32318	0.07229
882.03742	0.07611
880.75165	0.08002
879.46588	0.08330
878.18011	0.08561
876.89434	0.08724
875.60857	0.08878
874.32280	0.09048
873.03703	0.09207
871.75126	0.09301
870.46550	0.09301
869.17973	0.09207
867.89396	0.09034
866.60819	0.08794
865.32242	0.08514
864.03665	0.08228
862.75088	0.07964
861.46511	0.07730
860.17935	0.07515
858.89358	0.07314
857.60781	0.07128
856.32204	0.06964
855.03627	0.06820
853.75050	0.06692
852.46473	0.06578
851.17896	0.06482
849.89319	0.06402
848.60743	0.06331
847.32166	0.06266
846.03589	0.06208
844.75012	0.06158
843.46435	0.06116
842.17858	0.06074
840.89281	0.06027
839.60704	0.05974
838.32128	0.05918
837.03551	0.05861
835.74974	0.05802
834.46397	0.05747
833.17820	0.05705
831.89243	0.05676
830.60666	0.05654
829.32089	0.05629
828.03512	0.05599
826.74936	0.05567
825.46359	0.05543
824.17782	0.05527
822.89205	0.05518
821.60628	0.05513
820.32051	0.05508
819.03474	0.05502
817.74897	0.05493
816.46321	0.05481
815.17744	0.05466
813.89167	0.05449
812.60590	0.05430
811.32013	0.05408
810.03436	0.05387
808.74859	0.05370
807.46282	0.05359
806.17705	0.05349
804.89129	0.05336
803.60552	0.05317
802.31975	0.05299
801.03398	0.05287
799.74821	0.05279
798.46244	0.05266
797.17667	0.05246
795.89090	0.05226
794.60513	0.05211
793.31937	0.05199
792.03360	0.05182
790.74783	0.05156
789.46206	0.05126
788.17629	0.05100
786.89052	0.05079
785.60475	0.05060
784.31898	0.05036
783.03322	0.05007
781.74745	0.04977
780.46168	0.04952
779.17591	0.04937
777.89014	0.04933
776.60437	0.04936
775.31860	0.04941
774.03283	0.04945
772.74706	0.04947
771.46130	0.04948
770.17553	0.04946
768.88976	0.04941
767.60399	0.04933
766.31822	0.04924
765.03245	0.04919
763.74668	0.04919
762.46091	0.04922
761.17515	0.04929
759.88938	0.04943
758.60361	0.04959
757.31784	0.04969
756.03207	0.04966
754.74630	0.04952
753.46053	0.04935
752.17476	0.04922
750.88899	0.04916
749.60323	0.04913
748.31746	0.04911
747.03169	0.04903
745.74592	0.04887
744.46015	0.04861
743.17438	0.04827
741.88861	0.04791
740.60284	0.04764
739.31708	0.04750
738.03131	0.04744
736.74554	0.04732
735.45977	0.04709
734.17400	0.04682
732.88823	0.04660
731.60246	0.04641
730.31669	0.04624
729.03092	0.04614
727.74516	0.04618
726.45939	0.04632
725.17362	0.04644
723.88785	0.04629
722.60208	0.04649
721.31631	0.04689
720.03054	0.04721
718.74477	0.04733
717.45901	0.04727
716.17324	0.04703
714.88747	0.04664
713.60170	0.04615
712.31593	0.04566
711.03016	0.04528
709.74439	0.04504
708.45862	0.04493
707.17285	0.04487
705.88709	0.04481
704.60132	0.04471
703.31555	0.04457
702.02978	0.04441
700.74401	0.04428
699.45824	0.04423
698.17247	0.04427
696.88670	0.04435
695.60094	0.04440
694.31517	0.04441
693.02940	0.04439
691.74363	0.04433
690.45786	0.04420
689.17209	0.04398
687.88632	0.04369
686.60055	0.04340
685.31478	0.04315
684.02902	0.04293
682.74325	0.04272
681.45748	0.04249
680.17171	0.04228
678.88594	0.04211
677.60017	0.04199
676.31440	0.04193
675.02863	0.04192
673.74287	0.04195
672.45710	0.04193
671.17133	0.04171
669.88556	0.04150
668.59979	0.04196
667.31402	0.04216
666.02825	0.04153
664.74248	0.04162
663.45671	0.04158
662.17095	0.04127
660.88518	0.04093
659.59941	0.04066
658.31364	0.04048
657.02787	0.04037
655.74210	0.04030
654.45633	0.04021
653.17056	0.04010
651.88480	0.03997
650.59903	0.03987
649.31326	0.03985
648.02749	0.03988
646.74172	0.03992
645.45595	0.03999
644.17018	0.04011
642.88441	0.04031
641.59864	0.04053
640.31288	0.04068
639.02711	0.04073
637.74134	0.04073
636.45557	0.04082
635.16980	0.04108
633.88403	0.04152
632.59826	0.04204
631.31249	0.04266
630.02673	0.04365
628.74096	0.04484
627.45519	0.04507
626.16942	0.04634
624.88365	0.04836
623.59788	0.05068
622.31211	0.05358
621.02634	0.05719
619.74057	0.06095
618.45481	0.06412
617.16904	0.06643
615.88327	0.06823
614.59750	0.07019
613.31173	0.07304
612.02596	0.07716
610.74019	0.08258
609.45442	0.08909
608.16866	0.09630
606.88289	0.10355
605.59712	0.11009
604.31135	0.11544
603.02558	0.11940
601.73981	0.12182
600.45404	0.12249
599.16827	0.12139
597.88250	0.11887
596.59674	0.11553
595.31097	0.11194
594.02520	0.10851
592.73943	0.10548
591.45366	0.10301
590.16789	0.10129
588.88212	0.10042
587.59635	0.10042
586.31059	0.10113
585.02482	0.10239
583.73905	0.10412
582.45328	0.10636
581.16751	0.10902
579.88174	0.11196
578.59597	0.11498
577.31020	0.11801
576.02443	0.12101
574.73867	0.12396
573.45290	0.12686
572.16713	0.12982
570.88136	0.13299
569.59559	0.13661
568.30982	0.14085
567.02405	0.14567
565.73828	0.15078
564.45251	0.15565
563.16675	0.15971
561.88098	0.16243
560.59521	0.16340
559.30944	0.16250
558.02367	0.15988
556.73790	0.15575
555.45213	0.15029
554.16636	0.14376
552.88060	0.13663
551.59483	0.12951
550.30906	0.12288
549.02329	0.11692
547.73752	0.11160
546.45175	0.10678
545.16598	0.10232
543.88021	0.09814
542.59444	0.09423
541.30868	0.09063
540.02291	0.08738
538.73714	0.08448
537.45137	0.08184
536.16560	0.07938
534.87983	0.07704
533.59406	0.07484
532.30829	0.07280
531.02253	0.07091
529.73676	0.06914
528.45099	0.06746
527.16522	0.06586
525.87945	0.06434
524.59368	0.06289
523.30791	0.06152
522.02214	0.06019
520.73637	0.05888
519.45061	0.05758
518.16484	0.05634
516.87907	0.05520
515.59330	0.05415
514.30753	0.05308
513.02176	0.05196
511.73599	0.05083
510.45022	0.04982
509.16446	0.04899
507.87869	0.04829
506.59292	0.04759
505.30715	0.04683
504.02138	0.04604
502.73561	0.04531
501.44984	0.04475
500.16407	0.04433
498.87830	0.04397
497.59254	0.04356
496.30677	0.04306
495.02100	0.04251
493.73523	0.04192
492.44946	0.04138
491.16369	0.04095
489.87792	0.04063
488.59215	0.04035
487.30639	0.04003
486.02062	0.03968
484.73485	0.03941
483.44908	0.03927
482.16331	0.03919
480.87754	0.03907
479.59177	0.03892
478.30600	0.03883
477.02023	0.03893
475.73447	0.03924
474.44870	0.03964
473.16293	0.03995
471.87716	0.04010
470.59139	0.04008
469.30562	0.03994
468.01985	0.03972
466.73408	0.03943
465.44832	0.03907
464.16255	0.03870
462.87678	0.03835
461.59101	0.03801
460.30524	0.03764
459.01947	0.03720
457.73370	0.03668
456.44793	0.03615
455.16216	0.03566
453.87640	0.03522
452.59063	0.03483
451.30486	0.03450
450.01909	0.03427
448.73332	0.03414
447.44755	0.03405
446.16178	0.03392
444.87601	0.03365
443.59025	0.03328
442.30448	0.03291
441.01871	0.03265
439.73294	0.03255
438.44717	0.03252
437.16140	0.03249
435.87563	0.03239
434.58986	0.03226
433.30409	0.03215
432.01833	0.03208
430.73256	0.03200
429.44679	0.03185
428.16102	0.03163
426.87525	0.03139
425.58948	0.03116
424.30371	0.03097
423.01794	0.03082
421.73218	0.03069
420.44641	0.03054
419.16064	0.03036
417.87487	0.03016
416.58910	0.02999
415.30333	0.02985
414.01756	0.02974
412.73179	0.02967
411.44602	0.02962
410.16026	0.02957
408.87449	0.02957
407.58872	0.02963
406.30295	0.02974
405.01718	0.02982
403.73141	0.02981
402.44564	0.02971
401.15987	0.02962
399.87411	0.02959
