3997.45528 0.04562
3996.16951 0.04462
3994.88374 0.04381
3993.59798 0.04296
3992.31221 0.04225
3991.02644 0.04204
3989.74067 0.04256
3988.45490 0.04366
3987.16913 0.04480
3985.88336 0.04532
3984.59759 0.04492
3983.31183 0.04395
3982.02606 0.04309
3980.74029 0.04275
3979.45452 0.04283
3978.16875 0.04298
3976.88298 0.04296
3975.59721 0.04280
3974.31144 0.04255
3973.02567 0.04227
3971.73991 0.04211
3970.45414 0.04226
3969.16837 0.04268
3967.88260 0.04307
3966.59683 0.04313
3965.31106 0.04281
3964.02529 0.04224
3962.73952 0.04158
3961.45376 0.04102
3960.16799 0.04079
3958.88222 0.04108
3957.59645 0.04179
3956.31068 0.04253
3955.02491 0.04281
3953.73914 0.04234
3952.45337 0.04134
3951.16760 0.04047
3949.88184 0.04029
3948.59607 0.04088
3947.31030 0.04185
3946.02453 0.04281
3944.73876 0.04352
3943.45299 0.04384
3942.16722 0.04366
3940.88145 0.04308
3939.59569 0.04235
3938.30992 0.04169
3937.02415 0.04120
3935.73838 0.04096
3934.45261 0.04110
3933.16684 0.04161
3931.88107 0.04228
3930.59530 0.04292
3929.30953 0.04349
3928.02377 0.04398
3926.73800 0.04421
3925.45223 0.04401
3924.16646 0.04339
3922.88069 0.04258
3921.59492 0.04182
3920.30915 0.04145
3919.02338 0.04171
3917.73762 0.04254
3916.45185 0.04345
3915.16608 0.04394
3913.88031 0.04394
3912.59454 0.04377
3911.30877 0.04375
3910.02300 0.04389
3908.73723 0.04402
3907.45146 0.04405
3906.16570 0.04403
3904.87993 0.04390
3903.59416 0.04348
3902.30839 0.04267
3901.02262 0.04172
3899.73685 0.04106
3898.45108 0.04088
3897.16531 0.04096
3895.87955 0.04101
3894.59378 0.04111
3893.30801 0.04149
3892.02224 0.04193
3890.73647 0.04178
3889.45070 0.04077
3888.16493 0.03952
3886.87916 0.03893
3885.59339 0.03929
3884.30763 0.04009
3883.02186 0.04074
3881.73609 0.04113
3880.45032 0.04149
3879.16455 0.04212
3877.87878 0.04310
3876.59301 0.04418
3875.30724 0.04488
3874.02148 0.04484
3872.73571 0.04405
3871.44994 0.04286
3870.16417 0.04169
3868.87840 0.04083
3867.59263 0.04037
3866.30686 0.04023
3865.02109 0.04025
3863.73532 0.04036
3862.44956 0.04053
3861.16379 0.04064
3859.87802 0.04050
3858.59225 0.04029
3857.30648 0.04054
3856.02071 0.04151
3854.73494 0.04269
3853.44917 0.04335
3852.16341 0.04331
3850.87764 0.04298
3849.59187 0.04263
3848.30610 0.04220
3847.02033 0.04173
3845.73456 0.04140
3844.44879 0.04126
3843.16302 0.04113
3841.87725 0.04097
3840.59149 0.04110
3839.30572 0.04165
3838.01995 0.04226
3836.73418 0.04232
3835.44841 0.04165
3834.16264 0.04064
3832.87687 0.03981
3831.59110 0.03939
3830.30534 0.03921
3829.01957 0.03892
3827.73380 0.03833
3826.44803 0.03767
3825.16226 0.03748
3823.87649 0.03804
3822.59072 0.03901
3821.30495 0.03972
3820.01918 0.03998
3818.73342 0.04016
3817.44765 0.04051
3816.16188 0.04082
3814.87611 0.04080
3813.59034 0.04054
3812.30457 0.04035
3811.01880 0.04036
3809.73303 0.04037
3808.44726 0.04005
3807.16150 0.03923
3805.87573 0.03812
3804.58996 0.03731
3803.30419 0.03730
3802.01842 0.03814
3800.73265 0.03928
3799.44688 0.03998
3798.16111 0.03977
3796.87535 0.03873
3795.58958 0.03750
3794.30381 0.03679
3793.01804 0.03698
3791.73227 0.03786
3790.44650 0.03900
3789.16073 0.04011
3787.87496 0.04106
3786.58919 0.04166
3785.30343 0.04167
3784.01766 0.04100
3782.73189 0.04005
3781.44612 0.03943
3780.16035 0.03938
3778.87458 0.03968
3777.58881 0.04002
3776.30304 0.04032
3775.01728 0.04053
3773.73151 0.04050
3772.44574 0.04011
3771.15997 0.03953
3769.87420 0.03904
3768.58843 0.03882
3767.30266 0.03894
3766.01689 0.03937
3764.73112 0.03990
3763.44536 0.04010
3762.15959 0.03974
3760.87382 0.03904
3759.58805 0.03844
3758.30228 0.03814
3757.01651 0.03811
3755.73074 0.03829
3754.44497 0.03879
3753.15921 0.03953
3751.87344 0.04011
3750.58767 0.04016
3749.30190 0.03981
3748.01613 0.03960
3746.73036 0.03974
3745.44459 0.03990
3744.15882 0.03963
3742.87305 0.03901
3741.58729 0.03854
3740.30152 0.03859
3739.01575 0.03907
3737.72998 0.03949
3736.44421 0.03941
3735.15844 0.03870
3733.87267 0.03768
3732.58690 0.03674
3731.30114 0.03615
3730.01537 0.03602
3728.72960 0.03630
3727.44383 0.03681
3726.15806 0.03720
3724.87229 0.03715
3723.58652 0.03662
3722.30075 0.03587
3721.01498 0.03525
3719.72922 0.03502
3718.44345 0.03519
3717.15768 0.03559
3715.87191 0.03605
3714.58614 0.03640
3713.30037 0.03655
3712.01460 0.03655
3710.72883 0.03655
3709.44307 0.03673
3708.15730 0.03722
3706.87153 0.03803
3705.58576 0.03904
3704.29999 0.04006
3703.01422 0.04075
3701.72845 0.04079
3700.44268 0.04002
3699.15691 0.03867
3697.87115 0.03724
3696.58538 0.03623
3695.29961 0.03570
3694.01384 0.03535
3692.72807 0.03502
3691.44230 0.03489
3690.15653 0.03497
3688.87076 0.03481
3687.58500 0.03400
3686.29923 0.03291
3685.01346 0.03235
3683.72769 0.03275
3682.44192 0.03384
3681.15615 0.03516
3679.87038 0.03648
3678.58461 0.03763
3677.29884 0.03819
3676.01308 0.03779
3674.72731 0.03671
3673.44154 0.03584
3672.15577 0.03590
3670.87000 0.03688
3669.58423 0.03813
3668.29846 0.03905
3667.01269 0.03953
3665.72693 0.03978
3664.44116 0.03997
3663.15539 0.04015
3661.86962 0.04030
3660.58385 0.04041
3659.29808 0.04045
3658.01231 0.04037
3656.72654 0.04025
3655.44077 0.04039
3654.15501 0.04092
3652.86924 0.04152
3651.58347 0.04162
3650.29770 0.04085
3649.01193 0.03941
3647.72616 0.03790
3646.44039 0.03691
3645.15462 0.03669
3643.86886 0.03702
3642.58309 0.03744
3641.29732 0.03767
3640.01155 0.03792
3638.72578 0.03862
3637.44001 0.03967
3636.15424 0.04038
3634.86847 0.04019
3633.58270 0.03942
3632.29694 0.03897
3631.01117 0.03944
3629.72540 0.04061
3628.43963 0.04164
3627.15386 0.04191
3625.86809 0.04147
3624.58232 0.04093
3623.29655 0.04092
3622.01079 0.04166
3620.72502 0.04290
3619.43925 0.04412
3618.15348 0.04490
3616.86771 0.04511
3615.58194 0.04498
3614.29617 0.04479
3613.01040 0.04466
3611.72463 0.04461
3610.43887 0.04464
3609.15310 0.04477
3607.86733 0.04501
3606.58156 0.04532
3605.29579 0.04556
3604.01002 0.04568
3602.72425 0.04571
3601.43848 0.04580
3600.15272 0.04618
3598.86695 0.04697
3597.58118 0.04794
3596.29541 0.04855
3595.00964 0.04839
3593.72387 0.04773
3592.43810 0.04726
3591.15233 0.04749
3589.86656 0.04833
3588.58080 0.04932
3587.29503 0.04999
3586.00926 0.05004
3584.72349 0.04943
3583.43772 0.04837
3582.15195 0.04731
3580.86618 0.04675
3579.58041 0.04697
3578.29464 0.04784
3577.00888 0.04898
3575.72311 0.05001
3574.43734 0.05084
3573.15157 0.05158
3571.86580 0.05221
3570.58003 0.05257
3569.29426 0.05251
3568.00849 0.05222
3566.72273 0.05200
3565.43696 0.05194
3564.15119 0.05190
3562.86542 0.05173
3561.57965 0.05158
3560.29388 0.05165
3559.00811 0.05204
3557.72234 0.05271
3556.43657 0.05348
3555.15081 0.05415
3553.86504 0.05442
3552.57927 0.05416
3551.29350 0.05350
3550.00773 0.05284
3548.72196 0.05244
3547.43619 0.05225
3546.15042 0.05215
3544.86466 0.05231
3543.57889 0.05302
3542.29312 0.05428
3541.00735 0.05572
3539.72158 0.05691
3538.43581 0.05765
3537.15004 0.05784
3535.86427 0.05743
3534.57850 0.05658
3533.29274 0.05572
3532.00697 0.05536
3530.72120 0.05565
3529.43543 0.05626
3528.14966 0.05671
3526.86389 0.05680
3525.57812 0.05680
3524.29235 0.05706
3523.00659 0.05762
3521.72082 0.05811
3520.43505 0.05818
3519.14928 0.05792
3517.86351 0.05778
3516.57774 0.05807
3515.29197 0.05872
3514.00620 0.05940
3512.72043 0.05980
3511.43467 0.05977
3510.14890 0.05942
3508.86313 0.05905
3507.57736 0.05903
3506.29159 0.05937
3505.00582 0.05972
3503.72005 0.05965
3502.43428 0.05908
3501.14852 0.05826
3499.86275 0.05753
3498.57698 0.05721
3497.29121 0.05753
3496.00544 0.05844
3494.71967 0.05945
3493.43390 0.06007
3492.14813 0.06021
3490.86236 0.06012
3489.57660 0.06012
3488.29083 0.06039
3487.00506 0.06101
3485.71929 0.06190
3484.43352 0.06285
3483.14775 0.06354
3481.86198 0.06381
3480.57621 0.06367
3479.29045 0.06320
3478.00468 0.06264
3476.71891 0.06233
3475.43314 0.06255
3474.14737 0.06314
3472.86160 0.06370
3471.57583 0.06385
3470.29006 0.06360
3469.00429 0.06314
3467.71853 0.06266
3466.43276 0.06219
3465.14699 0.06180
3463.86122 0.06175
3462.57545 0.06221
3461.28968 0.06297
3460.00391 0.06347
3458.71814 0.06332
3457.43238 0.06268
3456.14661 0.06207
3454.86084 0.06189
3453.57507 0.06214
3452.28930 0.06247
3451.00353 0.06267
3449.71776 0.06292
3448.43199 0.06354
3447.14622 0.06449
3445.86046 0.06531
3444.57469 0.06562
3443.28892 0.06549
3442.00315 0.06536
3440.71738 0.06550
3439.43161 0.06583
3438.14584 0.06610
3436.86007 0.06604
3435.57431 0.06550
3434.28854 0.06454
3433.00277 0.06357
3431.71700 0.06309
3430.43123 0.06336
3429.14546 0.06418
3427.85969 0.06506
3426.57392 0.06555
3425.28815 0.06548
3424.00239 0.06506
3422.71662 0.06471
3421.43085 0.06473
3420.14508 0.06510
3418.85931 0.06555
3417.57354 0.06586
3416.28777 0.06607
3415.00200 0.06631
3413.71624 0.06656
3412.43047 0.06665
3411.14470 0.06646
3409.85893 0.06604
3408.57316 0.06567
3407.28739 0.06562
3406.00162 0.06600
3404.71585 0.06668
3403.43008 0.06741
3402.14432 0.06802
3400.85855 0.06842
3399.57278 0.06808
3398.28701 0.06715
3397.00124 0.06648
3395.71547 0.06626
3394.42970 0.06630
3393.14393 0.06638
3391.85817 0.06643
3390.57240 0.06650
3389.28663 0.06667
3388.00086 0.06693
3386.71509 0.06729
3385.42932 0.06790
3384.14355 0.06877
3382.85778 0.06967
3381.57201 0.07023
3380.28625 0.07028
3379.00048 0.06992
3377.71471 0.06923
3376.42894 0.06838
3375.14317 0.06775
3373.85740 0.06774
3372.57163 0.06841
3371.28586 0.06928
3370.00010 0.06979
3368.71433 0.06967
3367.42856 0.06909
3366.14279 0.06837
3364.85702 0.06779
3363.57125 0.06747
3362.28548 0.06742
3360.99971 0.06760
3359.71394 0.06788
3358.42818 0.06815
3357.14241 0.06830
3355.85664 0.06829
3354.57087 0.06816
3353.28510 0.06801
3351.99933 0.06803
3350.71356 0.06838
3349.42779 0.06897
3348.14202 0.06941
3346.85626 0.06942
3345.57049 0.06916
3344.28472 0.06908
3342.99895 0.06938
3341.71318 0.06980
3340.42741 0.06987
3339.14164 0.06935
3337.85587 0.06846
3336.57011 0.06767
3335.28434 0.06726
3333.99857 0.06725
3332.71280 0.06750
3331.42703 0.06785
3330.14126 0.06809
3328.85549 0.06809
3327.56972 0.06789
3326.28395 0.06777
3324.99819 0.06789
3323.71242 0.06811
3322.42665 0.06816
3321.14088 0.06803
3319.85511 0.06801
3318.56934 0.06826
3317.28357 0.06864
3315.99780 0.06888
3314.71204 0.06895
3313.42627 0.06898
3312.14050 0.06901
3310.85473 0.06898
3309.56896 0.06889
3308.28319 0.06882
3306.99742 0.06878
3305.71165 0.06862
3304.42588 0.06818
3303.14012 0.06755
3301.85435 0.06691
3300.56858 0.06638
3299.28281 0.06593
3297.99704 0.06546
3296.71127 0.06501
3295.42550 0.06473
3294.13973 0.06488
3292.85397 0.06550
3291.56820 0.06637
3290.28243 0.06711
3288.99666 0.06741
3287.71089 0.06724
3286.42512 0.06684
3285.13935 0.06664
3283.85358 0.06693
3282.56781 0.06762
3281.28205 0.06826
3279.99628 0.06846
3278.71051 0.06813
3277.42474 0.06755
3276.13897 0.06711
3274.85320 0.06701
3273.56743 0.06711
3272.28166 0.06704
3270.99590 0.06660
3269.71013 0.06595
3268.42436 0.06555
3267.13859 0.06578
3265.85282 0.06666
3264.56705 0.06782
3263.28128 0.06878
3261.99551 0.06923
3260.70974 0.06913
3259.42398 0.06865
3258.13821 0.06802
3256.85244 0.06750
3255.56667 0.06721
3254.28090 0.06713
3252.99513 0.06711
3251.70936 0.06700
3250.42359 0.06676
3249.13783 0.06640
3247.85206 0.06598
3246.56629 0.06564
3245.28052 0.06545
3243.99475 0.06530
3242.70898 0.06500
3241.42321 0.06459
3240.13744 0.06444
3238.85167 0.06480
3237.56591 0.06544
3236.28014 0.06582
3234.99437 0.06560
3233.70860 0.06493
3232.42283 0.06426
3231.13706 0.06393
3229.85129 0.06396
3228.56552 0.06413
3227.27976 0.06423
3225.99399 0.06426
3224.70822 0.06431
3223.42245 0.06441
3222.13668 0.06454
3220.85091 0.06466
3219.56514 0.06474
3218.27937 0.06470
3216.99360 0.06449
3215.70784 0.06421
3214.42207 0.06405
3213.13630 0.06400
3211.85053 0.06393
3210.56476 0.06372
3209.27899 0.06350
3207.99322 0.06346
3206.70745 0.06363
3205.42169 0.06385
3204.13592 0.06401
3202.85015 0.06409
3201.56438 0.06414
3200.27861 0.06409
3198.99284 0.06393
3197.70707 0.06372
3196.42130 0.06357
3195.13553 0.06347
3193.84977 0.06327
3192.56400 0.06297
3191.27823 0.06285
3189.99246 0.06314
3188.70669 0.06371
3187.42092 0.06415
3186.13515 0.06416
3184.84938 0.06387
3183.56362 0.06363
3182.27785 0.06366
3180.99208 0.06397
3179.70631 0.06433
3178.42054 0.06445
3177.13477 0.06419
3175.84900 0.06366
3174.56323 0.06302
3173.27746 0.06228
3171.99170 0.06148
3170.70593 0.06086
3169.42016 0.06075
3168.13439 0.06115
3166.84862 0.06168
3165.56285 0.06185
3164.27708 0.06154
3162.99131 0.06102
3161.70555 0.06060
3160.41978 0.06037
3159.13401 0.06022
3157.84824 0.06006
3156.56247 0.05985
3155.27670 0.05961
3153.99093 0.05935
3152.70516 0.05915
3151.41939 0.05914
3150.13363 0.05934
3148.84786 0.05957
3147.56209 0.05967
3146.27632 0.05966
3144.99055 0.05978
3143.70478 0.06011
3142.41901 0.06053
3141.13324 0.06079
3139.84748 0.06079
3138.56171 0.06055
3137.27594 0.06021
3135.99017 0.05990
3134.70440 0.05971
3133.41863 0.05966
3132.13286 0.05970
3130.84709 0.05971
3129.56132 0.05956
3128.27556 0.05914
3126.98979 0.05850
3125.70402 0.05787
3124.41825 0.05748
3123.13248 0.05738
3121.84671 0.05744
3120.56094 0.05754
3119.27517 0.05766
3117.98940 0.05785
3116.70364 0.05813
3115.41787 0.05842
3114.13210 0.05860
3112.84633 0.05858
3111.56056 0.05829
3110.27479 0.05784
3108.98902 0.05738
3107.70325 0.05710
3106.41749 0.05700
3105.13172 0.05692
3103.84595 0.05673
3102.56018 0.05646
3101.27441 0.05626
3099.98864 0.05624
3098.70287 0.05629
3097.41710 0.05628
3096.13133 0.05619
3094.84557 0.05620
3093.55980 0.05649
3092.27403 0.05706
3090.98826 0.05763
3089.70249 0.05787
3088.41672 0.05766
3087.13095 0.05705
3085.84518 0.05625
3084.55942 0.05549
3083.27365 0.05503
3081.98788 0.05499
3080.70211 0.05527
3079.41634 0.05564
3078.13057 0.05590
3076.84480 0.05598
3075.55903 0.05586
3074.27326 0.05554
3072.98750 0.05512
3071.70173 0.05485
3070.41596 0.05498
3069.13019 0.05543
3067.84442 0.05585
3066.55865 0.05591
3065.27288 0.05565
3063.98711 0.05529
3062.70135 0.05499
3061.41558 0.05474
3060.12981 0.05452
3058.84404 0.05429
3057.55827 0.05405
3056.27250 0.05374
3054.98673 0.05338
3053.70096 0.05308
3052.41519 0.05297
3051.12943 0.05304
3049.84366 0.05313
3048.55789 0.05304
3047.27212 0.05276
3045.98635 0.05241
3044.70058 0.05220
3043.41481 0.05220
3042.12904 0.05234
3040.84328 0.05248
3039.55751 0.05250
3038.27174 0.05242
3036.98597 0.05232
3035.70020 0.05233
3034.41443 0.05243
3033.12866 0.05249
3031.84289 0.05239
3030.55712 0.05218
3029.27136 0.05199
3027.98559 0.05186
3026.69982 0.05166
3025.41405 0.05134
3024.12828 0.05107
3022.84251 0.05108
3021.55674 0.05134
3020.27097 0.05162
3018.98521 0.05176
3017.69944 0.05179
3016.41367 0.05180
3015.12790 0.05177
3013.84213 0.05165
3012.55636 0.05141
3011.27059 0.05109
3009.98482 0.05075
3008.69905 0.05051
3007.41329 0.05045
3006.12752 0.05054
3004.84175 0.05065
3003.55598 0.05065
3002.27021 0.05069
3000.98444 0.05076
2999.69867 0.05035
2998.41290 0.05024
2997.12714 0.05011
2995.84137 0.05004
2994.55560 0.05008
2993.26983 0.05017
2991.98406 0.05023
2990.69829 0.05029
2989.41252 0.05034
2988.12675 0.05028
2986.84098 0.05004
2985.55522 0.04977
2984.26945 0.04967
2982.98368 0.04978
2981.69791 0.04995
2980.41214 0.05014
2979.12637 0.05042
2977.84060 0.05083
2976.55483 0.05130
2975.26907 0.05171
2973.98330 0.05205
2972.69753 0.05242
2971.41176 0.05295
2970.12599 0.05369
2968.84022 0.05453
2967.55445 0.05531
2966.26868 0.05595
2964.98291 0.05655
2963.69715 0.05723
2962.41138 0.05801
2961.12561 0.05876
2959.83984 0.05936
2958.55407 0.05980
2957.26830 0.06018
2955.98253 0.06059
2954.69676 0.06099
2953.41100 0.06117
2952.12523 0.06104
2950.83946 0.06073
2949.55369 0.06052
2948.26792 0.06051
2946.98215 0.06057
2945.69638 0.06047
2944.41061 0.06011
2943.12484 0.05962
2941.83908 0.05935
2940.55331 0.05949
2939.26754 0.05995
2937.98177 0.06044
2936.69600 0.06076
2935.41023 0.06096
2934.12446 0.06122
2932.83869 0.06164
2931.55293 0.06223
2930.26716 0.06281
2928.98139 0.06319
2927.69562 0.06328
2926.40985 0.06315
2925.12408 0.06291
2923.83831 0.06264
2922.55254 0.06243
2921.26677 0.06231
2919.98101 0.06229
2918.69524 0.06228
2917.40947 0.06214
2916.12370 0.06178
2914.83793 0.06115
2913.55216 0.06035
2912.26639 0.05957
2910.98062 0.05903
2909.69486 0.05879
2908.40909 0.05866
2907.12332 0.05836
2905.83755 0.05776
2904.55178 0.05706
2903.26601 0.05655
2901.98024 0.05642
2900.69447 0.05652
2899.40870 0.05657
2898.12294 0.05630
2896.83717 0.05564
2895.55140 0.05471
2894.26563 0.05375
2892.97986 0.05299
2891.69409 0.05252
2890.40832 0.05226
2889.12255 0.05206
2887.83678 0.05187
2886.55102 0.05167
2885.26525 0.05146
2883.97948 0.05124
2882.69371 0.05104
2881.40794 0.05094
2880.12217 0.05098
2878.83640 0.05116
2877.55063 0.05146
2876.26487 0.05189
2874.97910 0.05239
2873.69333 0.05284
2872.40756 0.05315
2871.12179 0.05335
2869.83602 0.05354
2868.55025 0.05369
2867.26448 0.05364
2865.97871 0.05330
2864.69295 0.05275
2863.40718 0.05222
2862.12141 0.05183
2860.83564 0.05158
2859.54987 0.05141
2858.26410 0.05130
2856.97833 0.05125
2855.69256 0.05124
2854.40680 0.05124
2853.12103 0.05122
2851.83526 0.05115
2850.54949 0.05093
2849.26372 0.05047
2847.97795 0.04981
2846.69218 0.04911
2845.40641 0.04851
2844.12064 0.04799
2842.83488 0.04744
2841.54911 0.04684
2840.26334 0.04630
2838.97757 0.04591
2837.69180 0.04558
2836.40603 0.04516
2835.12026 0.04463
2833.83449 0.04414
2832.54873 0.04379
2831.26296 0.04350
2829.97719 0.04313
2828.69142 0.04264
2827.40565 0.04219
2826.11988 0.04189
2824.83411 0.04170
2823.54834 0.04151
2822.26257 0.04130
2820.97681 0.04116
2819.69104 0.04115
2818.40527 0.04121
2817.11950 0.04123
2815.83373 0.04109
2814.54796 0.04083
2813.26219 0.04056
2811.97642 0.04037
2810.69066 0.04021
2809.40489 0.03998
2808.11912 0.03972
2806.83335 0.03959
2805.54758 0.03962
2804.26181 0.03962
2802.97604 0.03947
2801.69027 0.03932
2800.40450 0.03939
2799.11874 0.03963
2797.83297 0.03976
2796.54720 0.03962
2795.26143 0.03932
2793.97566 0.03901
2792.68989 0.03877
2791.40412 0.03858
2790.11835 0.03848
2788.83259 0.03847
2787.54682 0.03844
2786.26105 0.03832
2784.97528 0.03817
2783.68951 0.03811
2782.40374 0.03809
2781.11797 0.03800
2779.83220 0.03787
2778.54643 0.03786
2777.26067 0.03806
2775.97490 0.03835
2774.68913 0.03854
2773.40336 0.03853
2772.11759 0.03834
2770.83182 0.03807
2769.54605 0.03787
2768.26028 0.03784
2766.97452 0.03791
2765.68875 0.03795
2764.40298 0.03791
2763.11721 0.03785
2761.83144 0.03783
2760.54567 0.03782
2759.25990 0.03771
2757.97413 0.03747
2756.68836 0.03722
2755.40260 0.03712
2754.11683 0.03723
2752.83106 0.03741
2751.54529 0.03745
2750.25952 0.03730
2748.97375 0.03705
2747.68798 0.03685
2746.40221 0.03673
2745.11645 0.03662
2743.83068 0.03649
2742.54491 0.03639
2741.25914 0.03637
2739.97337 0.03643
2738.68760 0.03653
2737.40183 0.03664
2736.11606 0.03669
2734.83029 0.03657
2733.54453 0.03633
2732.25876 0.03614
2730.97299 0.03611
2729.68722 0.03624
2728.40145 0.03638
2727.11568 0.03643
2725.82991 0.03634
2724.54414 0.03613
2723.25838 0.03587
2721.97261 0.03564
2720.68684 0.03550
2719.40107 0.03543
2718.11530 0.03541
2716.82953 0.03545
2715.54376 0.03552
2714.25799 0.03558
2712.97222 0.03559
2711.68646 0.03552
2710.40069 0.03537
2709.11492 0.03516
2707.82915 0.03491
2706.54338 0.03466
2705.25761 0.03448
2703.97184 0.03445
2702.68607 0.03453
2701.40031 0.03464
2700.11454 0.03467
2698.82877 0.03456
2697.54300 0.03436
2696.25723 0.03416
2694.97146 0.03406
2693.68569 0.03405
2692.39992 0.03403
2691.11415 0.03393
2689.82839 0.03380
2688.54262 0.03373
2687.25685 0.03374
2685.97108 0.03371
2684.68531 0.03358
2683.39954 0.03343
2682.11377 0.03337
2680.82800 0.03344
2679.54224 0.03354
2678.25647 0.03354
2676.97070 0.03340
2675.68493 0.03319
2674.39916 0.03304
2673.11339 0.03305
2671.82762 0.03316
2670.54185 0.03325
2669.25608 0.03322
2667.97032 0.03305
2666.68455 0.03277
2665.39878 0.03244
2664.11301 0.03220
2662.82724 0.03223
2661.54147 0.03261
2660.25570 0.03320
2658.96993 0.03372
2657.68417 0.03400
2656.39840 0.03403
2655.11263 0.03396
2653.82686 0.03387
2652.54109 0.03378
2651.25532 0.03364
2649.96955 0.03344
2648.68378 0.03315
2647.39801 0.03281
2646.11225 0.03251
2644.82648 0.03235
2643.54071 0.03233
2642.25494 0.03237
2640.96917 0.03236
2639.68340 0.03231
2638.39763 0.03230
2637.11186 0.03229
2635.82609 0.03219
2634.54033 0.03195
2633.25456 0.03167
2631.96879 0.03150
2630.68302 0.03155
2629.39725 0.03182
2628.11148 0.03219
2626.82571 0.03234
2625.53994 0.03202
2624.25418 0.03130
2622.96841 0.03050
2621.68264 0.02992
2620.39687 0.02961
2619.11110 0.02944
2617.82533 0.02934
2616.53956 0.02935
2615.25379 0.02960
2613.96802 0.03005
2612.68226 0.03043
2611.39649 0.03044
2610.11072 0.03006
2608.82495 0.02963
2607.53918 0.02943
2606.25341 0.02946
2604.96764 0.02953
2603.68187 0.02952
2602.39611 0.02944
2601.11034 0.02937
2599.82457 0.02929
2598.53880 0.02910
2597.25303 0.02871
2595.96726 0.02819
2594.68149 0.02771
2593.39572 0.02739
2592.10995 0.02726
2590.82419 0.02731
2589.53842 0.02756
2588.25265 0.02793
2586.96688 0.02831
2585.68111 0.02855
2584.39534 0.02862
2583.10957 0.02858
2581.82380 0.02853
2580.53804 0.02842
2579.25227 0.02819
2577.96650 0.02792
2576.68073 0.02781
2575.39496 0.02786
2574.10919 0.02787
2572.82342 0.02770
2571.53765 0.02743
2570.25188 0.02725
2568.96612 0.02726
2567.68035 0.02740
2566.39458 0.02749
2565.10881 0.02736
2563.82304 0.02698
2562.53727 0.02651
2561.25150 0.02614
2559.96573 0.02599
2558.67997 0.02604
2557.39420 0.02624
2556.10843 0.02653
2554.82266 0.02683
2553.53689 0.02699
2552.25112 0.02685
2550.96535 0.02636
2549.67958 0.02567
2548.39381 0.02501
2547.10805 0.02459
2545.82228 0.02451
2544.53651 0.02478
2543.25074 0.02521
2541.96497 0.02555
2540.67920 0.02563
2539.39343 0.02555
2538.10766 0.02545
2536.82190 0.02538
2535.53613 0.02533
2534.25036 0.02532
2532.96459 0.02535
2531.67882 0.02526
2530.39305 0.02496
2529.10728 0.02458
2527.82151 0.02442
2526.53574 0.02468
2525.24998 0.02526
2523.96421 0.02590
2522.67844 0.02637
2521.39267 0.02659
2520.10690 0.02657
2518.82113 0.02637
2517.53536 0.02613
2516.24959 0.02600
2514.96383 0.02604
2513.67806 0.02613
2512.39229 0.02613
2511.10652 0.02602
2509.82075 0.02580
2508.53498 0.02542
2507.24921 0.02491
2505.96344 0.02449
2504.67767 0.02444
2503.39191 0.02472
2502.10614 0.02499
2500.82037 0.02499
2499.53460 0.02483
2498.24883 0.02482
2496.96306 0.02507
2495.67729 0.02541
2494.39152 0.02563
2493.10576 0.02565
2491.81999 0.02555
2490.53422 0.02543
2489.24845 0.02532
2487.96268 0.02520
2486.67691 0.02504
2485.39114 0.02486
2484.10537 0.02474
2482.81960 0.02479
2481.53384 0.02492
2480.24807 0.02495
2478.96230 0.02473
2477.67653 0.02430
2476.39076 0.02383
2475.10499 0.02351
2473.81922 0.02341
2472.53345 0.02351
2471.24769 0.02373
2469.96192 0.02395
2468.67615 0.02406
2467.39038 0.02407
2466.10461 0.02408
2464.81884 0.02416
2463.53307 0.02424
2462.24730 0.02423
2460.96153 0.02417
2459.67577 0.02419
2458.39000 0.02435
2457.10423 0.02454
2455.81846 0.02463
2454.53269 0.02456
2453.24692 0.02444
2451.96115 0.02447
2450.67538 0.02477
2449.38962 0.02524
2448.10385 0.02560
2446.81808 0.02567
2445.53231 0.02544
2444.24654 0.02503
2442.96077 0.02460
2441.67500 0.02422
2440.38923 0.02389
2439.10346 0.02357
2437.81770 0.02330
2436.53193 0.02316
2435.24616 0.02315
2433.96039 0.02323
2432.67462 0.02340
2431.38885 0.02370
2430.10308 0.02409
2428.81731 0.02436
2427.53155 0.02426
2426.24578 0.02376
2424.96001 0.02308
2423.67424 0.02246
2422.38847 0.02205
2421.10270 0.02185
2419.81693 0.02184
2418.53116 0.02198
2417.24539 0.02217
2415.95963 0.02233
2414.67386 0.02246
2413.38809 0.02264
2412.10232 0.02279
2410.81655 0.02278
2409.53078 0.02258
2408.24501 0.02232
2406.95924 0.02213
2405.67347 0.02198
2404.38771 0.02184
2403.10194 0.02175
2401.81617 0.02177
2400.53040 0.02192
2399.24463 0.02291
2397.95886 0.02235
2396.67309 0.02192
2395.38732 0.02203
2394.10156 0.02230
2392.81579 0.02249
2391.53002 0.02247
2390.24425 0.02223
2388.95848 0.02191
2387.67271 0.02165
2386.38694 0.02155
2385.10117 0.02165
2383.81540 0.02191
2382.52964 0.02221
2381.24387 0.02233
2379.95810 0.02219
2378.67233 0.02175
2377.38656 0.02130
2376.10079 0.02122
2374.81502 0.02150
2373.52925 0.02167
2372.24349 0.02161
2370.95772 0.02152
2369.67195 0.02150
2368.38618 0.02161
2367.10041 0.02183
2365.81464 0.02218
2364.52887 0.02251
2363.24310 0.02270
2361.95733 0.02273
2360.67157 0.02261
2359.38580 0.02243
2358.10003 0.02224
2356.81426 0.02215
2355.52849 0.02234
2354.24272 0.02283
2352.95695 0.02333
2351.67118 0.02336
2350.38542 0.02318
2349.09965 0.02321
2347.81388 0.02334
2346.52811 0.02330
2345.24234 0.02326
2343.95657 0.02341
2342.67080 0.02386
2341.38503 0.02365
2340.09926 0.02307
2338.81350 0.02319
2337.52773 0.02370
2336.24196 0.02331
2334.95619 0.02264
2333.67042 0.02271
2332.38465 0.02345
2331.09888 0.02336
2329.81311 0.02363
2328.52735 0.02434
2327.24158 0.02467
2325.95581 0.02504
2324.67004 0.02552
2323.38427 0.02595
2322.09850 0.02578
2320.81273 0.02555
2319.52696 0.02536
2318.24119 0.02517
2316.95543 0.02487
2315.66966 0.02436
2314.38389 0.02389
2313.09812 0.02350
2311.81235 0.02313
2310.52658 0.02284
2309.24081 0.02257
2307.95504 0.02226
2306.66928 0.02203
2305.38351 0.02182
2304.09774 0.02161
2302.81197 0.02143
2301.52620 0.02136
2300.24043 0.02147
2298.95466 0.02163
2297.66889 0.02175
2296.38312 0.02182
2295.09736 0.02197
2293.81159 0.02221
2292.52582 0.02239
2291.24005 0.02236
2289.95428 0.02218
2288.66851 0.02200
2287.38274 0.02195
2286.09697 0.02200
2284.81121 0.02208
2283.52544 0.02210
2282.23967 0.02198
2280.95390 0.02172
2279.66813 0.02136
2278.38236 0.02097
2277.09659 0.02057
2275.81082 0.02018
2274.52505 0.01982
2273.23929 0.01950
2271.95352 0.01913
2270.66775 0.01866
2269.38198 0.01826
2268.09621 0.01810
2266.81044 0.01819
2265.52467 0.01839
2264.23890 0.01862
2262.95314 0.01879
2261.66737 0.01875
2260.38160 0.01842
2259.09583 0.01785
2257.81006 0.01714
2256.52429 0.01638
2255.23852 0.01566
2253.95275 0.01526
2252.66698 0.01531
2251.38122 0.01548
2250.09545 0.01573
2248.80968 0.01702
2247.52391 0.01689
2246.23814 0.01640
2244.95237 0.01592
2243.66660 0.01560
2242.38083 0.01542
2241.09507 0.01525
2239.80930 0.01496
2238.52353 0.01457
2237.23776 0.01441
2235.95199 0.01490
2234.66622 0.01599
2233.38045 0.01716
2232.09468 0.01789
2230.80891 0.01806
2229.52315 0.01779
2228.23738 0.01707
2226.95161 0.01593
2225.66584 0.01467
2224.38007 0.01367
2223.09430 0.01315
2221.80853 0.01313
2220.52276 0.01361
2219.23700 0.01447
2217.95123 0.01535
2216.66546 0.01565
2215.37969 0.01503
2214.09392 0.01387
2212.80815 0.01303
2211.52238 0.01310
2210.23661 0.01399
2208.95084 0.01517
2207.66508 0.01606
2206.37931 0.01626
2205.09354 0.01568
2203.80777 0.01465
2202.52200 0.01363
2201.23623 0.01278
2199.95046 0.01197
2198.66469 0.01123
2197.37893 0.01077
2196.09316 0.01062
2194.80739 0.01064
2193.52162 0.01085
2192.23585 0.01147
2190.95008 0.01251
2189.66431 0.01353
2188.37854 0.01388
2187.09277 0.01329
2185.80701 0.01209
2184.52124 0.01101
2183.23547 0.01062
2181.94970 0.01093
2180.66393 0.01141
2179.37816 0.01128
2178.09239 0.01012
2176.80662 0.00822
2175.52085 0.00639
2174.23509 0.00536
2172.94932 0.00528
2171.66355 0.00602
2170.37778 0.00739
2169.09201 0.00908
2167.80624 0.01041
2166.52047 0.01074
2165.23470 0.00998
2163.94894 0.00862
2162.66317 0.00714
2161.37740 0.00558
2160.09163 0.00387
2158.80586 0.00232
2157.52009 0.00149
2156.23432 0.00143
2154.94855 0.00167
2153.66278 0.00186
2152.37702 0.00217
2151.09125 0.00300
2149.80548 0.00440
2148.51971 0.00598
2147.23394 0.00723
2145.94817 0.00787
2144.66240 0.00787
2143.37663 0.00739
2142.09087 0.00671
2140.80510 0.00617
2139.51933 0.00597
2138.23356 0.00605
2136.94779 0.00615
2135.66202 0.00616
2134.37625 0.00622
2133.09048 0.00651
2131.80471 0.00705
2130.51895 0.00767
2129.23318 0.00819
2127.94741 0.00852
2126.66164 0.00881
2125.37587 0.00921
2124.09010 0.00972
2122.80433 0.01013
2121.51856 0.01029
2120.23280 0.01035
2118.94703 0.01062
2117.66126 0.01121
2116.37549 0.01186
2115.08972 0.01220
2113.80395 0.01214
2112.51818 0.01190
2111.23241 0.01177
2109.94664 0.01186
2108.66088 0.01204
2107.37511 0.01219
2106.08934 0.01217
2104.80357 0.01195
2103.51780 0.01159
2102.23203 0.01122
2100.94626 0.01091
2099.66049 0.01186
2098.37473 0.01237
2097.08896 0.01195
2095.80319 0.01118
2094.51742 0.01040
2093.23165 0.00984
2091.94588 0.00968
2090.66011 0.00987
2089.37434 0.01011
2088.08857 0.01010
2086.80281 0.00978
2085.51704 0.00941
2084.23127 0.00924
2082.94550 0.00933
2081.65973 0.00957
2080.37396 0.00986
2079.08819 0.01010
2077.80242 0.01021
2076.51666 0.01021
2075.23089 0.01024
2073.94512 0.01038
2072.65935 0.01056
2071.37358 0.01053
2070.08781 0.01020
2068.80204 0.00968
2067.51627 0.00917
2066.23050 0.00876
2064.94474 0.00836
2063.65897 0.00792
2062.37320 0.00749
2061.08743 0.00721
2059.80166 0.00712
2058.51589 0.00706
2057.23012 0.00677
2055.94435 0.00609
2054.65859 0.00527
2053.37282 0.00492
2052.08705 0.00557
2050.80128 0.00708
2049.51551 0.00873
2048.22974 0.00972
2046.94397 0.00978
2045.65820 0.00918
2044.37243 0.00835
2043.08667 0.00765
2041.80090 0.00727
2040.51513 0.00730
2039.22936 0.00772
2037.94359 0.00839
2036.65782 0.00899
2035.37205 0.00914
2034.08628 0.00859
2032.80052 0.00744
2031.51475 0.00615
2030.22898 0.00512
2028.94321 0.00446
2027.65744 0.00404
2026.37167 0.00384
2025.08590 0.00396
2023.80013 0.00444
2022.51436 0.00506
2021.22860 0.00540
2019.94283 0.00506
2018.65706 0.00406
2017.37129 0.00306
2016.08552 0.00297
2014.79975 0.00417
2013.51398 0.00619
2012.22821 0.00815
2010.94245 0.00933
2009.65668 0.00945
2008.37091 0.00862
2007.08514 0.00734
2005.79937 0.00625
2004.51360 0.00565
2003.22783 0.00530
2001.94206 0.00476
2000.65629 0.00404
1999.37053 0.00362
1998.08476 0.00384
1996.79899 0.00450
1995.51322 0.00523
1994.22745 0.00601
1992.94168 0.00701
1991.65591 0.00814
1990.37014 0.00908
1989.08438 0.00963
1987.79861 0.00992
1986.51284 0.01014
1985.22707 0.01037
1983.94130 0.01062
1982.65553 0.01093
1981.36976 0.01140
1980.08399 0.01219
1978.79822 0.01332
1977.51246 0.01448
1976.22669 0.01511
1974.94092 0.01481
1973.65515 0.01374
1972.36938 0.01252
1971.08361 0.01181
1969.79784 0.01181
1968.51207 0.01210
1967.22631 0.01203
1965.94054 0.01140
1964.65477 0.01069
1963.36900 0.01048
1962.08323 0.01075
1960.79746 0.01102
1959.51169 0.01086
1958.22592 0.01032
1956.94015 0.00958
1955.65439 0.00885
1954.36862 0.00835
1953.08285 0.00830
1951.79708 0.00874
1950.51131 0.00941
1949.22554 0.01000
1947.93977 0.01033
1946.65400 0.01053
1945.36823 0.01080
1944.08247 0.01118
1942.79670 0.01152
1941.51093 0.01167
1940.22516 0.01173
1938.93939 0.01190
1937.65362 0.01218
1936.36785 0.01241
1935.08208 0.01242
1933.79632 0.01224
1932.51055 0.01209
1931.22478 0.01213
1929.93901 0.01235
1928.65324 0.01263
1927.36747 0.01282
1926.08170 0.01280
1924.79593 0.01256
1923.51016 0.01231
1922.22440 0.01232
1920.93863 0.01261
1919.65286 0.01288
1918.36709 0.01280
1917.08132 0.01243
1915.79555 0.01212
1914.50978 0.01217
1913.22401 0.01258
1911.93825 0.01310
1910.65248 0.01348
1909.36671 0.01356
1908.08094 0.01328
1906.79517 0.01272
1905.50940 0.01207
1904.22363 0.01158
1902.93786 0.01142
1901.65209 0.01155
1900.36633 0.01186
1899.08056 0.01222
1897.79479 0.01251
1896.50902 0.01274
1895.22325 0.01295
1893.93748 0.01320
1892.65171 0.01342
1891.36594 0.01351
1890.08018 0.01342
1888.79441 0.01327
1887.50864 0.01320
1886.22287 0.01323
1884.93710 0.01322
1883.65133 0.01310
1882.36556 0.01293
1881.07979 0.01283
1879.79402 0.01279
1878.50826 0.01279
1877.22249 0.01279
1875.93672 0.01278
1874.65095 0.01273
1873.36518 0.01261
1872.07941 0.01248
1870.79364 0.01242
1869.50787 0.01245
1868.22211 0.01253
1866.93634 0.01259
1865.65057 0.01258
1864.36480 0.01247
1863.07903 0.01225
1861.79326 0.01201
1860.50749 0.01185
1859.22172 0.01180
1857.93595 0.01185
1856.65019 0.01198
1855.36442 0.01220
1854.07865 0.01249
1852.79288 0.01276
1851.50711 0.01293
1850.22134 0.01297
1848.93557 0.01299
1847.64980 0.01306
1846.36404 0.01320
1845.07827 0.01329
1843.79250 0.01324
1842.50673 0.01309
1841.22096 0.01302
1839.93519 0.01317
1838.64942 0.01348
1837.36365 0.01374
1836.07788 0.01378
1834.79212 0.01359
1833.50635 0.01333
1832.22058 0.01314
1830.93481 0.01308
1829.64904 0.01317
1828.36327 0.01339
1827.07750 0.01371
1825.79173 0.01403
1824.50597 0.01424
1823.22020 0.01429
1821.93443 0.01422
1820.64866 0.01409
1819.36289 0.01392
1818.07712 0.01368
1816.79135 0.01337
1815.50558 0.01303
1814.21981 0.01276
1812.93405 0.01261
1811.64828 0.01257
1810.36251 0.01259
1809.07674 0.01263
1807.79097 0.01269
1806.50520 0.01282
1805.21943 0.01306
1803.93366 0.01337
1802.64790 0.01362
1801.36213 0.01373
1800.07636 0.01370
1798.79059 0.01361
1797.50482 0.01356
1796.21905 0.01360
1794.93328 0.01375
1793.64751 0.01396
1792.36174 0.01416
1791.07598 0.01436
1789.79021 0.01456
1788.50444 0.01475
1787.21867 0.01485
1785.93290 0.01481
1784.64713 0.01465
1783.36136 0.01448
1782.07559 0.01440
1780.78983 0.01445
1779.50406 0.01458
1778.21829 0.01470
1776.93252 0.01475
1775.64675 0.01475
1774.36098 0.01473
1773.07521 0.01471
1771.78944 0.01469
1770.50367 0.01470
1769.21791 0.01473
1767.93214 0.01476
1766.64637 0.01479
1765.36060 0.01487
1764.07483 0.01505
1762.78906 0.01530
1761.50329 0.01554
1760.21752 0.01571
1758.93176 0.01582
1757.64599 0.01590
1756.36022 0.01593
1755.07445 0.01592
1753.78868 0.01593
1752.50291 0.01600
1751.21714 0.01610
1749.93137 0.01614
1748.64560 0.01605
1747.35984 0.01589
1746.07407 0.01576
1744.78830 0.01575
1743.50253 0.01591
1742.21676 0.01618
1740.93099 0.01646
1739.64522 0.01671
1738.35945 0.01693
1737.07369 0.01716
1735.78792 0.01736
1734.50215 0.01748
1733.21638 0.01746
1731.93061 0.01733
1730.64484 0.01720
1729.35907 0.01713
1728.07330 0.01718
1726.78753 0.01733
1725.50177 0.01757
1724.21600 0.01789
1722.93023 0.01829
1721.64446 0.01878
1720.35869 0.01933
1719.07292 0.01984
1717.78715 0.02016
1716.50138 0.02024
1715.21561 0.02019
1713.92985 0.02018
1712.64408 0.02035
1711.35831 0.02070
1710.07254 0.02118
1708.78677 0.02170
1707.50100 0.02214
1706.21523 0.02247
1704.92946 0.02271
1703.64370 0.02298
1702.35793 0.02334
1701.07216 0.02375
1699.78639 0.02410
1698.50062 0.02439
1697.21485 0.02465
1695.92908 0.02488
1694.64331 0.02499
1693.35754 0.02504
1692.07178 0.02512
1690.78601 0.02533
1689.50024 0.02565
1688.21447 0.02606
1686.92870 0.02653
1685.64293 0.02696
1684.35716 0.02723
1683.07139 0.02733
1681.78563 0.02736
1680.49986 0.02746
1679.21409 0.02770
1677.92832 0.02806
1676.64255 0.02848
1675.35678 0.02888
1674.07101 0.02923
1672.78524 0.02956
1671.49947 0.02991
1670.21371 0.03030
1668.92794 0.03065
1667.64217 0.03098
1666.35640 0.03133
1665.07063 0.03175
1663.78486 0.03220
1662.49909 0.03259
1661.21332 0.03286
1659.92756 0.03306
1658.64179 0.03333
1657.35602 0.03380
1656.07025 0.03454
1654.78448 0.03538
1653.49871 0.03604
1652.21294 0.03634
1650.92717 0.03638
1649.64140 0.03644
1648.35564 0.03670
1647.06987 0.03707
1645.78410 0.03739
1644.49833 0.03761
1643.21256 0.03779
1641.92679 0.03802
1640.64102 0.03835
1639.35525 0.03881
1638.06949 0.03938
1636.78372 0.03998
1635.49795 0.04048
1634.21218 0.04084
1632.92641 0.04116
1631.64064 0.04159
1630.35487 0.04217
1629.06910 0.04285
1627.78333 0.04357
1626.49757 0.04431
1625.21180 0.04505
1623.92603 0.04576
1622.64026 0.04642
1621.35449 0.04710
1620.06872 0.04788
1618.78295 0.04882
1617.49718 0.04981
1616.21142 0.05070
1614.92565 0.05146
1613.63988 0.05214
1612.35411 0.05283
1611.06834 0.05359
1609.78257 0.05438
1608.49680 0.05517
1607.21103 0.05592
1605.92526 0.05663
1604.63950 0.05733
1603.35373 0.05803
1602.06796 0.05871
1600.78219 0.05935
1599.49642 0.05994
1598.21065 0.06049
1596.92488 0.06103
1595.63911 0.06156
1594.35335 0.06203
1593.06758 0.06240
1591.78181 0.06266
1590.49604 0.06284
1589.21027 0.06298
1587.92450 0.06311
1586.63873 0.06321
1585.35296 0.06326
1584.06719 0.06323
1582.78143 0.06317
1581.49566 0.06315
1580.20989 0.06323
1578.92412 0.06342
1577.63835 0.06361
1576.35258 0.06369
1575.06681 0.06361
1573.78104 0.06344
1572.49528 0.06328
1571.20951 0.06315
1569.92374 0.06297
1568.63797 0.06270
1567.35220 0.06239
1566.06643 0.06210
1564.78066 0.06187
1563.49489 0.06173
1562.20912 0.06171
1560.92336 0.06174
1559.63759 0.06166
1558.35182 0.06135
1557.06605 0.06084
1555.78028 0.06028
1554.49451 0.05977
1553.20874 0.05932
1551.92297 0.05890
1550.63721 0.05850
1549.35144 0.05810
1548.06567 0.05770
1546.77990 0.05731
1545.49413 0.05692
1544.20836 0.05654
1542.92259 0.05616
1541.63682 0.05574
1540.35105 0.05521
1539.06529 0.05455
1537.77952 0.05383
1536.49375 0.05322
1535.20798 0.05281
1533.92221 0.05257
1532.63644 0.05245
1531.35067 0.05242
1530.06490 0.05253
1528.77914 0.05278
1527.49337 0.05315
1526.20760 0.05364
1524.92183 0.05424
1523.63606 0.05498
1522.35029 0.05582
1521.06452 0.05669
1519.77875 0.05757
1518.49298 0.05851
1517.20722 0.05955
1515.92145 0.06070
1514.63568 0.06197
1513.34991 0.06338
1512.06414 0.06496
1510.77837 0.06670
1509.49260 0.06853
1508.20683 0.07033
1506.92107 0.07197
1505.63530 0.07339
1504.34953 0.07466
1503.06376 0.07590
1501.77799 0.07718
1500.49222 0.07847
1499.20645 0.07969
1497.92068 0.08080
1496.63491 0.08179
1495.34915 0.08273
1494.06338 0.08366
1492.77761 0.08465
1491.49184 0.08572
1490.20607 0.08687
1488.92030 0.08811
1487.63453 0.08941
1486.34876 0.09075
1485.06299 0.09213
1483.77723 0.09352
1482.49146 0.09495
1481.20569 0.09642
1479.91992 0.09796
1478.63415 0.09956
1477.34838 0.10117
1476.06261 0.10273
1474.77684 0.10414
1473.49108 0.10534
1472.20531 0.10631
1470.91954 0.10704
1469.63377 0.10759
1468.34800 0.10803
1467.06223 0.10841
1465.77646 0.10879
1464.49069 0.10920
1463.20492 0.10968
1461.91916 0.11026
1460.63339 0.11097
1459.34762 0.11182
1458.06185 0.11271
1456.77608 0.11353
1455.49031 0.11422
1454.20454 0.11479
1452.91877 0.11530
1451.63301 0.11578
1450.34724 0.11620
1449.06147 0.11650
1447.77570 0.11661
1446.48993 0.11655
1445.20416 0.11632
1443.91839 0.11599
1442.63262 0.11558
1441.34685 0.11514
1440.06109 0.11477
1438.77532 0.11450
1437.48955 0.11436
1436.20378 0.11436
1434.91801 0.11456
1433.63224 0.11507
1432.34647 0.11597
1431.06070 0.11720
1429.77494 0.11865
1428.48917 0.12025
1427.20340 0.12198
1425.91763 0.12388
1424.63186 0.12591
1423.34609 0.12797
1422.06032 0.12994
1420.77455 0.13173
1419.48878 0.13328
1418.20302 0.13455
1416.91725 0.13553
1415.63148 0.13626
1414.34571 0.13675
1413.05994 0.13697
1411.77417 0.13689
1410.48840 0.13647
1409.20263 0.13574
1407.91687 0.13471
1406.63110 0.13337
1405.34533 0.13172
1404.05956 0.12979
1402.77379 0.12763
1401.48802 0.12528
1400.20225 0.12281
1398.91648 0.12026
1397.63071 0.11766
1396.34495 0.11503
1395.05918 0.11232
1393.77341 0.10954
1392.48764 0.10670
1391.20187 0.10389
1389.91610 0.10118
1388.63033 0.09859
1387.34456 0.09609
1386.05880 0.09362
1384.77303 0.09115
1383.48726 0.08864
1382.20149 0.08611
1380.91572 0.08357
1379.62995 0.08106
1378.34418 0.07861
1377.05841 0.07618
1375.77264 0.07373
1374.48688 0.07125
1373.20111 0.06877
1371.91534 0.06637
1370.62957 0.06413
1369.34380 0.06206
1368.05803 0.06015
1366.77226 0.05838
1365.48649 0.05672
1364.20073 0.05515
1362.91496 0.05364
1361.62919 0.05216
1360.34342 0.05074
1359.05765 0.04942
1357.77188 0.04823
1356.48611 0.04717
1355.20034 0.04618
1353.91457 0.04518
1352.62881 0.04418
1351.34304 0.04320
1350.05727 0.04227
1348.77150 0.04136
1347.48573 0.04044
1346.19996 0.03953
1344.91419 0.03866
1343.62842 0.03789
1342.34266 0.03720
1341.05689 0.03652
1339.77112 0.03582
1338.48535 0.03509
1337.19958 0.03438
1335.91381 0.03374
1334.62804 0.03317
1333.34227 0.03264
1332.05650 0.03215
1330.77074 0.03169
1329.48497 0.03126
1328.19920 0.03082
1326.91343 0.03037
1325.62766 0.02991
1324.34189 0.02949
1323.05612 0.02913
1321.77035 0.02881
1320.48459 0.02851
1319.19882 0.02820
1317.91305 0.02789
1316.62728 0.02759
1315.34151 0.02733
1314.05574 0.02708
1312.76997 0.02685
1311.48420 0.02661
1310.19843 0.02637
1308.91267 0.02614
1307.62690 0.02590
1306.34113 0.02565
1305.05536 0.02539
1303.76959 0.02513
1302.48382 0.02488
1301.19805 0.02465
1299.91228 0.02444
1298.62652 0.02423
1297.34075 0.02402
1296.05498 0.02379
1294.76921 0.02355
1293.48344 0.02334
1292.19767 0.02318
1290.91190 0.02307
1289.62613 0.02298
1288.34036 0.02285
1287.05460 0.02267
1285.76883 0.02245
1284.48306 0.02226
1283.19729 0.02210
1281.91152 0.02197
1280.62575 0.02183
1279.33998 0.02166
1278.05421 0.02149
1276.76845 0.02133
1275.48268 0.02117
1274.19691 0.02102
1272.91114 0.02090
1271.62537 0.02082
1270.33960 0.02078
1269.05383 0.02075
1267.76806 0.02074
1266.48229 0.02075
1265.19653 0.02075
1263.91076 0.02071
1262.62499 0.02064
1261.33922 0.02055
1260.05345 0.02047
1258.76768 0.02040
1257.48191 0.02031
1256.19614 0.02021
1254.91037 0.02010
1253.62461 0.02001
1252.33884 0.01996
1251.05307 0.01994
1249.76730 0.01993
1248.48153 0.01989
1247.19576 0.01984
1245.90999 0.01978
1244.62422 0.01975
1243.33846 0.01974
1242.05269 0.01973
1240.76692 0.01972
1239.48115 0.01969
1238.19538 0.01967
1236.90961 0.01967
1235.62384 0.01969
1234.33807 0.01974
1233.05230 0.01978
1231.76654 0.01983
1230.48077 0.01985
1229.19500 0.01984
1227.90923 0.01981
1226.62346 0.01981
1225.33769 0.01986
1224.05192 0.01995
1222.76615 0.02002
1221.48039 0.02004
1220.19462 0.02002
1218.90885 0.02002
1217.62308 0.02007
1216.33731 0.02015
1215.05154 0.02025
1213.76577 0.02034
1212.48000 0.02042
1211.19423 0.02051
1209.90847 0.02062
1208.62270 0.02079
1207.33693 0.02101
1206.05116 0.02126
1204.76539 0.02153
1203.47962 0.02176
1202.19385 0.02187
1200.90808 0.02180
1199.62232 0.02185
1198.33655 0.02197
1197.05078 0.02211
1195.76501 0.02224
1194.47924 0.02236
1193.19347 0.02249
1191.90770 0.02262
1190.62193 0.02275
1189.33616 0.02283
1188.05040 0.02291
1186.76463 0.02304
1185.47886 0.02319
1184.19309 0.02333
1182.90732 0.02341
1181.62155 0.02347
1180.33578 0.02356
1179.05001 0.02367
1177.76425 0.02379
1176.47848 0.02391
1175.19271 0.02407
1173.90694 0.02426
1172.62117 0.02445
1171.33540 0.02462
1170.04963 0.02481
1168.76386 0.02501
1167.47809 0.02524
1166.19233 0.02547
1164.90656 0.02570
1163.62079 0.02596
1162.33502 0.02625
1161.04925 0.02655
1159.76348 0.02685
1158.47771 0.02719
1157.19194 0.02763
1155.90618 0.02820
1154.62041 0.02883
1153.33464 0.02944
1152.04887 0.02999
1150.76310 0.03052
1149.47733 0.03105
1148.19156 0.03164
1146.90579 0.03228
1145.62002 0.03300
1144.33426 0.03383
1143.04849 0.03480
1141.76272 0.03590
1140.47695 0.03711
1139.19118 0.03842
1137.90541 0.03987
1136.61964 0.04152
1135.33387 0.04337
1134.04811 0.04536
1132.76234 0.04745
1131.47657 0.04967
1130.19080 0.05211
1128.90503 0.05487
1127.61926 0.05800
1126.33349 0.06146
1125.04772 0.06515
1123.76195 0.06897
1122.47619 0.07286
1121.19042 0.07681
1119.90465 0.08088
1118.61888 0.08510
1117.33311 0.08946
1116.04734 0.09387
1114.76157 0.09823
1113.47580 0.10250
1112.19004 0.10667
1110.90427 0.11073
1109.61850 0.11471
1108.33273 0.11864
1107.04696 0.12255
1105.76119 0.12641
1104.47542 0.13019
1103.18965 0.13389
1101.90388 0.13747
1100.61812 0.14093
1099.33235 0.14437
1098.04658 0.14788
1096.76081 0.15146
1095.47504 0.15496
1094.18927 0.15823
1092.90350 0.16123
1091.61773 0.16399
1090.33197 0.16656
1089.04620 0.16897
1087.76043 0.17132
1086.47466 0.17371
1085.18889 0.17620
1083.90312 0.17877
1082.61735 0.18143
1081.33158 0.18420
1080.04581 0.18716
1078.76005 0.19038
1077.47428 0.19388
1076.18851 0.19763
1074.90274 0.20155
1073.61697 0.20558
1072.33120 0.20972
1071.04543 0.21397
1069.75966 0.21832
1068.47390 0.22279
1067.18813 0.22738
1065.90236 0.23216
1064.61659 0.23713
1063.33082 0.24224
1062.04505 0.24740
1060.75928 0.25253
1059.47351 0.25758
1058.18774 0.26252
1056.90198 0.26740
1055.61621 0.27227
1054.33044 0.27720
1053.04467 0.28220
1051.75890 0.28724
1050.47313 0.29233
1049.18736 0.29746
1047.90159 0.30267
1046.61583 0.30795
1045.33006 0.31339
1044.04429 0.31908
1042.75852 0.32498
1041.47275 0.33095
1040.18698 0.33688
1038.90121 0.34281
1037.61544 0.34884
1036.32967 0.35499
1035.04391 0.36119
1033.75814 0.36732
1032.47237 0.37321
1031.18660 0.37874
1029.90083 0.38387
1028.61506 0.38862
1027.32929 0.39297
1026.04352 0.39685
1024.75775 0.40015
1023.47199 0.40280
1022.18622 0.40481
1020.90045 0.40617
1019.61468 0.40682
1018.32891 0.40666
1017.04314 0.40562
1015.75737 0.40369
1014.47160 0.40084
1013.18584 0.39700
1011.90007 0.39210
1010.61430 0.38611
1009.32853 0.37914
1008.04276 0.37135
1006.75699 0.36287
1005.47122 0.35371
1004.18545 0.34382
1002.89968 0.33320
1001.61392 0.32201
1000.32815 0.31047
999.04238 0.29874
997.75661 0.28689
996.47084 0.27495
995.18507 0.26300
993.89930 0.25115
992.61353 0.23954
991.32777 0.22828
990.04200 0.21748
988.75623 0.20719
987.47046 0.19744
986.18469 0.18817
984.89892 0.17939
983.61315 0.17109
982.32738 0.16332
981.04161 0.15608
979.75585 0.14932
978.47008 0.14302
977.18431 0.13725
975.89854 0.13211
974.61277 0.12771
973.32700 0.12415
972.04123 0.12149
970.75546 0.11977
969.46970 0.11899
968.18393 0.11906
966.89816 0.11990
965.61239 0.12133
964.32662 0.12305
963.04085 0.12462
961.75508 0.12562
960.46931 0.12577
959.18354 0.12489
957.89778 0.12295
956.61201 0.12005
955.32624 0.11649
954.04047 0.11262
952.75470 0.10873
951.46893 0.10496
950.18316 0.10133
948.89739 0.09779
947.61163 0.09433
946.32586 0.09096
945.04009 0.08772
943.75432 0.08461
942.46855 0.08163
941.18278 0.07876
939.89701 0.07599
938.61124 0.07335
937.32547 0.07087
936.03971 0.06861
934.75394 0.06657
933.46817 0.06474
932.18240 0.06307
930.89663 0.06151
929.61086 0.06006
928.32509 0.05878
927.03932 0.05762
925.75356 0.05652
924.46779 0.05543
923.18202 0.05436
921.89625 0.05332
920.61048 0.05235
919.32471 0.05143
918.03894 0.05060
916.75317 0.04988
915.46740 0.04929
914.18164 0.04881
912.89587 0.04839
911.61010 0.04796
910.32433 0.04746
909.03856 0.04687
907.75279 0.04623
906.46702 0.04561
905.18125 0.04508
903.89549 0.04465
902.60972 0.04430
901.32395 0.04394
900.03818 0.04350
898.75241 0.04301
897.46664 0.04259
896.18087 0.04236
894.89510 0.04228
893.60933 0.04224
892.32357 0.04219
891.03780 0.04219
889.75203 0.04239
888.46626 0.04296
887.18049 0.04406
885.89472 0.04590
884.60895 0.04866
883.32318 0.05241
882.03742 0.05679
880.75165 0.06110
879.46588 0.06459
878.18011 0.06707
876.89434 0.06903
875.60857 0.07107
874.32280 0.07335
873.03703 0.07537
871.75126 0.07641
870.46550 0.07610
869.17973 0.07442
867.89396 0.07162
866.60819 0.06800
865.32242 0.06399
864.03665 0.06002
862.75088 0.05641
861.46511 0.05324
860.17935 0.05048
858.89358 0.04812
857.60781 0.04620
856.32204 0.04471
855.03627 0.04354
853.75050 0.04258
852.46473 0.04177
851.17896 0.04111
849.89319 0.04057
848.60743 0.04011
847.32166 0.03971
846.03589 0.03932
844.75012 0.03892
843.46435 0.03853
842.17858 0.03820
840.89281 0.03795
839.60704 0.03779
838.32128 0.03763
837.03551 0.03740
835.74974 0.03708
834.46397 0.03671
833.17820 0.03639
831.89243 0.03615
830.60666 0.03602
829.32089 0.03599
828.03512 0.03602
826.74936 0.03606
825.46359 0.03603
824.17782 0.03592
822.89205 0.03580
821.60628 0.03573
820.32051 0.03567
819.03474 0.03559
817.74897 0.03545
816.46321 0.03530
815.17744 0.03518
813.89167 0.03514
812.60590 0.03517
811.32013 0.03522
810.03436 0.03518
808.74859 0.03502
807.46282 0.03478
806.17705 0.03457
804.89129 0.03445
803.60552 0.03443
802.31975 0.03452
801.03398 0.03470
799.74821 0.03489
798.46244 0.03501
797.17667 0.03499
795.89090 0.03485
794.60513 0.03469
793.31937 0.03459
792.03360 0.03457
790.74783 0.03461
789.46206 0.03464
788.17629 0.03465
786.89052 0.03467
785.60475 0.03468
784.31898 0.03466
783.03322 0.03458
781.74745 0.03444
780.46168 0.03430
779.17591 0.03423
777.89014 0.03423
776.60437 0.03426
775.31860 0.03431
774.03283 0.03435
772.74706 0.03442
771.46130 0.03450
770.17553 0.03457
768.88976 0.03461
767.60399 0.03460
766.31822 0.03460
765.03245 0.03467
763.74668 0.03481
762.46091 0.03493
761.17515 0.03495
759.88938 0.03487
758.60361 0.03479
757.31784 0.03478
756.03207 0.03481
754.74630 0.03484
753.46053 0.03485
752.17476 0.03480
750.88899 0.03467
749.60323 0.03451
748.31746 0.03440
747.03169 0.03436
745.74592 0.03432
744.46015 0.03420
743.17438 0.03401
741.88861 0.03380
740.60284 0.03361
739.31708 0.03348
738.03131 0.03342
736.74554 0.03341
735.45977 0.03343
734.17400 0.03348
732.88823 0.03353
731.60246 0.03360
730.31669 0.03368
729.03092 0.03378
727.74516 0.03386
726.45939 0.03385
725.17362 0.03376
723.88785 0.03390
722.60208 0.03374
721.31631 0.03377
720.03054 0.03400
718.74477 0.03425
717.45901 0.03439
716.17324 0.03437
714.88747 0.03423
713.60170 0.03406
712.31593 0.03394
711.03016 0.03387
709.74439 0.03378
708.45862 0.03366
707.17285 0.03355
705.88709 0.03350
704.60132 0.03354
703.31555 0.03361
702.02978 0.03366
700.74401 0.03366
699.45824 0.03364
698.17247 0.03364
696.88670 0.03367
695.60094 0.03373
694.31517 0.03379
693.02940 0.03385
691.74363 0.03391
690.45786 0.03398
689.17209 0.03401
687.88632 0.03403
686.60055 0.03401
685.31478 0.03394
684.02902 0.03380
682.74325 0.03359
681.45748 0.03336
680.17171 0.03323
678.88594 0.03322
677.60017 0.03332
676.31440 0.03348
675.02863 0.03370
673.74287 0.03398
672.45710 0.03435
671.17133 0.03477
669.88556 0.03516
668.59979 0.03544
667.31402 0.03556
666.02825 0.03549
664.74248 0.03527
663.45671 0.03499
662.17095 0.03473
660.88518 0.03456
659.59941 0.03448
658.31364 0.03446
657.02787 0.03447
655.74210 0.03449
654.45633 0.03451
653.17056 0.03452
651.88480 0.03452
650.59903 0.03448
649.31326 0.03445
648.02749 0.03451
646.74172 0.03465
645.45595 0.03485
644.17018 0.03505
642.88441 0.03522
641.59864 0.03538
640.31288 0.03560
639.02711 0.03594
637.74134 0.03641
636.45557 0.03693
635.16980 0.03750
633.88403 0.03811
632.59826 0.03866
631.31249 0.03869
630.02673 0.03874
628.74096 0.04123
627.45519 0.04329
626.16942 0.04780
624.88365 0.05400
623.59788 0.06009
622.31211 0.06524
621.02634 0.06934
619.74057 0.07245
618.45481 0.07456
617.16904 0.07584
615.88327 0.07706
614.59750 0.07944
613.31173 0.08403
612.02596 0.09091
610.74019 0.09914
609.45442 0.10765
608.16866 0.11613
606.88289 0.12470
605.59712 0.13282
604.31135 0.13908
603.02558 0.14212
601.73981 0.14166
600.45404 0.13858
599.16827 0.13412
597.88250 0.12914
596.59674 0.12412
595.31097 0.11930
594.02520 0.11490
592.73943 0.11118
591.45366 0.10842
590.16789 0.10677
588.88212 0.10617
587.59635 0.10649
586.31059 0.10766
585.02482 0.10967
583.73905 0.11249
582.45328 0.11599
581.16751 0.11994
579.88174 0.12410
578.59597 0.12826
577.31020 0.13233
576.02443 0.13629
574.73867 0.14015
573.45290 0.14396
572.16713 0.14791
570.88136 0.15224
569.59559 0.15716
568.30982 0.16266
567.02405 0.16849
565.73828 0.17419
564.45251 0.17912
563.16675 0.18256
561.88098 0.18389
560.59521 0.18269
559.30944 0.17886
558.02367 0.17258
556.73790 0.16426
555.45213 0.15457
554.16636 0.14429
552.88060 0.13416
551.59483 0.12465
550.30906 0.11590
549.02329 0.10793
547.73752 0.10075
546.45175 0.09444
545.16598 0.08907
543.88021 0.08462
542.59444 0.08090
541.30868 0.07763
540.02291 0.07449
538.73714 0.07134
537.45137 0.06830
536.16560 0.06557
534.87983 0.06328
533.59406 0.06135
532.30829 0.05958
531.02253 0.05782
529.73676 0.05601
528.45099 0.05421
527.16522 0.05251
525.87945 0.05099
524.59368 0.04972
523.30791 0.04866
522.02214 0.04775
520.73637 0.04686
519.45061 0.04593
518.16484 0.04494
516.87907 0.04391
515.59330 0.04290
514.30753 0.04198
513.02176 0.04118
511.73599 0.04049
510.45022 0.03988
509.16446 0.03934
507.87869 0.03885
506.59292 0.03839
505.30715 0.03796
504.02138 0.03755
502.73561 0.03716
501.44984 0.03674
500.16407 0.03630
498.87830 0.03587
497.59254 0.03544
496.30677 0.03497
495.02100 0.03448
493.73523 0.03406
492.44946 0.03381
491.16369 0.03374
489.87792 0.03380
488.59215 0.03385
487.30639 0.03386
486.02062 0.03384
484.73485 0.03385
483.44908 0.03387
482.16331 0.03389
480.87754 0.03391
479.59177 0.03399
478.30600 0.03417
477.02023 0.03445
475.73447 0.03478
474.44870 0.03508
473.16293 0.03535
471.87716 0.03558
470.59139 0.03575
469.30562 0.03582
468.01985 0.03575
466.73408 0.03554
465.44832 0.03522
464.16255 0.03482
462.87678 0.03437
461.59101 0.03390
460.30524 0.03344
459.01947 0.03304
457.73370 0.03270
456.44793 0.03240
455.16216 0.03207
453.87640 0.03170
452.59063 0.03129
451.30486 0.03087
450.01909 0.03044
448.73332 0.03001
447.44755 0.02964
446.16178 0.02939
444.87601 0.02926
443.59025 0.02918
442.30448 0.02907
441.01871 0.02893
439.73294 0.02877
438.44717 0.02860
437.16140 0.02842
435.87563 0.02824
434.58986 0.02808
433.30409 0.02794
432.01833 0.02780
430.73256 0.02764
429.44679 0.02743
428.16102 0.02717
426.87525 0.02689
425.58948 0.02663
424.30371 0.02639
423.01794 0.02621
421.73218 0.02610
420.44641 0.02605
419.16064 0.02602
417.87487 0.02592
416.58910 0.02572
415.30333 0.02547
414.01756 0.02522
412.73179 0.02504
411.44602 0.02493
410.16026 0.02489
408.87449 0.02489
407.58872 0.02494
406.30295 0.02502
405.01718 0.02513
403.73141 0.02525
402.44564 0.02536
401.15987 0.02547
399.87411 0.02558
