3997.45528	0.03027
3996.16951	0.03004
3994.88374	0.02948
3993.59798	0.02853
3992.31221	0.02738
3991.02644	0.02641
3989.74067	0.02603
3988.45490	0.02644
3987.16913	0.02736
3985.88336	0.02821
3984.59759	0.02859
3983.31183	0.02859
3982.02606	0.02849
3980.74029	0.02837
3979.45452	0.02812
3978.16875	0.02778
3976.88298	0.02768
3975.59721	0.02811
3974.31144	0.02889
3973.02567	0.02946
3971.73991	0.02933
3970.45414	0.02853
3969.16837	0.02759
3967.88260	0.02716
3966.59683	0.02744
3965.31106	0.02808
3964.02529	0.02846
3962.73952	0.02824
3961.45376	0.02765
3960.16799	0.02711
3958.88222	0.02688
3957.59645	0.02686
3956.31068	0.02688
3955.02491	0.02692
3953.73914	0.02706
3952.45337	0.02733
3951.16760	0.02763
3949.88184	0.02794
3948.59607	0.02832
3947.31030	0.02884
3946.02453	0.02938
3944.73876	0.02969
3943.45299	0.02962
3942.16722	0.02938
3940.88145	0.02927
3939.59569	0.02938
3938.30992	0.02954
3937.02415	0.02953
3935.73838	0.02929
3934.45261	0.02883
3933.16684	0.02818
3931.88107	0.02744
3930.59530	0.02680
3929.30953	0.02642
3928.02377	0.02639
3926.73800	0.02672
3925.45223	0.02740
3924.16646	0.02836
3922.88069	0.02929
3921.59492	0.02981
3920.30915	0.02968
3919.02338	0.02903
3917.73762	0.02817
3916.45185	0.02743
3915.16608	0.02703
3913.88031	0.02711
3912.59454	0.02763
3911.30877	0.02834
3910.02300	0.02892
3908.73723	0.02924
3907.45146	0.02945
3906.16570	0.02978
3904.87993	0.03018
3903.59416	0.03028
3902.30839	0.02970
3901.02262	0.02850
3899.73685	0.02721
3898.45108	0.02637
3897.16531	0.02614
3895.87955	0.02626
3894.59378	0.02639
3893.30801	0.02642
3892.02224	0.02648
3890.73647	0.02674
3889.45070	0.02724
3888.16493	0.02779
3886.87916	0.02815
3885.59339	0.02811
3884.30763	0.02755
3883.02186	0.02662
3881.73609	0.02576
3880.45032	0.02547
3879.16455	0.02587
3877.87878	0.02665
3876.59301	0.02735
3875.30724	0.02767
3874.02148	0.02748
3872.73571	0.02691
3871.44994	0.02639
3870.16417	0.02639
3868.87840	0.02694
3867.59263	0.02749
3866.30686	0.02761
3865.02109	0.02752
3863.73532	0.02764
3862.44956	0.02795
3861.16379	0.02822
3859.87802	0.02830
3858.59225	0.02819
3857.30648	0.02778
3856.02071	0.02700
3854.73494	0.02615
3853.44917	0.02572
3852.16341	0.02583
3850.87764	0.02608
3849.59187	0.02605
3848.30610	0.02572
3847.02033	0.02544
3845.73456	0.02563
3844.44879	0.02641
3843.16302	0.02736
3841.87725	0.02777
3840.59149	0.02713
3839.30572	0.02569
3838.01995	0.02431
3836.73418	0.02374
3835.44841	0.02416
3834.16264	0.02520
3832.87687	0.02649
3831.59110	0.02771
3830.30534	0.02858
3829.01957	0.02882
3827.73380	0.02840
3826.44803	0.02760
3825.16226	0.02688
3823.87649	0.02645
3822.59072	0.02631
3821.30495	0.02639
3820.01918	0.02650
3818.73342	0.02633
3817.44765	0.02580
3816.16188	0.02528
3814.87611	0.02512
3813.59034	0.02524
3812.30457	0.02531
3811.01880	0.02526
3809.73303	0.02525
3808.44726	0.02545
3807.16150	0.02596
3805.87573	0.02664
3804.58996	0.02706
3803.30419	0.02696
3802.01842	0.02664
3800.73265	0.02659
3799.44688	0.02693
3798.16111	0.02736
3796.87535	0.02758
3795.58958	0.02744
3794.30381	0.02690
3793.01804	0.02609
3791.73227	0.02528
3790.44650	0.02474
3789.16073	0.02454
3787.87496	0.02456
3786.58919	0.02468
3785.30343	0.02494
3784.01766	0.02546
3782.73189	0.02622
3781.44612	0.02692
3780.16035	0.02719
3778.87458	0.02697
3777.58881	0.02646
3776.30304	0.02596
3775.01728	0.02564
3773.73151	0.02551
3772.44574	0.02548
3771.15997	0.02553
3769.87420	0.02560
3768.58843	0.02554
3767.30266	0.02514
3766.01689	0.02448
3764.73112	0.02392
3763.44536	0.02363
3762.15959	0.02344
3760.87382	0.02308
3759.58805	0.02264
3758.30228	0.02250
3757.01651	0.02300
3755.73074	0.02403
3754.44497	0.02501
3753.15921	0.02542
3751.87344	0.02524
3750.58767	0.02489
3749.30190	0.02473
3748.01613	0.02476
3746.73036	0.02469
3745.44459	0.02451
3744.15882	0.02456
3742.87305	0.02495
3741.58729	0.02528
3740.30152	0.02520
3739.01575	0.02474
3737.72998	0.02420
3736.44421	0.02398
3735.15844	0.02424
3733.87267	0.02467
3732.58690	0.02476
3731.30114	0.02427
3730.01537	0.02342
3728.72960	0.02270
3727.44383	0.02267
3726.15806	0.02349
3724.87229	0.02487
3723.58652	0.02634
3722.30075	0.02757
3721.01498	0.02845
3719.72922	0.02891
3718.44345	0.02882
3717.15768	0.02821
3715.87191	0.02732
3714.58614	0.02647
3713.30037	0.02591
3712.01460	0.02569
3710.72883	0.02568
3709.44307	0.02569
3708.15730	0.02552
3706.87153	0.02504
3705.58576	0.02420
3704.29999	0.02320
3703.01422	0.02251
3701.72845	0.02256
3700.44268	0.02332
3699.15691	0.02432
3697.87115	0.02506
3696.58538	0.02545
3695.29961	0.02583
3694.01384	0.02643
3692.72807	0.02702
3691.44230	0.02717
3690.15653	0.02668
3688.87076	0.02585
3687.58500	0.02523
3686.29923	0.02507
3685.01346	0.02512
3683.72769	0.02519
3682.44192	0.02533
3681.15615	0.02562
3679.87038	0.02591
3678.58461	0.02586
3677.29884	0.02524
3676.01308	0.02433
3674.72731	0.02380
3673.44154	0.02413
3672.15577	0.02522
3670.87000	0.02650
3669.58423	0.02723
3668.29846	0.02699
3667.01269	0.02605
3665.72693	0.02520
3664.44116	0.02505
3663.15539	0.02556
3661.86962	0.02620
3660.58385	0.02652
3659.29808	0.02645
3658.01231	0.02622
3656.72654	0.02615
3655.44077	0.02628
3654.15501	0.02649
3652.86924	0.02664
3651.58347	0.02686
3650.29770	0.02734
3649.01193	0.02801
3647.72616	0.02851
3646.44039	0.02843
3645.15462	0.02766
3643.86886	0.02660
3642.58309	0.02585
3641.29732	0.02575
3640.01155	0.02610
3638.72578	0.02650
3637.44001	0.02683
3636.15424	0.02718
3634.86847	0.02764
3633.58270	0.02813
3632.29694	0.02845
3631.01117	0.02849
3629.72540	0.02836
3628.43963	0.02833
3627.15386	0.02859
3625.86809	0.02920
3624.58232	0.03010
3623.29655	0.03102
3622.01079	0.03158
3620.72502	0.03167
3619.43925	0.03157
3618.15348	0.03162
3616.86771	0.03184
3615.58194	0.03205
3614.29617	0.03229
3613.01040	0.03278
3611.72463	0.03350
3610.43887	0.03411
3609.15310	0.03433
3607.86733	0.03416
3606.58156	0.03371
3605.29579	0.03310
3604.01002	0.03250
3602.72425	0.03214
3601.43848	0.03215
3600.15272	0.03244
3598.86695	0.03288
3597.58118	0.03333
3596.29541	0.03369
3595.00964	0.03400
3593.72387	0.03436
3592.43810	0.03481
3591.15233	0.03524
3589.86656	0.03553
3588.58080	0.03566
3587.29503	0.03577
3586.00926	0.03604
3584.72349	0.03655
3583.43772	0.03714
3582.15195	0.03763
3580.86618	0.03798
3579.58041	0.03824
3578.29464	0.03835
3577.00888	0.03815
3575.72311	0.03762
3574.43734	0.03709
3573.15157	0.03694
3571.86580	0.03723
3570.58003	0.03775
3569.29426	0.03834
3568.00849	0.03895
3566.72273	0.03946
3565.43696	0.03965
3564.15119	0.03938
3562.86542	0.03886
3561.57965	0.03856
3560.29388	0.03880
3559.00811	0.03953
3557.72234	0.04037
3556.43657	0.04095
3555.15081	0.04118
3553.86504	0.04123
3552.57927	0.04144
3551.29350	0.04197
3550.00773	0.04273
3548.72196	0.04340
3547.43619	0.04373
3546.15042	0.04365
3544.86466	0.04335
3543.57889	0.04308
3542.29312	0.04297
3541.00735	0.04288
3539.72158	0.04260
3538.43581	0.04211
3537.15004	0.04176
3535.86427	0.04193
3534.57850	0.04257
3533.29274	0.04326
3532.00697	0.04365
3530.72120	0.04382
3529.43543	0.04406
3528.14966	0.04446
3526.86389	0.04484
3525.57812	0.04506
3524.29235	0.04524
3523.00659	0.04556
3521.72082	0.04601
3520.43505	0.04637
3519.14928	0.04648
3517.86351	0.04634
3516.57774	0.04608
3515.29197	0.04584
3514.00620	0.04567
3512.72043	0.04557
3511.43467	0.04556
3510.14890	0.04569
3508.86313	0.04598
3507.57736	0.04637
3506.29159	0.04680
3505.00582	0.04718
3503.72005	0.04742
3502.43428	0.04738
3501.14852	0.04703
3499.86275	0.04656
3498.57698	0.04637
3497.29121	0.04670
3496.00544	0.04746
3494.71967	0.04833
3493.43390	0.04900
3492.14813	0.04942
3490.86236	0.04960
3489.57660	0.04953
3488.29083	0.04922
3487.00506	0.04880
3485.71929	0.04852
3484.43352	0.04848
3483.14775	0.04851
3481.86198	0.04840
3480.57621	0.04821
3479.29045	0.04827
3478.00468	0.04874
3476.71891	0.04940
3475.43314	0.04985
3474.14737	0.04998
3472.86160	0.05004
3471.57583	0.05025
3470.29006	0.05054
3469.00429	0.05071
3467.71853	0.05072
3466.43276	0.05069
3465.14699	0.05064
3463.86122	0.05056
3462.57545	0.05051
3461.28968	0.05067
3460.00391	0.05110
3458.71814	0.05162
3457.43238	0.05197
3456.14661	0.05202
3454.86084	0.05184
3453.57507	0.05163
3452.28930	0.05162
3451.00353	0.05204
3449.71776	0.05282
3448.43199	0.05362
3447.14622	0.05399
3445.86046	0.05384
3444.57469	0.05354
3443.28892	0.05354
3442.00315	0.05383
3440.71738	0.05399
3439.43161	0.05364
3438.14584	0.05290
3436.86007	0.05230
3435.57431	0.05226
3434.28854	0.05278
3433.00277	0.05351
3431.71700	0.05404
3430.43123	0.05416
3429.14546	0.05401
3427.85969	0.05388
3426.57392	0.05402
3425.28815	0.05443
3424.00239	0.05486
3422.71662	0.05500
3421.43085	0.05462
3420.14508	0.05377
3418.85931	0.05281
3417.57354	0.05219
3416.28777	0.05218
3415.00200	0.05274
3413.71624	0.05358
3412.43047	0.05437
3411.14470	0.05497
3409.85893	0.05541
3408.57316	0.05580
3407.28739	0.05613
3406.00162	0.05630
3404.71585	0.05619
3403.43008	0.05576
3402.14432	0.05518
3400.85855	0.05475
3399.57278	0.05471
3398.28701	0.05502
3397.00124	0.05545
3395.71547	0.05572
3394.42970	0.05579
3393.14393	0.05582
3391.85817	0.05599
3390.57240	0.05626
3389.28663	0.05644
3388.00086	0.05636
3386.71509	0.05603
3385.42932	0.05557
3384.14355	0.05515
3382.85778	0.05497
3381.57201	0.05513
3380.28625	0.05560
3379.00048	0.05615
3377.71471	0.05659
3376.42894	0.05682
3375.14317	0.05684
3373.85740	0.05662
3372.57163	0.05620
3371.28586	0.05582
3370.00010	0.05583
3368.71433	0.05631
3367.42856	0.05688
3366.14279	0.05707
3364.85702	0.05671
3363.57125	0.05614
3362.28548	0.05582
3360.99971	0.05596
3359.71394	0.05636
3358.42818	0.05668
3357.14241	0.05670
3355.85664	0.05654
3354.57087	0.05656
3353.28510	0.05691
3351.99933	0.05742
3350.71356	0.05764
3349.42779	0.05732
3348.14202	0.05665
3346.85626	0.05610
3345.57049	0.05599
3344.28472	0.05627
3342.99895	0.05659
3341.71318	0.05667
3340.42741	0.05650
3339.14164	0.05626
3337.85587	0.05611
3336.57011	0.05610
3335.28434	0.05623
3333.99857	0.05643
3332.71280	0.05654
3331.42703	0.05638
3330.14126	0.05592
3328.85549	0.05536
3327.56972	0.05498
3326.28395	0.05493
3324.99819	0.05512
3323.71242	0.05526
3322.42665	0.05523
3321.14088	0.05517
3319.85511	0.05530
3318.56934	0.05564
3317.28357	0.05599
3315.99780	0.05617
3314.71204	0.05615
3313.42627	0.05599
3312.14050	0.05579
3310.85473	0.05569
3309.56896	0.05577
3308.28319	0.05596
3306.99742	0.05606
3305.71165	0.05592
3304.42588	0.05557
3303.14012	0.05516
3301.85435	0.05487
3300.56858	0.05489
3299.28281	0.05533
3297.99704	0.05602
3296.71127	0.05651
3295.42550	0.05642
3294.13973	0.05578
3292.85397	0.05500
3291.56820	0.05443
3290.28243	0.05415
3288.99666	0.05407
3287.71089	0.05417
3286.42512	0.05444
3285.13935	0.05478
3283.85358	0.05501
3282.56781	0.05499
3281.28205	0.05471
3279.99628	0.05435
3278.71051	0.05415
3277.42474	0.05423
3276.13897	0.05456
3274.85320	0.05493
3273.56743	0.05512
3272.28166	0.05492
3270.99590	0.05432
3269.71013	0.05362
3268.42436	0.05324
3267.13859	0.05334
3265.85282	0.05376
3264.56705	0.05423
3263.28128	0.05457
3261.99551	0.05472
3260.70974	0.05465
3259.42398	0.05438
3258.13821	0.05395
3256.85244	0.05343
3255.56667	0.05289
3254.28090	0.05249
3252.99513	0.05230
3251.70936	0.05223
3250.42359	0.05214
3249.13783	0.05203
3247.85206	0.05205
3246.56629	0.05225
3245.28052	0.05249
3243.99475	0.05258
3242.70898	0.05242
3241.42321	0.05214
3240.13744	0.05195
3238.85167	0.05197
3237.56591	0.05215
3236.28014	0.05223
3234.99437	0.05200
3233.70860	0.05150
3232.42283	0.05108
3231.13706	0.05100
3229.85129	0.05122
3228.56552	0.05138
3227.27976	0.05124
3225.99399	0.05098
3224.70822	0.05093
3223.42245	0.05117
3222.13668	0.05149
3220.85091	0.05168
3219.56514	0.05181
3218.27937	0.05199
3216.99360	0.05220
3215.70784	0.05225
3214.42207	0.05197
3213.13630	0.05144
3211.85053	0.05091
3210.56476	0.05063
3209.27899	0.05065
3207.99322	0.05086
3206.70745	0.05112
3205.42169	0.05136
3204.13592	0.05160
3202.85015	0.05177
3201.56438	0.05174
3200.27861	0.05145
3198.99284	0.05099
3197.70707	0.05051
3196.42130	0.05008
3195.13553	0.04968
3193.84977	0.04930
3192.56400	0.04908
3191.27823	0.04910
3189.99246	0.04935
3188.70669	0.04969
3187.42092	0.04993
3186.13515	0.04993
3184.84938	0.04960
3183.56362	0.04902
3182.27785	0.04844
3180.99208	0.04810
3179.70631	0.04806
3178.42054	0.04812
3177.13477	0.04812
3175.84900	0.04808
3174.56323	0.04816
3173.27746	0.04833
3171.99170	0.04831
3170.70593	0.04779
3169.42016	0.04695
3168.13439	0.04632
3166.84862	0.04626
3165.56285	0.04662
3164.27708	0.04702
3162.99131	0.04731
3161.70555	0.04760
3160.41978	0.04797
3159.13401	0.04834
3157.84824	0.04861
3156.56247	0.04873
3155.27670	0.04866
3153.99093	0.04833
3152.70516	0.04776
3151.41939	0.04713
3150.13363	0.04676
3148.84786	0.04680
3147.56209	0.04710
3146.27632	0.04724
3144.99055	0.04700
3143.70478	0.04653
3142.41901	0.04621
3141.13324	0.04620
3139.84748	0.04635
3138.56171	0.04642
3137.27594	0.04633
3135.99017	0.04609
3134.70440	0.04576
3133.41863	0.04546
3132.13286	0.04526
3130.84709	0.04515
3129.56132	0.04506
3128.27556	0.04500
3126.98979	0.04502
3125.70402	0.04512
3124.41825	0.04520
3123.13248	0.04516
3121.84671	0.04494
3120.56094	0.04460
3119.27517	0.04424
3117.98940	0.04399
3116.70364	0.04388
3115.41787	0.04385
3114.13210	0.04386
3112.84633	0.04395
3111.56056	0.04411
3110.27479	0.04430
3108.98902	0.04448
3107.70325	0.04464
3106.41749	0.04479
3105.13172	0.04486
3103.84595	0.04470
3102.56018	0.04429
3101.27441	0.04377
3099.98864	0.04342
3098.70287	0.04341
3097.41710	0.04367
3096.13133	0.04400
3094.84557	0.04427
3093.55980	0.04442
3092.27403	0.04439
3090.98826	0.04414
3089.70249	0.04374
3088.41672	0.04332
3087.13095	0.04297
3085.84518	0.04270
3084.55942	0.04252
3083.27365	0.04249
3081.98788	0.04263
3080.70211	0.04291
3079.41634	0.04316
3078.13057	0.04320
3076.84480	0.04298
3075.55903	0.04261
3074.27326	0.04225
3072.98750	0.04195
3071.70173	0.04162
3070.41596	0.04125
3069.13019	0.04103
3067.84442	0.04111
3066.55865	0.04148
3065.27288	0.04191
3063.98711	0.04219
3062.70135	0.04216
3061.41558	0.04182
3060.12981	0.04131
3058.84404	0.04088
3057.55827	0.04075
3056.27250	0.04095
3054.98673	0.04131
3053.70096	0.04157
3052.41519	0.04156
3051.12943	0.04131
3049.84366	0.04104
3048.55789	0.04090
3047.27212	0.04094
3045.98635	0.04109
3044.70058	0.04125
3043.41481	0.04134
3042.12904	0.04129
3040.84328	0.04109
3039.55751	0.04077
3038.27174	0.04043
3036.98597	0.04014
3035.70020	0.03992
3034.41443	0.03975
3033.12866	0.03960
3031.84289	0.03944
3030.55712	0.03933
3029.27136	0.03935
3027.98559	0.03953
3026.69982	0.03979
3025.41405	0.03986
3024.12828	0.03959
3022.84251	0.03907
3021.55674	0.03866
3020.27097	0.03865
3018.98521	0.03902
3017.69944	0.03942
3016.41367	0.03954
3015.12790	0.03934
3013.84213	0.03901
3012.55636	0.03876
3011.27059	0.03861
3009.98482	0.03850
3008.69905	0.03836
3007.41329	0.03814
3006.12752	0.03781
3004.84175	0.03749
3003.55598	0.03731
3002.27021	0.03738
3000.98444	0.03758
2999.69867	0.03775
2998.41290	0.03779
2997.12714	0.03783
2995.84137	0.03803
2994.55560	0.03834
2993.26983	0.03864
2991.98406	0.03886
2990.69829	0.03902
2989.41252	0.03910
2988.12675	0.03908
2986.84098	0.03896
2985.55522	0.03882
2984.26945	0.03871
2982.98368	0.03865
2981.69791	0.03864
2980.41214	0.03876
2979.12637	0.03907
2977.84060	0.03960
2976.55483	0.04031
2975.26907	0.04111
2973.98330	0.04178
2972.69753	0.04218
2971.41176	0.04234
2970.12599	0.04247
2968.84022	0.04273
2967.55445	0.04314
2966.26868	0.04357
2964.98291	0.04394
2963.69715	0.04426
2962.41138	0.04464
2961.12561	0.04513
2959.83984	0.04563
2958.55407	0.04600
2957.26830	0.04616
2955.98253	0.04611
2954.69676	0.04588
2953.41100	0.04561
2952.12523	0.04549
2950.83946	0.04556
2949.55369	0.04572
2948.26792	0.04579
2946.98215	0.04575
2945.69638	0.04571
2944.41061	0.04582
2943.12484	0.04615
2941.83908	0.04656
2940.55331	0.04688
2939.26754	0.04698
2937.98177	0.04692
2936.69600	0.04691
2935.41023	0.04711
2934.12446	0.04761
2932.83869	0.04828
2931.55293	0.04889
2930.26716	0.04919
2928.98139	0.04918
2927.69562	0.04909
2926.40985	0.04921
2925.12408	0.04958
2923.83831	0.05004
2922.55254	0.05033
2921.26677	0.05029
2919.98101	0.04996
2918.69524	0.04949
2917.40947	0.04897
2916.12370	0.04840
2914.83793	0.04775
2913.55216	0.04711
2912.26639	0.04658
2910.98062	0.04617
2909.69486	0.04579
2908.40909	0.04533
2907.12332	0.04483
2905.83755	0.04443
2904.55178	0.04423
2903.26601	0.04423
2901.98024	0.04422
2900.69447	0.04404
2899.40870	0.04359
2898.12294	0.04299
2896.83717	0.04240
2895.55140	0.04199
2894.26563	0.04176
2892.97986	0.04164
2891.69409	0.04158
2890.40832	0.04156
2889.12255	0.04152
2887.83678	0.04140
2886.55102	0.04116
2885.26525	0.04089
2883.97948	0.04063
2882.69371	0.04037
2881.40794	0.04016
2880.12217	0.04014
2878.83640	0.04034
2877.55063	0.04067
2876.26487	0.04095
2874.97910	0.04106
2873.69333	0.04098
2872.40756	0.04077
2871.12179	0.04056
2869.83602	0.04051
2868.55025	0.04064
2867.26448	0.04081
2865.97871	0.04091
2864.69295	0.04093
2863.40718	0.04091
2862.12141	0.04087
2860.83564	0.04076
2859.54987	0.04058
2858.26410	0.04038
2856.97833	0.04023
2855.69256	0.04015
2854.40680	0.04013
2853.12103	0.04013
2851.83526	0.04010
2850.54949	0.03995
2849.26372	0.03964
2847.97795	0.03918
2846.69218	0.03862
2845.40641	0.03805
2844.12064	0.03756
2842.83488	0.03721
2841.54911	0.03692
2840.26334	0.03656
2838.97757	0.03605
2837.69180	0.03546
2836.40603	0.03493
2835.12026	0.03455
2833.83449	0.03432
2832.54873	0.03407
2831.26296	0.03367
2829.97719	0.03312
2828.69142	0.03261
2827.40565	0.03233
2826.11988	0.03232
2824.83411	0.03246
2823.54834	0.03255
2822.26257	0.03252
2820.97681	0.03250
2819.69104	0.03260
2818.40527	0.03279
2817.11950	0.03283
2815.83373	0.03256
2814.54796	0.03205
2813.26219	0.03154
2811.97642	0.03125
2810.69066	0.03125
2809.40489	0.03143
2808.11912	0.03160
2806.83335	0.03165
2805.54758	0.03155
2804.26181	0.03142
2802.97604	0.03136
2801.69027	0.03140
2800.40450	0.03143
2799.11874	0.03128
2797.83297	0.03092
2796.54720	0.03047
2795.26143	0.03010
2793.97566	0.02991
2792.68989	0.02992
2791.40412	0.03006
2790.11835	0.03024
2788.83259	0.03034
2787.54682	0.03029
2786.26105	0.03016
2784.97528	0.03007
2783.68951	0.03004
2782.40374	0.03004
2781.11797	0.03003
2779.83220	0.03007
2778.54643	0.03018
2777.26067	0.03024
2775.97490	0.03007
2774.68913	0.02970
2773.40336	0.02932
2772.11759	0.02911
2770.83182	0.02908
2769.54605	0.02916
2768.26028	0.02923
2766.97452	0.02925
2765.68875	0.02922
2764.40298	0.02918
2763.11721	0.02915
2761.83144	0.02911
2760.54567	0.02904
2759.25990	0.02891
2757.97413	0.02875
2756.68836	0.02862
2755.40260	0.02856
2754.11683	0.02857
2752.83106	0.02865
2751.54529	0.02879
2750.25952	0.02894
2748.97375	0.02896
2747.68798	0.02880
2746.40221	0.02851
2745.11645	0.02823
2743.83068	0.02809
2742.54491	0.02810
2741.25914	0.02816
2739.97337	0.02820
2738.68760	0.02821
2737.40183	0.02823
2736.11606	0.02825
2734.83029	0.02819
2733.54453	0.02803
2732.25876	0.02786
2730.97299	0.02776
2729.68722	0.02776
2728.40145	0.02788
2727.11568	0.02805
2725.82991	0.02811
2724.54414	0.02794
2723.25838	0.02760
2721.97261	0.02732
2720.68684	0.02724
2719.40107	0.02728
2718.11530	0.02727
2716.82953	0.02715
2715.54376	0.02699
2714.25799	0.02682
2712.97222	0.02667
2711.68646	0.02655
2710.40069	0.02651
2709.11492	0.02657
2707.82915	0.02666
2706.54338	0.02675
2705.25761	0.02684
2703.97184	0.02691
2702.68607	0.02696
2701.40031	0.02699
2700.11454	0.02701
2698.82877	0.02702
2697.54300	0.02695
2696.25723	0.02677
2694.97146	0.02655
2693.68569	0.02636
2692.39992	0.02621
2691.11415	0.02604
2689.82839	0.02582
2688.54262	0.02563
2687.25685	0.02559
2685.97108	0.02570
2684.68531	0.02585
2683.39954	0.02595
2682.11377	0.02605
2680.82800	0.02625
2679.54224	0.02648
2678.25647	0.02657
2676.97070	0.02648
2675.68493	0.02634
2674.39916	0.02626
2673.11339	0.02618
2671.82762	0.02599
2670.54185	0.02570
2669.25608	0.02544
2667.97032	0.02533
2666.68455	0.02540
2665.39878	0.02561
2664.11301	0.02582
2662.82724	0.02586
2661.54147	0.02571
2660.25570	0.02548
2658.96993	0.02538
2657.68417	0.02544
2656.39840	0.02558
2655.11263	0.02569
2653.82686	0.02570
2652.54109	0.02557
2651.25532	0.02526
2649.96955	0.02483
2648.68378	0.02444
2647.39801	0.02422
2646.11225	0.02415
2644.82648	0.02415
2643.54071	0.02418
2642.25494	0.02424
2640.96917	0.02423
2639.68340	0.02407
2638.39763	0.02381
2637.11186	0.02356
2635.82609	0.02340
2634.54033	0.02333
2633.25456	0.02335
2631.96879	0.02341
2630.68302	0.02342
2629.39725	0.02335
2628.11148	0.02325
2626.82571	0.02326
2625.53994	0.02336
2624.25418	0.02343
2622.96841	0.02335
2621.68264	0.02311
2620.39687	0.02279
2619.11110	0.02245
2617.82533	0.02218
2616.53956	0.02201
2615.25379	0.02199
2613.96802	0.02212
2612.68226	0.02232
2611.39649	0.02248
2610.11072	0.02249
2608.82495	0.02234
2607.53918	0.02206
2606.25341	0.02173
2604.96764	0.02147
2603.68187	0.02146
2602.39611	0.02182
2601.11034	0.02244
2599.82457	0.02292
2598.53880	0.02287
2597.25303	0.02226
2595.96726	0.02146
2594.68149	0.02090
2593.39572	0.02080
2592.10995	0.02104
2590.82419	0.02138
2589.53842	0.02155
2588.25265	0.02145
2586.96688	0.02113
2585.68111	0.02070
2584.39534	0.02026
2583.10957	0.01995
2581.82380	0.01987
2580.53804	0.01999
2579.25227	0.02019
2577.96650	0.02044
2576.68073	0.02072
2575.39496	0.02095
2574.10919	0.02104
2572.82342	0.02094
2571.53765	0.02072
2570.25188	0.02045
2568.96612	0.02012
2567.68035	0.01973
2566.39458	0.01936
2565.10881	0.01913
2563.82304	0.01915
2562.53727	0.01934
2561.25150	0.01947
2559.96573	0.01939
2558.67997	0.01917
2557.39420	0.01908
2556.10843	0.01934
2554.82266	0.01985
2553.53689	0.02028
2552.25112	0.02033
2550.96535	0.02002
2549.67958	0.01958
2548.39381	0.01917
2547.10805	0.01881
2545.82228	0.01844
2544.53651	0.01810
2543.25074	0.01789
2541.96497	0.01782
2540.67920	0.01783
2539.39343	0.01787
2538.10766	0.01794
2536.82190	0.01807
2535.53613	0.01817
2534.25036	0.01816
2532.96459	0.01815
2531.67882	0.01839
2530.39305	0.01895
2529.10728	0.01952
2527.82151	0.01963
2526.53574	0.01906
2525.24998	0.01810
2523.96421	0.01738
2522.67844	0.01735
2521.39267	0.01791
2520.10690	0.01854
2518.82113	0.01882
2517.53536	0.01876
2516.24959	0.01863
2514.96383	0.01861
2513.67806	0.01870
2512.39229	0.01885
2511.10652	0.01898
2509.82075	0.01901
2508.53498	0.01890
2507.24921	0.01872
2505.96344	0.01861
2504.67767	0.01867
2503.39191	0.01889
2502.10614	0.01905
2500.82037	0.01893
2499.53460	0.01848
2498.24883	0.01789
2496.96306	0.01746
2495.67729	0.01737
2494.39152	0.01759
2493.10576	0.01798
2491.81999	0.01845
2490.53422	0.01884
2489.24845	0.01896
2487.96268	0.01882
2486.67691	0.01861
2485.39114	0.01849
2484.10537	0.01840
2482.81960	0.01822
2481.53384	0.01796
2480.24807	0.01770
2478.96230	0.01750
2477.67653	0.01740
2476.39076	0.01746
2475.10499	0.01768
2473.81922	0.01790
2472.53345	0.01797
2471.24769	0.01794
2469.96192	0.01798
2468.67615	0.01811
2467.39038	0.01814
2466.10461	0.01798
2464.81884	0.01780
2463.53307	0.01777
2462.24730	0.01786
2460.96153	0.01786
2459.67577	0.01779
2458.39000	0.01780
2457.10423	0.01798
2455.81846	0.01821
2454.53269	0.01835
2453.24692	0.01837
2451.96115	0.01822
2450.67538	0.01782
2449.38962	0.01726
2448.10385	0.01683
2446.81808	0.01681
2445.53231	0.01716
2444.24654	0.01758
2442.96077	0.01776
2441.67500	0.01761
2440.38923	0.01728
2439.10346	0.01695
2437.81770	0.01671
2436.53193	0.01649
2435.24616	0.01621
2433.96039	0.01595
2432.67462	0.01591
2431.38885	0.01621
2430.10308	0.01671
2428.81731	0.01716
2427.53155	0.01738
2426.24578	0.01734
2424.96001	0.01710
2423.67424	0.01683
2422.38847	0.01673
2421.10270	0.01690
2419.81693	0.01723
2418.53116	0.01743
2417.24539	0.01727
2415.95963	0.01684
2414.67386	0.01639
2413.38809	0.01611
2412.10232	0.01601
2410.81655	0.01602
2409.53078	0.01611
2408.24501	0.01632
2406.95924	0.01659
2405.67347	0.01684
2404.38771	0.01697
2403.10194	0.01694
2401.81617	0.01680
2400.53040	0.01665
2399.24463	0.01639
2397.95886	0.01608
2396.67309	0.01578
2395.38732	0.01561
2394.10156	0.01567
2392.81579	0.01592
2391.53002	0.01622
2390.24425	0.01641
2388.95848	0.01645
2387.67271	0.01637
2386.38694	0.01627
2385.10117	0.01629
2383.81540	0.01650
2382.52964	0.01690
2381.24387	0.01739
2379.95810	0.01785
2378.67233	0.01826
2377.38656	0.01869
2376.10079	0.01920
2374.81502	0.01984
2373.52925	0.02051
2372.24349	0.02118
2370.95772	0.02174
2369.67195	0.02228
2368.38618	0.02276
2367.10041	0.02316
2365.81464	0.02343
2364.52887	0.02371
2363.24310	0.02393
2361.95733	0.02406
2360.67157	0.02406
2359.38580	0.02415
2358.10003	0.02426
2356.81426	0.02432
2355.52849	0.02421
2354.24272	0.02381
2352.95695	0.02313
2351.67118	0.02225
2350.38542	0.02142
2349.09965	0.02107
2347.81388	0.02133
2346.52811	0.02173
2345.24234	0.02199
2343.95657	0.02216
2342.67080	0.02241
2341.38503	0.02252
2340.09926	0.02242
2338.81350	0.02247
2337.52773	0.02269
2336.24196	0.02264
2334.95619	0.02241
2333.67042	0.02252
2332.38465	0.02301
2331.09888	0.02311
2329.81311	0.02308
2328.52735	0.02354
2327.24158	0.02364
2325.95581	0.02352
2324.67004	0.02377
2323.38427	0.02350
2322.09850	0.02261
2320.81273	0.02204
2319.52696	0.02127
2318.24119	0.02043
2316.95543	0.01997
2315.66966	0.01936
2314.38389	0.01879
2313.09812	0.01852
2311.81235	0.01823
2310.52658	0.01807
2309.24081	0.01791
2307.95504	0.01767
2306.66928	0.01758
2305.38351	0.01749
2304.09774	0.01743
2302.81197	0.01745
2301.52620	0.01748
2300.24043	0.01752
2298.95466	0.01740
2297.66889	0.01710
2296.38312	0.01676
2295.09736	0.01654
2293.81159	0.01654
2292.52582	0.01664
2291.24005	0.01670
2289.95428	0.01658
2288.66851	0.01624
2287.38274	0.01571
2286.09697	0.01514
2284.81121	0.01470
2283.52544	0.01451
2282.23967	0.01448
2280.95390	0.01439
2279.66813	0.01407
2278.38236	0.01364
2277.09659	0.01338
2275.81082	0.01346
2274.52505	0.01384
2273.23929	0.01428
2271.95352	0.01458
2270.66775	0.01461
2269.38198	0.01434
2268.09621	0.01388
2266.81044	0.01330
2265.52467	0.01260
2264.23890	0.01183
2262.95314	0.01121
2261.66737	0.01102
2260.38160	0.01134
2259.09583	0.01191
2257.81006	0.01237
2256.52429	0.01258
2255.23852	0.01265
2253.95275	0.01278
2252.66698	0.01297
2251.38122	0.01301
2250.09545	0.01256
2248.80968	0.01165
2247.52391	0.01108
2246.23814	0.01094
2244.95237	0.01113
2243.66660	0.01146
2242.38083	0.01193
2241.09507	0.01261
2239.80930	0.01325
2238.52353	0.01330
2237.23776	0.01257
2235.95199	0.01154
2234.66622	0.01087
2233.38045	0.01086
2232.09468	0.01137
2230.80891	0.01209
2229.52315	0.01262
2228.23738	0.01263
2226.95161	0.01204
2225.66584	0.01111
2224.38007	0.01022
2223.09430	0.00969
2221.80853	0.00965
2220.52276	0.00999
2219.23700	0.01044
2217.95123	0.01064
2216.66546	0.01038
2215.37969	0.00979
2214.09392	0.00928
2212.80815	0.00917
2211.52238	0.00927
2210.23661	0.00906
2208.95084	0.00830
2207.66508	0.00737
2206.37931	0.00685
2205.09354	0.00703
2203.80777	0.00765
2202.52200	0.00822
2201.23623	0.00850
2199.95046	0.00879
2198.66469	0.00944
2197.37893	0.01011
2196.09316	0.00994
2194.80739	0.00866
2193.52162	0.00719
2192.23585	0.00682
2190.95008	0.00790
2189.66431	0.00959
2188.37854	0.01079
2187.09277	0.01107
2185.80701	0.01067
2184.52124	0.01001
2183.23547	0.00933
2181.94970	0.00883
2180.66393	0.00868
2179.37816	0.00884
2178.09239	0.00893
2176.80662	0.00847
2175.52085	0.00745
2174.23509	0.00628
2172.94932	0.00538
2171.66355	0.00505
2170.37778	0.00550
2169.09201	0.00667
2167.80624	0.00811
2166.52047	0.00917
2165.23470	0.00948
2163.94894	0.00899
2162.66317	0.00783
2161.37740	0.00616
2160.09163	0.00438
2158.80586	0.00302
2157.52009	0.00240
2156.23432	0.00241
2154.94855	0.00278
2153.66278	0.00336
2152.37702	0.00400
2151.09125	0.00438
2149.80548	0.00422
2148.51971	0.00364
2147.23394	0.00320
2145.94817	0.00340
2144.66240	0.00428
2143.37663	0.00545
2142.09087	0.00647
2140.80510	0.00709
2139.51933	0.00736
2138.23356	0.00746
2136.94779	0.00745
2135.66202	0.00721
2134.37625	0.00667
2133.09048	0.00608
2131.80471	0.00591
2130.51895	0.00636
2129.23318	0.00715
2127.94741	0.00782
2126.66164	0.00805
2125.37587	0.00780
2124.09010	0.00727
2122.80433	0.00678
2121.51856	0.00666
2120.23280	0.00706
2118.94703	0.00778
2117.66126	0.00845
2116.37549	0.00875
2115.08972	0.00859
2113.80395	0.00813
2112.51818	0.00770
2111.23241	0.00759
2109.94664	0.00780
2108.66088	0.00805
2107.37511	0.00817
2106.08934	0.00827
2104.80357	0.00846
2103.51780	0.00859
2102.23203	0.00849
2100.94626	0.00807
2099.66049	0.00652
2098.37473	0.00552
2097.08896	0.00532
2095.80319	0.00570
2094.51742	0.00650
2093.23165	0.00748
2091.94588	0.00836
2090.66011	0.00899
2089.37434	0.00928
2088.08857	0.00925
2086.80281	0.00895
2085.51704	0.00842
2084.23127	0.00780
2082.94550	0.00729
2081.65973	0.00705
2080.37396	0.00698
2079.08819	0.00685
2077.80242	0.00660
2076.51666	0.00636
2075.23089	0.00632
2073.94512	0.00649
2072.65935	0.00670
2071.37358	0.00676
2070.08781	0.00659
2068.80204	0.00620
2067.51627	0.00569
2066.23050	0.00524
2064.94474	0.00500
2063.65897	0.00504
2062.37320	0.00525
2061.08743	0.00551
2059.80166	0.00575
2058.51589	0.00586
2057.23012	0.00570
2055.94435	0.00530
2054.65859	0.00493
2053.37282	0.00476
2052.08705	0.00460
2050.80128	0.00407
2049.51551	0.00289
2048.22974	0.00126
2046.94397	-0.00032
2045.65820	-0.00141
2044.37243	-0.00202
2043.08667	-0.00246
2041.80090	-0.00283
2040.51513	-0.00282
2039.22936	-0.00221
2037.94359	-0.00140
2036.65782	-0.00102
2035.37205	-0.00123
2034.08628	-0.00158
2032.80052	-0.00160
2031.51475	-0.00130
2030.22898	-0.00092
2028.94321	-0.00054
2027.65744	-0.00006
2026.37167	0.00051
2025.08590	0.00093
2023.80013	0.00089
2022.51436	0.00038
2021.22860	-0.00027
2019.94283	-0.00070
2018.65706	-0.00074
2017.37129	-0.00052
2016.08552	-0.00033
2014.79975	-0.00042
2013.51398	-0.00083
2012.22821	-0.00133
2010.94245	-0.00173
2009.65668	-0.00197
2008.37091	-0.00190
2007.08514	-0.00113
2005.79937	0.00052
2004.51360	0.00261
2003.22783	0.00435
2001.94206	0.00528
2000.65629	0.00550
1999.37053	0.00531
1998.08476	0.00492
1996.79899	0.00448
1995.51322	0.00425
1994.22745	0.00445
1992.94168	0.00503
1991.65591	0.00570
1990.37014	0.00616
1989.08438	0.00631
1987.79861	0.00622
1986.51284	0.00606
1985.22707	0.00602
1983.94130	0.00617
1982.65553	0.00629
1981.36976	0.00594
1980.08399	0.00485
1978.79822	0.00327
1977.51246	0.00180
1976.22669	0.00103
1974.94092	0.00118
1973.65515	0.00209
1972.36938	0.00322
1971.08361	0.00390
1969.79784	0.00371
1968.51207	0.00275
1967.22631	0.00163
1965.94054	0.00111
1964.65477	0.00164
1963.36900	0.00306
1962.08323	0.00466
1960.79746	0.00575
1959.51169	0.00613
1958.22592	0.00613
1956.94015	0.00608
1955.65439	0.00603
1954.36862	0.00596
1953.08285	0.00605
1951.79708	0.00648
1950.51131	0.00717
1949.22554	0.00788
1947.93977	0.00845
1946.65400	0.00886
1945.36823	0.00891
1944.08247	0.00843
1942.79670	0.00752
1941.51093	0.00656
1940.22516	0.00585
1938.93939	0.00537
1937.65362	0.00500
1936.36785	0.00477
1935.08208	0.00495
1933.79632	0.00570
1932.51055	0.00680
1931.22478	0.00772
1929.93901	0.00798
1928.65324	0.00759
1927.36747	0.00696
1926.08170	0.00654
1924.79593	0.00656
1923.51016	0.00700
1922.22440	0.00765
1920.93863	0.00816
1919.65286	0.00829
1918.36709	0.00810
1917.08132	0.00786
1915.79555	0.00776
1914.50978	0.00780
1913.22401	0.00785
1911.93825	0.00783
1910.65248	0.00773
1909.36671	0.00756
1908.08094	0.00739
1906.79517	0.00737
1905.50940	0.00760
1904.22363	0.00802
1902.93786	0.00845
1901.65209	0.00873
1900.36633	0.00883
1899.08056	0.00878
1897.79479	0.00863
1896.50902	0.00842
1895.22325	0.00821
1893.93748	0.00811
1892.65171	0.00817
1891.36594	0.00834
1890.08018	0.00850
1888.79441	0.00861
1887.50864	0.00869
1886.22287	0.00877
1884.93710	0.00890
1883.65133	0.00908
1882.36556	0.00929
1881.07979	0.00946
1879.79402	0.00946
1878.50826	0.00924
1877.22249	0.00884
1875.93672	0.00845
1874.65095	0.00827
1873.36518	0.00833
1872.07941	0.00851
1870.79364	0.00868
1869.50787	0.00887
1868.22211	0.00917
1866.93634	0.00954
1865.65057	0.00983
1864.36480	0.00992
1863.07903	0.00984
1861.79326	0.00968
1860.50749	0.00948
1859.22172	0.00927
1857.93595	0.00910
1856.65019	0.00905
1855.36442	0.00909
1854.07865	0.00912
1852.79288	0.00908
1851.50711	0.00907
1850.22134	0.00920
1848.93557	0.00948
1847.64980	0.00974
1846.36404	0.00981
1845.07827	0.00968
1843.79250	0.00950
1842.50673	0.00940
1841.22096	0.00937
1839.93519	0.00940
1838.64942	0.00949
1837.36365	0.00964
1836.07788	0.00982
1834.79212	0.00995
1833.50635	0.00998
1832.22058	0.00991
1830.93481	0.00980
1829.64904	0.00971
1828.36327	0.00963
1827.07750	0.00953
1825.79173	0.00942
1824.50597	0.00934
1823.22020	0.00925
1821.93443	0.00909
1820.64866	0.00882
1819.36289	0.00857
1818.07712	0.00852
1816.79135	0.00875
1815.50558	0.00920
1814.21981	0.00968
1812.93405	0.01005
1811.64828	0.01026
1810.36251	0.01033
1809.07674	0.01033
1807.79097	0.01033
1806.50520	0.01037
1805.21943	0.01048
1803.93366	0.01059
1802.64790	0.01062
1801.36213	0.01050
1800.07636	0.01030
1798.79059	0.01015
1797.50482	0.01011
1796.21905	0.01015
1794.93328	0.01020
1793.64751	0.01021
1792.36174	0.01021
1791.07598	0.01024
1789.79021	0.01025
1788.50444	0.01018
1787.21867	0.01005
1785.93290	0.00998
1784.64713	0.01005
1783.36136	0.01027
1782.07559	0.01053
1780.78983	0.01072
1779.50406	0.01077
1778.21829	0.01072
1776.93252	0.01064
1775.64675	0.01059
1774.36098	0.01061
1773.07521	0.01076
1771.78944	0.01102
1770.50367	0.01131
1769.21791	0.01151
1767.93214	0.01161
1766.64637	0.01166
1765.36060	0.01166
1764.07483	0.01156
1762.78906	0.01138
1761.50329	0.01123
1760.21752	0.01121
1758.93176	0.01129
1757.64599	0.01142
1756.36022	0.01154
1755.07445	0.01164
1753.78868	0.01171
1752.50291	0.01179
1751.21714	0.01188
1749.93137	0.01198
1748.64560	0.01207
1747.35984	0.01212
1746.07407	0.01217
1744.78830	0.01224
1743.50253	0.01235
1742.21676	0.01246
1740.93099	0.01256
1739.64522	0.01265
1738.35945	0.01273
1737.07369	0.01277
1735.78792	0.01277
1734.50215	0.01284
1733.21638	0.01309
1731.93061	0.01346
1730.64484	0.01376
1729.35907	0.01392
1728.07330	0.01399
1726.78753	0.01408
1725.50177	0.01423
1724.21600	0.01442
1722.93023	0.01460
1721.64446	0.01467
1720.35869	0.01461
1719.07292	0.01451
1717.78715	0.01455
1716.50138	0.01483
1715.21561	0.01530
1713.92985	0.01578
1712.64408	0.01618
1711.35831	0.01647
1710.07254	0.01667
1708.78677	0.01685
1707.50100	0.01707
1706.21523	0.01737
1704.92946	0.01776
1703.64370	0.01813
1702.35793	0.01838
1701.07216	0.01862
1699.78639	0.01900
1698.50062	0.01949
1697.21485	0.01993
1695.92908	0.02029
1694.64331	0.02070
1693.35754	0.02116
1692.07178	0.02158
1690.78601	0.02193
1689.50024	0.02228
1688.21447	0.02260
1686.92870	0.02285
1685.64293	0.02307
1684.35716	0.02343
1683.07139	0.02397
1681.78563	0.02454
1680.49986	0.02501
1679.21409	0.02540
1677.92832	0.02576
1676.64255	0.02611
1675.35678	0.02649
1674.07101	0.02693
1672.78524	0.02736
1671.49947	0.02772
1670.21371	0.02804
1668.92794	0.02840
1667.64217	0.02883
1666.35640	0.02924
1665.07063	0.02956
1663.78486	0.02985
1662.49909	0.03016
1661.21332	0.03051
1659.92756	0.03086
1658.64179	0.03116
1657.35602	0.03136
1656.07025	0.03136
1654.78448	0.03120
1653.49871	0.03110
1652.21294	0.03131
1650.92717	0.03175
1649.64140	0.03212
1648.35564	0.03225
1647.06987	0.03225
1645.78410	0.03226
1644.49833	0.03233
1643.21256	0.03241
1641.92679	0.03247
1640.64102	0.03252
1639.35525	0.03256
1638.06949	0.03252
1636.78372	0.03239
1635.49795	0.03227
1634.21218	0.03220
1632.92641	0.03213
1631.64064	0.03203
1630.35487	0.03194
1629.06910	0.03195
1627.78333	0.03204
1626.49757	0.03211
1625.21180	0.03208
1623.92603	0.03199
1622.64026	0.03192
1621.35449	0.03188
1620.06872	0.03182
1618.78295	0.03169
1617.49718	0.03160
1616.21142	0.03166
1614.92565	0.03184
1613.63988	0.03196
1612.35411	0.03194
1611.06834	0.03185
1609.78257	0.03179
1608.49680	0.03179
1607.21103	0.03184
1605.92526	0.03190
1604.63950	0.03199
1603.35373	0.03213
1602.06796	0.03233
1600.78219	0.03251
1599.49642	0.03264
1598.21065	0.03272
1596.92488	0.03278
1595.63911	0.03282
1594.35335	0.03287
1593.06758	0.03295
1591.78181	0.03305
1590.49604	0.03316
1589.21027	0.03330
1587.92450	0.03347
1586.63873	0.03366
1585.35296	0.03383
1584.06719	0.03394
1582.78143	0.03401
1581.49566	0.03409
1580.20989	0.03422
1578.92412	0.03438
1577.63835	0.03452
1576.35258	0.03468
1575.06681	0.03495
1573.78104	0.03525
1572.49528	0.03547
1571.20951	0.03560
1569.92374	0.03572
1568.63797	0.03591
1567.35220	0.03612
1566.06643	0.03630
1564.78066	0.03643
1563.49489	0.03654
1562.20912	0.03659
1560.92336	0.03657
1559.63759	0.03657
1558.35182	0.03670
1557.06605	0.03695
1555.78028	0.03719
1554.49451	0.03733
1553.20874	0.03738
1551.92297	0.03736
1550.63721	0.03730
1549.35144	0.03726
1548.06567	0.03726
1546.77990	0.03725
1545.49413	0.03717
1544.20836	0.03701
1542.92259	0.03673
1541.63682	0.03635
1540.35105	0.03599
1539.06529	0.03577
1537.77952	0.03568
1536.49375	0.03555
1535.20798	0.03530
1533.92221	0.03500
1532.63644	0.03479
1531.35067	0.03472
1530.06490	0.03477
1528.77914	0.03487
1527.49337	0.03496
1526.20760	0.03505
1524.92183	0.03514
1523.63606	0.03523
1522.35029	0.03534
1521.06452	0.03552
1519.77875	0.03580
1518.49298	0.03615
1517.20722	0.03654
1515.92145	0.03700
1514.63568	0.03749
1513.34991	0.03799
1512.06414	0.03851
1510.77837	0.03905
1509.49260	0.03952
1508.20683	0.03990
1506.92107	0.04030
1505.63530	0.04085
1504.34953	0.04153
1503.06376	0.04219
1501.77799	0.04273
1500.49222	0.04316
1499.20645	0.04354
1497.92068	0.04389
1496.63491	0.04425
1495.34915	0.04464
1494.06338	0.04504
1492.77761	0.04538
1491.49184	0.04568
1490.20607	0.04597
1488.92030	0.04629
1487.63453	0.04666
1486.34876	0.04711
1485.06299	0.04763
1483.77723	0.04819
1482.49146	0.04874
1481.20569	0.04930
1479.91992	0.04990
1478.63415	0.05053
1477.34838	0.05116
1476.06261	0.05176
1474.77684	0.05230
1473.49108	0.05281
1472.20531	0.05335
1470.91954	0.05392
1469.63377	0.05444
1468.34800	0.05485
1467.06223	0.05516
1465.77646	0.05543
1464.49069	0.05576
1463.20492	0.05622
1461.91916	0.05674
1460.63339	0.05725
1459.34762	0.05768
1458.06185	0.05805
1456.77608	0.05846
1455.49031	0.05890
1454.20454	0.05925
1452.91877	0.05944
1451.63301	0.05949
1450.34724	0.05951
1449.06147	0.05952
1447.77570	0.05950
1446.48993	0.05944
1445.20416	0.05932
1443.91839	0.05914
1442.63262	0.05893
1441.34685	0.05870
1440.06109	0.05845
1438.77532	0.05820
1437.48955	0.05801
1436.20378	0.05797
1434.91801	0.05812
1433.63224	0.05837
1432.34647	0.05867
1431.06070	0.05905
1429.77494	0.05956
1428.48917	0.06018
1427.20340	0.06088
1425.91763	0.06158
1424.63186	0.06227
1423.34609	0.06294
1422.06032	0.06354
1420.77455	0.06407
1419.48878	0.06455
1418.20302	0.06500
1416.91725	0.06536
1415.63148	0.06558
1414.34571	0.06566
1413.05994	0.06562
1411.77417	0.06547
1410.48840	0.06522
1409.20263	0.06486
1407.91687	0.06436
1406.63110	0.06372
1405.34533	0.06294
1404.05956	0.06206
1402.77379	0.06108
1401.48802	0.06000
1400.20225	0.05881
1398.91648	0.05756
1397.63071	0.05630
1396.34495	0.05503
1395.05918	0.05376
1393.77341	0.05248
1392.48764	0.05123
1391.20187	0.05001
1389.91610	0.04884
1388.63033	0.04773
1387.34456	0.04666
1386.05880	0.04561
1384.77303	0.04458
1383.48726	0.04355
1382.20149	0.04255
1380.91572	0.04158
1379.62995	0.04061
1378.34418	0.03961
1377.05841	0.03856
1375.77264	0.03748
1374.48688	0.03643
1373.20111	0.03547
1371.91534	0.03458
1370.62957	0.03372
1369.34380	0.03286
1368.05803	0.03200
1366.77226	0.03113
1365.48649	0.03029
1364.20073	0.02951
1362.91496	0.02882
1361.62919	0.02824
1360.34342	0.02774
1359.05765	0.02730
1357.77188	0.02688
1356.48611	0.02645
1355.20034	0.02599
1353.91457	0.02552
1352.62881	0.02506
1351.34304	0.02463
1350.05727	0.02427
1348.77150	0.02399
1347.48573	0.02374
1346.19996	0.02349
1344.91419	0.02319
1343.62842	0.02286
1342.34266	0.02253
1341.05689	0.02223
1339.77112	0.02196
1338.48535	0.02171
1337.19958	0.02148
1335.91381	0.02128
1334.62804	0.02109
1333.34227	0.02090
1332.05650	0.02073
1330.77074	0.02056
1329.48497	0.02040
1328.19920	0.02026
1326.91343	0.02013
1325.62766	0.02000
1324.34189	0.01984
1323.05612	0.01967
1321.77035	0.01952
1320.48459	0.01941
1319.19882	0.01930
1317.91305	0.01917
1316.62728	0.01900
1315.34151	0.01881
1314.05574	0.01863
1312.76997	0.01847
1311.48420	0.01834
1310.19843	0.01821
1308.91267	0.01808
1307.62690	0.01796
1306.34113	0.01788
1305.05536	0.01786
1303.76959	0.01789
1302.48382	0.01789
1301.19805	0.01782
1299.91228	0.01772
1298.62652	0.01759
1297.34075	0.01746
1296.05498	0.01733
1294.76921	0.01724
1293.48344	0.01721
1292.19767	0.01722
1290.91190	0.01719
1289.62613	0.01714
1288.34036	0.01707
1287.05460	0.01701
1285.76883	0.01693
1284.48306	0.01683
1283.19729	0.01675
1281.91152	0.01676
1280.62575	0.01686
1279.33998	0.01695
1278.05421	0.01696
1276.76845	0.01686
1275.48268	0.01670
1274.19691	0.01655
1272.91114	0.01645
1271.62537	0.01641
1270.33960	0.01644
1269.05383	0.01653
1267.76806	0.01661
1266.48229	0.01666
1265.19653	0.01665
1263.91076	0.01660
1262.62499	0.01655
1261.33922	0.01651
1260.05345	0.01649
1258.76768	0.01649
1257.48191	0.01649
1256.19614	0.01652
1254.91037	0.01657
1253.62461	0.01662
1252.33884	0.01668
1251.05307	0.01675
1249.76730	0.01681
1248.48153	0.01686
1247.19576	0.01687
1245.90999	0.01685
1244.62422	0.01680
1243.33846	0.01676
1242.05269	0.01676
1240.76692	0.01681
1239.48115	0.01691
1238.19538	0.01704
1236.90961	0.01716
1235.62384	0.01726
1234.33807	0.01734
1233.05230	0.01741
1231.76654	0.01745
1230.48077	0.01747
1229.19500	0.01747
1227.90923	0.01747
1226.62346	0.01747
1225.33769	0.01748
1224.05192	0.01751
1222.76615	0.01760
1221.48039	0.01773
1220.19462	0.01789
1218.90885	0.01803
1217.62308	0.01817
1216.33731	0.01831
1215.05154	0.01845
1213.76577	0.01860
1212.48000	0.01876
1211.19423	0.01894
1209.90847	0.01914
1208.62270	0.01934
1207.33693	0.01952
1206.05116	0.01964
1204.76539	0.01970
1203.47962	0.01972
1202.19385	0.01976
1200.90808	0.01990
1199.62232	0.02021
1198.33655	0.02045
1197.05078	0.02071
1195.76501	0.02095
1194.47924	0.02114
1193.19347	0.02130
1191.90770	0.02144
1190.62193	0.02157
1189.33616	0.02170
1188.05040	0.02182
1186.76463	0.02190
1185.47886	0.02198
1184.19309	0.02207
1182.90732	0.02222
1181.62155	0.02243
1180.33578	0.02264
1179.05001	0.02285
1177.76425	0.02305
1176.47848	0.02327
1175.19271	0.02353
1173.90694	0.02382
1172.62117	0.02414
1171.33540	0.02452
1170.04963	0.02493
1168.76386	0.02532
1167.47809	0.02567
1166.19233	0.02597
1164.90656	0.02625
1163.62079	0.02653
1162.33502	0.02680
1161.04925	0.02707
1159.76348	0.02733
1158.47771	0.02758
1157.19194	0.02783
1155.90618	0.02812
1154.62041	0.02848
1153.33464	0.02892
1152.04887	0.02942
1150.76310	0.02993
1149.47733	0.03043
1148.19156	0.03093
1146.90579	0.03144
1145.62002	0.03198
1144.33426	0.03252
1143.04849	0.03305
1141.76272	0.03360
1140.47695	0.03423
1139.19118	0.03494
1137.90541	0.03574
1136.61964	0.03660
1135.33387	0.03755
1134.04811	0.03864
1132.76234	0.03986
1131.47657	0.04120
1130.19080	0.04266
1128.90503	0.04423
1127.61926	0.04591
1126.33349	0.04767
1125.04772	0.04950
1123.76195	0.05142
1122.47619	0.05343
1121.19042	0.05555
1119.90465	0.05778
1118.61888	0.06010
1117.33311	0.06250
1116.04734	0.06498
1114.76157	0.06752
1113.47580	0.07010
1112.19004	0.07265
1110.90427	0.07513
1109.61850	0.07757
1108.33273	0.08002
1107.04696	0.08248
1105.76119	0.08492
1104.47542	0.08737
1103.18965	0.08984
1101.90388	0.09227
1100.61812	0.09458
1099.33235	0.09672
1098.04658	0.09874
1096.76081	0.10072
1095.47504	0.10271
1094.18927	0.10466
1092.90350	0.10648
1091.61773	0.10813
1090.33197	0.10960
1089.04620	0.11096
1087.76043	0.11223
1086.47466	0.11345
1085.18889	0.11466
1083.90312	0.11591
1082.61735	0.11728
1081.33158	0.11884
1080.04581	0.12056
1078.76005	0.12238
1077.47428	0.12424
1076.18851	0.12612
1074.90274	0.12808
1073.61697	0.13012
1072.33120	0.13231
1071.04543	0.13468
1069.75966	0.13720
1068.47390	0.13979
1067.18813	0.14237
1065.90236	0.14491
1064.61659	0.14745
1063.33082	0.15002
1062.04505	0.15261
1060.75928	0.15519
1059.47351	0.15774
1058.18774	0.16029
1056.90198	0.16282
1055.61621	0.16535
1054.33044	0.16786
1053.04467	0.17038
1051.75890	0.17291
1050.47313	0.17548
1049.18736	0.17805
1047.90159	0.18056
1046.61583	0.18299
1045.33006	0.18538
1044.04429	0.18777
1042.75852	0.19018
1041.47275	0.19263
1040.18698	0.19509
1038.90121	0.19749
1037.61544	0.19974
1036.32967	0.20184
1035.04391	0.20383
1033.75814	0.20572
1032.47237	0.20743
1031.18660	0.20888
1029.90083	0.21004
1028.61506	0.21095
1027.32929	0.21160
1026.04352	0.21193
1024.75775	0.21185
1023.47199	0.21137
1022.18622	0.21054
1020.90045	0.20942
1019.61468	0.20801
1018.32891	0.20624
1017.04314	0.20411
1015.75737	0.20169
1014.47160	0.19904
1013.18584	0.19615
1011.90007	0.19300
1010.61430	0.18960
1009.32853	0.18599
1008.04276	0.18222
1006.75699	0.17831
1005.47122	0.17424
1004.18545	0.17002
1002.89968	0.16564
1001.61392	0.16115
1000.32815	0.15660
999.04238	0.15208
997.75661	0.14763
996.47084	0.14329
995.18507	0.13907
993.89930	0.13494
992.61353	0.13084
991.32777	0.12674
990.04200	0.12271
988.75623	0.11886
987.47046	0.11523
986.18469	0.11181
984.89892	0.10857
983.61315	0.10548
982.32738	0.10252
981.04161	0.09968
979.75585	0.09691
978.47008	0.09422
977.18431	0.09166
975.89854	0.08932
974.61277	0.08727
973.32700	0.08552
972.04123	0.08403
970.75546	0.08282
969.46970	0.08198
968.18393	0.08159
966.89816	0.08166
965.61239	0.08207
964.32662	0.08263
963.04085	0.08316
961.75508	0.08347
960.46931	0.08339
959.18354	0.08283
957.89778	0.08181
956.61201	0.08046
955.32624	0.07895
954.04047	0.07739
952.75470	0.07579
951.46893	0.07413
950.18316	0.07243
948.89739	0.07074
947.61163	0.06913
946.32586	0.06763
945.04009	0.06624
943.75432	0.06496
942.46855	0.06373
941.18278	0.06252
939.89701	0.06133
938.61124	0.06017
937.32547	0.05909
936.03971	0.05805
934.75394	0.05706
933.46817	0.05610
932.18240	0.05518
930.89663	0.05433
929.61086	0.05355
928.32509	0.05285
927.03932	0.05222
925.75356	0.05161
924.46779	0.05099
923.18202	0.05037
921.89625	0.04979
920.61048	0.04929
919.32471	0.04882
918.03894	0.04833
916.75317	0.04780
915.46740	0.04725
914.18164	0.04672
912.89587	0.04626
911.61010	0.04587
910.32433	0.04555
909.03856	0.04526
907.75279	0.04497
906.46702	0.04464
905.18125	0.04425
903.89549	0.04379
902.60972	0.04330
901.32395	0.04281
900.03818	0.04235
898.75241	0.04187
897.46664	0.04137
896.18087	0.04089
894.89510	0.04053
893.60933	0.04036
892.32357	0.04033
891.03780	0.04035
889.75203	0.04032
888.46626	0.04026
887.18049	0.04032
885.89472	0.04067
884.60895	0.04145
883.32318	0.04268
882.03742	0.04424
880.75165	0.04583
879.46588	0.04720
878.18011	0.04827
876.89434	0.04915
875.60857	0.04996
874.32280	0.05067
873.03703	0.05106
871.75126	0.05097
870.46550	0.05042
869.17973	0.04957
867.89396	0.04855
866.60819	0.04740
865.32242	0.04614
864.03665	0.04484
862.75088	0.04357
861.46511	0.04235
860.17935	0.04115
858.89358	0.04002
857.60781	0.03902
856.32204	0.03819
855.03627	0.03755
853.75050	0.03705
852.46473	0.03664
851.17896	0.03630
849.89319	0.03599
848.60743	0.03570
847.32166	0.03540
846.03589	0.03509
844.75012	0.03475
843.46435	0.03437
842.17858	0.03398
840.89281	0.03365
839.60704	0.03340
838.32128	0.03321
837.03551	0.03302
835.74974	0.03277
834.46397	0.03245
833.17820	0.03208
831.89243	0.03172
830.60666	0.03141
829.32089	0.03116
828.03512	0.03095
826.74936	0.03078
825.46359	0.03068
824.17782	0.03062
822.89205	0.03057
821.60628	0.03053
820.32051	0.03052
819.03474	0.03056
817.74897	0.03059
816.46321	0.03054
815.17744	0.03039
813.89167	0.03022
812.60590	0.03013
811.32013	0.03017
810.03436	0.03030
808.74859	0.03050
807.46282	0.03073
806.17705	0.03093
804.89129	0.03108
803.60552	0.03118
802.31975	0.03132
801.03398	0.03151
799.74821	0.03170
798.46244	0.03181
797.17667	0.03184
795.89090	0.03180
794.60513	0.03174
793.31937	0.03168
792.03360	0.03165
790.74783	0.03168
789.46206	0.03175
788.17629	0.03182
786.89052	0.03189
785.60475	0.03196
784.31898	0.03205
783.03322	0.03212
781.74745	0.03216
780.46168	0.03215
779.17591	0.03207
777.89014	0.03194
776.60437	0.03181
775.31860	0.03172
774.03283	0.03169
772.74706	0.03173
771.46130	0.03180
770.17553	0.03183
768.88976	0.03177
767.60399	0.03162
766.31822	0.03146
765.03245	0.03132
763.74668	0.03123
762.46091	0.03118
761.17515	0.03117
759.88938	0.03119
758.60361	0.03124
757.31784	0.03133
756.03207	0.03145
754.74630	0.03154
753.46053	0.03154
752.17476	0.03140
750.88899	0.03117
749.60323	0.03094
748.31746	0.03077
747.03169	0.03070
745.74592	0.03065
744.46015	0.03054
743.17438	0.03037
741.88861	0.03019
740.60284	0.03006
739.31708	0.02999
738.03131	0.03001
736.74554	0.03013
735.45977	0.03030
734.17400	0.03043
732.88823	0.03043
731.60246	0.03034
730.31669	0.03024
729.03092	0.03017
727.74516	0.03011
726.45939	0.03006
725.17362	0.03006
723.88785	0.03013
722.60208	0.02997
721.31631	0.02967
720.03054	0.02939
718.74477	0.02922
717.45901	0.02918
716.17324	0.02922
714.88747	0.02931
713.60170	0.02941
712.31593	0.02947
711.03016	0.02949
709.74439	0.02950
708.45862	0.02952
707.17285	0.02952
705.88709	0.02950
704.60132	0.02944
703.31555	0.02937
702.02978	0.02932
700.74401	0.02930
699.45824	0.02929
698.17247	0.02929
696.88670	0.02929
695.60094	0.02928
694.31517	0.02930
693.02940	0.02934
691.74363	0.02937
690.45786	0.02933
689.17209	0.02922
687.88632	0.02908
686.60055	0.02898
685.31478	0.02892
684.02902	0.02891
682.74325	0.02890
681.45748	0.02888
680.17171	0.02884
678.88594	0.02880
677.60017	0.02877
676.31440	0.02877
675.02863	0.02877
673.74287	0.02880
672.45710	0.02884
671.17133	0.02889
669.88556	0.02897
668.59979	0.02919
667.31402	0.02922
666.02825	0.02895
664.74248	0.02883
663.45671	0.02875
662.17095	0.02870
660.88518	0.02873
659.59941	0.02882
658.31364	0.02892
657.02787	0.02903
655.74210	0.02913
654.45633	0.02924
653.17056	0.02940
651.88480	0.02962
650.59903	0.02990
649.31326	0.03016
648.02749	0.03036
646.74172	0.03051
645.45595	0.03065
644.17018	0.03081
642.88441	0.03098
641.59864	0.03112
640.31288	0.03126
639.02711	0.03145
637.74134	0.03172
636.45557	0.03207
635.16980	0.03243
633.88403	0.03279
632.59826	0.03318
631.31249	0.03344
630.02673	0.03302
628.74096	0.03228
627.45519	0.03338
626.16942	0.03271
624.88365	0.03097
623.59788	0.02963
622.31211	0.02928
621.02634	0.03013
619.74057	0.03221
618.45481	0.03564
617.16904	0.04045
615.88327	0.04600
614.59750	0.05076
613.31173	0.05338
612.02596	0.05406
610.74019	0.05483
609.45442	0.05772
608.16866	0.06268
606.88289	0.06807
605.59712	0.07252
604.31135	0.07571
603.02558	0.07773
601.73981	0.07862
600.45404	0.07843
599.16827	0.07728
597.88250	0.07541
596.59674	0.07314
595.31097	0.07080
594.02520	0.06872
592.73943	0.06709
591.45366	0.06594
590.16789	0.06521
588.88212	0.06490
587.59635	0.06506
586.31059	0.06572
585.02482	0.06681
583.73905	0.06820
582.45328	0.06981
581.16751	0.07172
579.88174	0.07399
578.59597	0.07655
577.31020	0.07915
576.02443	0.08149
574.73867	0.08344
573.45290	0.08511
572.16713	0.08672
570.88136	0.08847
569.59559	0.09047
568.30982	0.09270
567.02405	0.09506
565.73828	0.09736
564.45251	0.09927
563.16675	0.10032
561.88098	0.10010
560.59521	0.09854
559.30944	0.09583
558.02367	0.09231
556.73790	0.08826
555.45213	0.08396
554.16636	0.07965
552.88060	0.07556
551.59483	0.07175
550.30906	0.06825
549.02329	0.06509
547.73752	0.06235
546.45175	0.06007
545.16598	0.05813
543.88021	0.05636
542.59444	0.05468
541.30868	0.05313
540.02291	0.05179
538.73714	0.05062
537.45137	0.04948
536.16560	0.04831
534.87983	0.04720
533.59406	0.04632
532.30829	0.04569
531.02253	0.04516
529.73676	0.04455
528.45099	0.04383
527.16522	0.04306
525.87945	0.04229
524.59368	0.04155
523.30791	0.04085
522.02214	0.04021
520.73637	0.03960
519.45061	0.03901
518.16484	0.03846
516.87907	0.03798
515.59330	0.03754
514.30753	0.03709
513.02176	0.03663
511.73599	0.03620
510.45022	0.03587
509.16446	0.03563
507.87869	0.03543
506.59292	0.03521
505.30715	0.03495
504.02138	0.03465
502.73561	0.03434
501.44984	0.03408
500.16407	0.03391
498.87830	0.03382
497.59254	0.03377
496.30677	0.03370
495.02100	0.03358
493.73523	0.03336
492.44946	0.03307
491.16369	0.03279
489.87792	0.03262
488.59215	0.03261
487.30639	0.03276
486.02062	0.03301
484.73485	0.03329
483.44908	0.03353
482.16331	0.03375
480.87754	0.03399
479.59177	0.03426
478.30600	0.03456
477.02023	0.03489
475.73447	0.03529
474.44870	0.03575
473.16293	0.03617
471.87716	0.03647
470.59139	0.03658
469.30562	0.03651
468.01985	0.03628
466.73408	0.03597
465.44832	0.03567
464.16255	0.03545
462.87678	0.03526
461.59101	0.03505
460.30524	0.03477
459.01947	0.03444
457.73370	0.03411
456.44793	0.03379
455.16216	0.03345
453.87640	0.03310
452.59063	0.03278
451.30486	0.03255
450.01909	0.03240
448.73332	0.03231
447.44755	0.03227
446.16178	0.03225
444.87601	0.03222
443.59025	0.03216
442.30448	0.03211
441.01871	0.03207
439.73294	0.03200
438.44717	0.03185
437.16140	0.03165
435.87563	0.03146
434.58986	0.03134
433.30409	0.03127
432.01833	0.03123
430.73256	0.03120
429.44679	0.03115
428.16102	0.03108
426.87525	0.03098
425.58948	0.03087
424.30371	0.03076
423.01794	0.03067
421.73218	0.03057
420.44641	0.03044
419.16064	0.03026
417.87487	0.03008
416.58910	0.02990
415.30333	0.02969
414.01756	0.02947
412.73179	0.02925
411.44602	0.02905
410.16026	0.02885
408.87449	0.02865
407.58872	0.02843
406.30295	0.02822
405.01718	0.02804
403.73141	0.02796
402.44564	0.02801
401.15987	0.02815
399.87411	0.02833
