3997.45528	0.01261
3996.16951	0.01340
3994.88374	0.01398
3993.59798	0.01411
3992.31221	0.01370
3991.02644	0.01295
3989.74067	0.01221
3988.45490	0.01174
3987.16913	0.01160
3985.88336	0.01175
3984.59759	0.01205
3983.31183	0.01233
3982.02606	0.01249
3980.74029	0.01272
3979.45452	0.01325
3978.16875	0.01404
3976.88298	0.01464
3975.59721	0.01465
3974.31144	0.01414
3973.02567	0.01354
3971.73991	0.01317
3970.45414	0.01298
3969.16837	0.01278
3967.88260	0.01258
3966.59683	0.01262
3965.31106	0.01311
3964.02529	0.01385
3962.73952	0.01426
3961.45376	0.01382
3960.16799	0.01269
3958.88222	0.01167
3957.59645	0.01158
3956.31068	0.01246
3955.02491	0.01365
3953.73914	0.01450
3952.45337	0.01496
3951.16760	0.01536
3949.88184	0.01591
3948.59607	0.01638
3947.31030	0.01640
3946.02453	0.01588
3944.73876	0.01507
3943.45299	0.01421
3942.16722	0.01339
3940.88145	0.01275
3939.59569	0.01260
3938.30992	0.01315
3937.02415	0.01417
3935.73838	0.01508
3934.45261	0.01542
3933.16684	0.01515
3931.88107	0.01459
3930.59530	0.01418
3929.30953	0.01422
3928.02377	0.01472
3926.73800	0.01536
3925.45223	0.01576
3924.16646	0.01575
3922.88069	0.01553
3921.59492	0.01550
3920.30915	0.01596
3919.02338	0.01692
3917.73762	0.01800
3916.45185	0.01866
3915.16608	0.01859
3913.88031	0.01797
3912.59454	0.01725
3911.30877	0.01671
3910.02300	0.01636
3908.73723	0.01613
3907.45146	0.01608
3906.16570	0.01631
3904.87993	0.01654
3903.59416	0.01631
3902.30839	0.01546
3901.02262	0.01445
3899.73685	0.01390
3898.45108	0.01400
3897.16531	0.01440
3895.87955	0.01479
3894.59378	0.01513
3893.30801	0.01556
3892.02224	0.01599
3890.73647	0.01614
3889.45070	0.01597
3888.16493	0.01579
3886.87916	0.01585
3885.59339	0.01607
3884.30763	0.01621
3883.02186	0.01616
3881.73609	0.01600
3880.45032	0.01584
3879.16455	0.01574
3877.87878	0.01575
3876.59301	0.01581
3875.30724	0.01568
3874.02148	0.01515
3872.73571	0.01453
3871.44994	0.01442
3870.16417	0.01508
3868.87840	0.01610
3867.59263	0.01692
3866.30686	0.01713
3865.02109	0.01662
3863.73532	0.01567
3862.44956	0.01488
3861.16379	0.01464
3859.87802	0.01471
3858.59225	0.01464
3857.30648	0.01440
3856.02071	0.01441
3854.73494	0.01490
3853.44917	0.01537
3852.16341	0.01526
3850.87764	0.01469
3849.59187	0.01424
3848.30610	0.01435
3847.02033	0.01505
3845.73456	0.01605
3844.44879	0.01693
3843.16302	0.01716
3841.87725	0.01646
3840.59149	0.01515
3839.30572	0.01397
3838.01995	0.01343
3836.73418	0.01347
3835.44841	0.01380
3834.16264	0.01422
3832.87687	0.01464
3831.59110	0.01500
3830.30534	0.01522
3829.01957	0.01531
3827.73380	0.01525
3826.44803	0.01500
3825.16226	0.01463
3823.87649	0.01445
3822.59072	0.01476
3821.30495	0.01538
3820.01918	0.01595
3818.73342	0.01633
3817.44765	0.01657
3816.16188	0.01659
3814.87611	0.01632
3813.59034	0.01598
3812.30457	0.01578
3811.01880	0.01568
3809.73303	0.01567
3808.44726	0.01580
3807.16150	0.01601
3805.87573	0.01609
3804.58996	0.01611
3803.30419	0.01626
3802.01842	0.01643
3800.73265	0.01632
3799.44688	0.01596
3798.16111	0.01568
3796.87535	0.01555
3795.58958	0.01534
3794.30381	0.01496
3793.01804	0.01467
3791.73227	0.01479
3790.44650	0.01538
3789.16073	0.01609
3787.87496	0.01641
3786.58919	0.01618
3785.30343	0.01575
3784.01766	0.01555
3782.73189	0.01572
3781.44612	0.01594
3780.16035	0.01575
3778.87458	0.01492
3777.58881	0.01369
3776.30304	0.01264
3775.01728	0.01230
3773.73151	0.01272
3772.44574	0.01357
3771.15997	0.01432
3769.87420	0.01466
3768.58843	0.01472
3767.30266	0.01490
3766.01689	0.01544
3764.73112	0.01615
3763.44536	0.01659
3762.15959	0.01652
3760.87382	0.01599
3759.58805	0.01528
3758.30228	0.01465
3757.01651	0.01420
3755.73074	0.01382
3754.44497	0.01344
3753.15921	0.01303
3751.87344	0.01268
3750.58767	0.01258
3749.30190	0.01279
3748.01613	0.01322
3746.73036	0.01398
3745.44459	0.01503
3744.15882	0.01595
3742.87305	0.01642
3741.58729	0.01643
3740.30152	0.01591
3739.01575	0.01487
3737.72998	0.01367
3736.44421	0.01281
3735.15844	0.01249
3733.87267	0.01253
3732.58690	0.01249
3731.30114	0.01212
3730.01537	0.01167
3728.72960	0.01172
3727.44383	0.01251
3726.15806	0.01370
3724.87229	0.01472
3723.58652	0.01517
3722.30075	0.01498
3721.01498	0.01442
3719.72922	0.01390
3718.44345	0.01376
3717.15768	0.01405
3715.87191	0.01455
3714.58614	0.01501
3713.30037	0.01531
3712.01460	0.01548
3710.72883	0.01555
3709.44307	0.01554
3708.15730	0.01542
3706.87153	0.01515
3705.58576	0.01475
3704.29999	0.01439
3703.01422	0.01436
3701.72845	0.01477
3700.44268	0.01546
3699.15691	0.01612
3697.87115	0.01651
3696.58538	0.01655
3695.29961	0.01616
3694.01384	0.01535
3692.72807	0.01441
3691.44230	0.01393
3690.15653	0.01444
3688.87076	0.01581
3687.58500	0.01710
3686.29923	0.01741
3685.01346	0.01670
3683.72769	0.01568
3682.44192	0.01504
3681.15615	0.01495
3679.87038	0.01519
3678.58461	0.01576
3677.29884	0.01665
3676.01308	0.01725
3674.72731	0.01674
3673.44154	0.01533
3672.15577	0.01424
3670.87000	0.01430
3669.58423	0.01516
3668.29846	0.01599
3667.01269	0.01648
3665.72693	0.01684
3664.44116	0.01725
3663.15539	0.01753
3661.86962	0.01744
3660.58385	0.01697
3659.29808	0.01633
3658.01231	0.01569
3656.72654	0.01511
3655.44077	0.01459
3654.15501	0.01419
3652.86924	0.01391
3651.58347	0.01359
3650.29770	0.01321
3649.01193	0.01300
3647.72616	0.01325
3646.44039	0.01400
3645.15462	0.01508
3643.86886	0.01627
3642.58309	0.01733
3641.29732	0.01796
3640.01155	0.01804
3638.72578	0.01778
3637.44001	0.01749
3636.15424	0.01726
3634.86847	0.01684
3633.58270	0.01598
3632.29694	0.01496
3631.01117	0.01443
3629.72540	0.01483
3628.43963	0.01599
3627.15386	0.01733
3625.86809	0.01837
3624.58232	0.01900
3623.29655	0.01942
3622.01079	0.01984
3620.72502	0.02019
3619.43925	0.02019
3618.15348	0.01981
3616.86771	0.01928
3615.58194	0.01889
3614.29617	0.01874
3613.01040	0.01885
3611.72463	0.01917
3610.43887	0.01959
3609.15310	0.02000
3607.86733	0.02030
3606.58156	0.02044
3605.29579	0.02040
3604.01002	0.02021
3602.72425	0.02002
3601.43848	0.01998
3600.15272	0.02011
3598.86695	0.02040
3597.58118	0.02088
3596.29541	0.02153
3595.00964	0.02215
3593.72387	0.02245
3592.43810	0.02239
3591.15233	0.02226
3589.86656	0.02242
3588.58080	0.02279
3587.29503	0.02295
3586.00926	0.02263
3584.72349	0.02212
3583.43772	0.02195
3582.15195	0.02221
3580.86618	0.02248
3579.58041	0.02237
3578.29464	0.02204
3577.00888	0.02191
3575.72311	0.02217
3574.43734	0.02256
3573.15157	0.02275
3571.86580	0.02264
3570.58003	0.02250
3569.29426	0.02269
3568.00849	0.02328
3566.72273	0.02396
3565.43696	0.02443
3564.15119	0.02466
3562.86542	0.02473
3561.57965	0.02463
3560.29388	0.02430
3559.00811	0.02389
3557.72234	0.02384
3556.43657	0.02443
3555.15081	0.02540
3553.86504	0.02614
3552.57927	0.02624
3551.29350	0.02589
3550.00773	0.02571
3548.72196	0.02624
3547.43619	0.02748
3546.15042	0.02889
3544.86466	0.02977
3543.57889	0.02975
3542.29312	0.02904
3541.00735	0.02824
3539.72158	0.02783
3538.43581	0.02782
3537.15004	0.02791
3535.86427	0.02794
3534.57850	0.02806
3533.29274	0.02853
3532.00697	0.02935
3530.72120	0.03018
3529.43543	0.03066
3528.14966	0.03067
3526.86389	0.03040
3525.57812	0.03017
3524.29235	0.03019
3523.00659	0.03043
3521.72082	0.03068
3520.43505	0.03077
3519.14928	0.03075
3517.86351	0.03080
3516.57774	0.03095
3515.29197	0.03107
3514.00620	0.03104
3512.72043	0.03091
3511.43467	0.03078
3510.14890	0.03080
3508.86313	0.03108
3507.57736	0.03167
3506.29159	0.03239
3505.00582	0.03292
3503.72005	0.03298
3502.43428	0.03259
3501.14852	0.03200
3499.86275	0.03154
3498.57698	0.03146
3497.29121	0.03172
3496.00544	0.03208
3494.71967	0.03239
3493.43390	0.03268
3492.14813	0.03304
3490.86236	0.03336
3489.57660	0.03342
3488.29083	0.03325
3487.00506	0.03313
3485.71929	0.03323
3484.43352	0.03346
3483.14775	0.03356
3481.86198	0.03348
3480.57621	0.03345
3479.29045	0.03382
3478.00468	0.03471
3476.71891	0.03585
3475.43314	0.03682
3474.14737	0.03727
3472.86160	0.03719
3471.57583	0.03677
3470.29006	0.03630
3469.00429	0.03597
3467.71853	0.03591
3466.43276	0.03606
3465.14699	0.03626
3463.86122	0.03631
3462.57545	0.03626
3461.28968	0.03633
3460.00391	0.03668
3458.71814	0.03722
3457.43238	0.03767
3456.14661	0.03782
3454.86084	0.03774
3453.57507	0.03768
3452.28930	0.03779
3451.00353	0.03797
3449.71776	0.03805
3448.43199	0.03802
3447.14622	0.03807
3445.86046	0.03830
3444.57469	0.03855
3443.28892	0.03854
3442.00315	0.03826
3440.71738	0.03799
3439.43161	0.03798
3438.14584	0.03824
3436.86007	0.03857
3435.57431	0.03880
3434.28854	0.03887
3433.00277	0.03881
3431.71700	0.03869
3430.43123	0.03862
3429.14546	0.03867
3427.85969	0.03883
3426.57392	0.03899
3425.28815	0.03914
3424.00239	0.03938
3422.71662	0.03979
3421.43085	0.04029
3420.14508	0.04071
3418.85931	0.04090
3417.57354	0.04083
3416.28777	0.04065
3415.00200	0.04049
3413.71624	0.04037
3412.43047	0.04024
3411.14470	0.04004
3409.85893	0.03988
3408.57316	0.03997
3407.28739	0.04046
3406.00162	0.04129
3404.71585	0.04216
3403.43008	0.04268
3402.14432	0.04266
3400.85855	0.04231
3399.57278	0.04208
3398.28701	0.04205
3397.00124	0.04191
3395.71547	0.04172
3394.42970	0.04172
3393.14393	0.04198
3391.85817	0.04218
3390.57240	0.04204
3389.28663	0.04161
3388.00086	0.04127
3386.71509	0.04127
3385.42932	0.04150
3384.14355	0.04174
3382.85778	0.04193
3381.57201	0.04214
3380.28625	0.04242
3379.00048	0.04274
3377.71471	0.04305
3376.42894	0.04331
3375.14317	0.04345
3373.85740	0.04346
3372.57163	0.04343
3371.28586	0.04353
3370.00010	0.04384
3368.71433	0.04427
3367.42856	0.04461
3366.14279	0.04466
3364.85702	0.04437
3363.57125	0.04383
3362.28548	0.04323
3360.99971	0.04273
3359.71394	0.04246
3358.42818	0.04252
3357.14241	0.04294
3355.85664	0.04365
3354.57087	0.04444
3353.28510	0.04507
3351.99933	0.04540
3350.71356	0.04541
3349.42779	0.04519
3348.14202	0.04486
3346.85626	0.04455
3345.57049	0.04433
3344.28472	0.04424
3342.99895	0.04431
3341.71318	0.04445
3340.42741	0.04452
3339.14164	0.04444
3337.85587	0.04438
3336.57011	0.04457
3335.28434	0.04501
3333.99857	0.04546
3332.71280	0.04564
3331.42703	0.04553
3330.14126	0.04533
3328.85549	0.04529
3327.56972	0.04548
3326.28395	0.04576
3324.99819	0.04589
3323.71242	0.04579
3322.42665	0.04554
3321.14088	0.04522
3319.85511	0.04484
3318.56934	0.04441
3317.28357	0.04411
3315.99780	0.04422
3314.71204	0.04491
3313.42627	0.04598
3312.14050	0.04700
3310.85473	0.04754
3309.56896	0.04745
3308.28319	0.04685
3306.99742	0.04611
3305.71165	0.04562
3304.42588	0.04560
3303.14012	0.04589
3301.85435	0.04620
3300.56858	0.04633
3299.28281	0.04630
3297.99704	0.04614
3296.71127	0.04585
3295.42550	0.04556
3294.13973	0.04551
3292.85397	0.04571
3291.56820	0.04591
3290.28243	0.04588
3288.99666	0.04567
3287.71089	0.04558
3286.42512	0.04577
3285.13935	0.04618
3283.85358	0.04669
3282.56781	0.04719
3281.28205	0.04761
3279.99628	0.04781
3278.71051	0.04766
3277.42474	0.04716
3276.13897	0.04644
3274.85320	0.04566
3273.56743	0.04498
3272.28166	0.04465
3270.99590	0.04483
3269.71013	0.04542
3268.42436	0.04607
3267.13859	0.04649
3265.85282	0.04671
3264.56705	0.04687
3263.28128	0.04706
3261.99551	0.04721
3260.70974	0.04724
3259.42398	0.04715
3258.13821	0.04696
3256.85244	0.04676
3255.56667	0.04654
3254.28090	0.04627
3252.99513	0.04581
3251.70936	0.04514
3250.42359	0.04446
3249.13783	0.04406
3247.85206	0.04405
3246.56629	0.04424
3245.28052	0.04440
3243.99475	0.04447
3242.70898	0.04465
3241.42321	0.04503
3240.13744	0.04545
3238.85167	0.04563
3237.56591	0.04545
3236.28014	0.04501
3234.99437	0.04449
3233.70860	0.04401
3232.42283	0.04371
3231.13706	0.04372
3229.85129	0.04402
3228.56552	0.04444
3227.27976	0.04476
3225.99399	0.04483
3224.70822	0.04467
3223.42245	0.04436
3222.13668	0.04404
3220.85091	0.04379
3219.56514	0.04358
3218.27937	0.04338
3216.99360	0.04319
3215.70784	0.04310
3214.42207	0.04309
3213.13630	0.04310
3211.85053	0.04302
3210.56476	0.04292
3209.27899	0.04296
3207.99322	0.04323
3206.70745	0.04363
3205.42169	0.04386
3204.13592	0.04361
3202.85015	0.04287
3201.56438	0.04204
3200.27861	0.04162
3198.99284	0.04185
3197.70707	0.04244
3196.42130	0.04293
3195.13553	0.04311
3193.84977	0.04312
3192.56400	0.04316
3191.27823	0.04318
3189.99246	0.04304
3188.70669	0.04274
3187.42092	0.04249
3186.13515	0.04246
3184.84938	0.04252
3183.56362	0.04245
3182.27785	0.04219
3180.99208	0.04194
3179.70631	0.04189
3178.42054	0.04201
3177.13477	0.04207
3175.84900	0.04193
3174.56323	0.04158
3173.27746	0.04111
3171.99170	0.04063
3170.70593	0.04025
3169.42016	0.04002
3168.13439	0.03988
3166.84862	0.03968
3165.56285	0.03941
3164.27708	0.03926
3162.99131	0.03940
3161.70555	0.03980
3160.41978	0.04022
3159.13401	0.04056
3157.84824	0.04085
3156.56247	0.04110
3155.27670	0.04119
3153.99093	0.04099
3152.70516	0.04051
3151.41939	0.03998
3150.13363	0.03970
3148.84786	0.03974
3147.56209	0.03990
3146.27632	0.03997
3144.99055	0.03989
3143.70478	0.03977
3142.41901	0.03966
3141.13324	0.03956
3139.84748	0.03951
3138.56171	0.03950
3137.27594	0.03945
3135.99017	0.03929
3134.70440	0.03909
3133.41863	0.03904
3132.13286	0.03918
3130.84709	0.03929
3129.56132	0.03922
3128.27556	0.03902
3126.98979	0.03887
3125.70402	0.03880
3124.41825	0.03869
3123.13248	0.03846
3121.84671	0.03816
3120.56094	0.03788
3119.27517	0.03759
3117.98940	0.03730
3116.70364	0.03709
3115.41787	0.03707
3114.13210	0.03725
3112.84633	0.03752
3111.56056	0.03770
3110.27479	0.03764
3108.98902	0.03729
3107.70325	0.03675
3106.41749	0.03628
3105.13172	0.03620
3103.84595	0.03661
3102.56018	0.03728
3101.27441	0.03786
3099.98864	0.03820
3098.70287	0.03837
3097.41710	0.03847
3096.13133	0.03851
3094.84557	0.03849
3093.55980	0.03850
3092.27403	0.03855
3090.98826	0.03855
3089.70249	0.03838
3088.41672	0.03814
3087.13095	0.03803
3085.84518	0.03817
3084.55942	0.03844
3083.27365	0.03864
3081.98788	0.03864
3080.70211	0.03844
3079.41634	0.03813
3078.13057	0.03789
3076.84480	0.03785
3075.55903	0.03802
3074.27326	0.03821
3072.98750	0.03827
3071.70173	0.03818
3070.41596	0.03802
3069.13019	0.03786
3067.84442	0.03775
3066.55865	0.03770
3065.27288	0.03772
3063.98711	0.03774
3062.70135	0.03768
3061.41558	0.03753
3060.12981	0.03737
3058.84404	0.03736
3057.55827	0.03758
3056.27250	0.03796
3054.98673	0.03826
3053.70096	0.03826
3052.41519	0.03791
3051.12943	0.03731
3049.84366	0.03668
3048.55789	0.03628
3047.27212	0.03632
3045.98635	0.03674
3044.70058	0.03730
3043.41481	0.03766
3042.12904	0.03769
3040.84328	0.03746
3039.55751	0.03716
3038.27174	0.03695
3036.98597	0.03690
3035.70020	0.03696
3034.41443	0.03697
3033.12866	0.03687
3031.84289	0.03671
3030.55712	0.03658
3029.27136	0.03653
3027.98559	0.03652
3026.69982	0.03650
3025.41405	0.03646
3024.12828	0.03638
3022.84251	0.03620
3021.55674	0.03593
3020.27097	0.03560
3018.98521	0.03529
3017.69944	0.03500
3016.41367	0.03468
3015.12790	0.03435
3013.84213	0.03409
3012.55636	0.03402
3011.27059	0.03413
3009.98482	0.03429
3008.69905	0.03435
3007.41329	0.03431
3006.12752	0.03428
3004.84175	0.03433
3003.55598	0.03445
3002.27021	0.03456
3000.98444	0.03466
2999.69867	0.03484
2998.41290	0.03477
2997.12714	0.03464
2995.84137	0.03465
2994.55560	0.03483
2993.26983	0.03502
2991.98406	0.03505
2990.69829	0.03489
2989.41252	0.03464
2988.12675	0.03446
2986.84098	0.03447
2985.55522	0.03461
2984.26945	0.03468
2982.98368	0.03451
2981.69791	0.03417
2980.41214	0.03387
2979.12637	0.03377
2977.84060	0.03378
2976.55483	0.03373
2975.26907	0.03356
2973.98330	0.03329
2972.69753	0.03299
2971.41176	0.03272
2970.12599	0.03255
2968.84022	0.03244
2967.55445	0.03227
2966.26868	0.03202
2964.98291	0.03180
2963.69715	0.03168
2962.41138	0.03165
2961.12561	0.03162
2959.83984	0.03152
2958.55407	0.03137
2957.26830	0.03129
2955.98253	0.03151
2954.69676	0.03206
2953.41100	0.03268
2952.12523	0.03300
2950.83946	0.03287
2949.55369	0.03243
2948.26792	0.03194
2946.98215	0.03160
2945.69638	0.03146
2944.41061	0.03149
2943.12484	0.03159
2941.83908	0.03163
2940.55331	0.03153
2939.26754	0.03132
2937.98177	0.03105
2936.69600	0.03070
2935.41023	0.03020
2934.12446	0.02946
2932.83869	0.02852
2931.55293	0.02748
2930.26716	0.02641
2928.98139	0.02533
2927.69562	0.02429
2926.40985	0.02338
2925.12408	0.02263
2923.83831	0.02192
2922.55254	0.02110
2921.26677	0.02014
2919.98101	0.01922
2918.69524	0.01862
2917.40947	0.01863
2916.12370	0.01936
2914.83793	0.02070
2913.55216	0.02234
2912.26639	0.02398
2910.98062	0.02550
2909.69486	0.02680
2908.40909	0.02776
2907.12332	0.02832
2905.83755	0.02857
2904.55178	0.02869
2903.26601	0.02882
2901.98024	0.02908
2900.69447	0.02951
2899.40870	0.03007
2898.12294	0.03058
2896.83717	0.03086
2895.55140	0.03090
2894.26563	0.03084
2892.97986	0.03087
2891.69409	0.03099
2890.40832	0.03112
2889.12255	0.03119
2887.83678	0.03119
2886.55102	0.03108
2885.26525	0.03089
2883.97948	0.03070
2882.69371	0.03069
2881.40794	0.03086
2880.12217	0.03104
2878.83640	0.03109
2877.55063	0.03103
2876.26487	0.03099
2874.97910	0.03108
2873.69333	0.03123
2872.40756	0.03128
2871.12179	0.03116
2869.83602	0.03088
2868.55025	0.03056
2867.26448	0.03031
2865.97871	0.03012
2864.69295	0.02989
2863.40718	0.02953
2862.12141	0.02912
2860.83564	0.02879
2859.54987	0.02852
2858.26410	0.02804
2856.97833	0.02708
2855.69256	0.02566
2854.40680	0.02413
2853.12103	0.02289
2851.83526	0.02215
2850.54949	0.02197
2849.26372	0.02234
2847.97795	0.02323
2846.69218	0.02455
2845.40641	0.02603
2844.12064	0.02742
2842.83488	0.02850
2841.54911	0.02921
2840.26334	0.02960
2838.97757	0.02981
2837.69180	0.02995
2836.40603	0.03008
2835.12026	0.03014
2833.83449	0.03011
2832.54873	0.02998
2831.26296	0.02980
2829.97719	0.02970
2828.69142	0.02977
2827.40565	0.03001
2826.11988	0.03027
2824.83411	0.03039
2823.54834	0.03034
2822.26257	0.03019
2820.97681	0.03008
2819.69104	0.03004
2818.40527	0.03008
2817.11950	0.03019
2815.83373	0.03036
2814.54796	0.03058
2813.26219	0.03082
2811.97642	0.03102
2810.69066	0.03110
2809.40489	0.03097
2808.11912	0.03063
2806.83335	0.03026
2805.54758	0.03010
2804.26181	0.03020
2802.97604	0.03036
2801.69027	0.03035
2800.40450	0.03017
2799.11874	0.02993
2797.83297	0.02969
2796.54720	0.02947
2795.26143	0.02937
2793.97566	0.02947
2792.68989	0.02972
2791.40412	0.02992
2790.11835	0.02997
2788.83259	0.02985
2787.54682	0.02958
2786.26105	0.02918
2784.97528	0.02876
2783.68951	0.02848
2782.40374	0.02845
2781.11797	0.02864
2779.83220	0.02894
2778.54643	0.02925
2777.26067	0.02951
2775.97490	0.02966
2774.68913	0.02968
2773.40336	0.02960
2772.11759	0.02949
2770.83182	0.02940
2769.54605	0.02930
2768.26028	0.02914
2766.97452	0.02893
2765.68875	0.02877
2764.40298	0.02871
2763.11721	0.02872
2761.83144	0.02871
2760.54567	0.02865
2759.25990	0.02857
2757.97413	0.02851
2756.68836	0.02849
2755.40260	0.02850
2754.11683	0.02853
2752.83106	0.02853
2751.54529	0.02845
2750.25952	0.02831
2748.97375	0.02821
2747.68798	0.02821
2746.40221	0.02826
2745.11645	0.02828
2743.83068	0.02825
2742.54491	0.02821
2741.25914	0.02818
2739.97337	0.02813
2738.68760	0.02802
2737.40183	0.02789
2736.11606	0.02781
2734.83029	0.02783
2733.54453	0.02790
2732.25876	0.02798
2730.97299	0.02800
2729.68722	0.02796
2728.40145	0.02789
2727.11568	0.02780
2725.82991	0.02769
2724.54414	0.02756
2723.25838	0.02745
2721.97261	0.02741
2720.68684	0.02749
2719.40107	0.02760
2718.11530	0.02761
2716.82953	0.02742
2715.54376	0.02712
2714.25799	0.02691
2712.97222	0.02694
2711.68646	0.02718
2710.40069	0.02746
2709.11492	0.02763
2707.82915	0.02762
2706.54338	0.02748
2705.25761	0.02730
2703.97184	0.02713
2702.68607	0.02700
2701.40031	0.02692
2700.11454	0.02685
2698.82877	0.02676
2697.54300	0.02660
2696.25723	0.02642
2694.97146	0.02635
2693.68569	0.02646
2692.39992	0.02669
2691.11415	0.02690
2689.82839	0.02695
2688.54262	0.02684
2687.25685	0.02665
2685.97108	0.02653
2684.68531	0.02654
2683.39954	0.02662
2682.11377	0.02668
2680.82800	0.02666
2679.54224	0.02661
2678.25647	0.02654
2676.97070	0.02645
2675.68493	0.02635
2674.39916	0.02630
2673.11339	0.02634
2671.82762	0.02640
2670.54185	0.02642
2669.25608	0.02638
2667.97032	0.02635
2666.68455	0.02638
2665.39878	0.02641
2664.11301	0.02636
2662.82724	0.02620
2661.54147	0.02593
2660.25570	0.02564
2658.96993	0.02538
2657.68417	0.02518
2656.39840	0.02500
2655.11263	0.02488
2653.82686	0.02481
2652.54109	0.02473
2651.25532	0.02455
2649.96955	0.02426
2648.68378	0.02395
2647.39801	0.02373
2646.11225	0.02365
2644.82648	0.02377
2643.54071	0.02408
2642.25494	0.02439
2640.96917	0.02439
2639.68340	0.02401
2638.39763	0.02350
2637.11186	0.02321
2635.82609	0.02327
2634.54033	0.02348
2633.25456	0.02354
2631.96879	0.02331
2630.68302	0.02291
2629.39725	0.02258
2628.11148	0.02240
2626.82571	0.02232
2625.53994	0.02229
2624.25418	0.02229
2622.96841	0.02237
2621.68264	0.02248
2620.39687	0.02251
2619.11110	0.02234
2617.82533	0.02200
2616.53956	0.02166
2615.25379	0.02156
2613.96802	0.02169
2612.68226	0.02188
2611.39649	0.02198
2610.11072	0.02195
2608.82495	0.02186
2607.53918	0.02180
2606.25341	0.02192
2604.96764	0.02219
2603.68187	0.02247
2602.39611	0.02251
2601.11034	0.02230
2599.82457	0.02205
2598.53880	0.02199
2597.25303	0.02211
2595.96726	0.02214
2594.68149	0.02185
2593.39572	0.02135
2592.10995	0.02100
2590.82419	0.02100
2589.53842	0.02117
2588.25265	0.02117
2586.96688	0.02087
2585.68111	0.02048
2584.39534	0.02035
2583.10957	0.02058
2581.82380	0.02090
2580.53804	0.02094
2579.25227	0.02063
2577.96650	0.02023
2576.68073	0.02005
2575.39496	0.02013
2574.10919	0.02035
2572.82342	0.02057
2571.53765	0.02076
2570.25188	0.02087
2568.96612	0.02082
2567.68035	0.02059
2566.39458	0.02025
2565.10881	0.01991
2563.82304	0.01962
2562.53727	0.01950
2561.25150	0.01967
2559.96573	0.02006
2558.67997	0.02039
2557.39420	0.02043
2556.10843	0.02024
2554.82266	0.02008
2553.53689	0.02014
2552.25112	0.02039
2550.96535	0.02061
2549.67958	0.02057
2548.39381	0.02019
2547.10805	0.01967
2545.82228	0.01934
2544.53651	0.01935
2543.25074	0.01956
2541.96497	0.01968
2540.67920	0.01963
2539.39343	0.01950
2538.10766	0.01943
2536.82190	0.01940
2535.53613	0.01929
2534.25036	0.01911
2532.96459	0.01902
2531.67882	0.01915
2530.39305	0.01948
2529.10728	0.01995
2527.82151	0.02055
2526.53574	0.02118
2525.24998	0.02150
2523.96421	0.02125
2522.67844	0.02054
2521.39267	0.01985
2520.10690	0.01956
2518.82113	0.01968
2517.53536	0.01995
2516.24959	0.02013
2514.96383	0.02020
2513.67806	0.02023
2512.39229	0.02032
2511.10652	0.02045
2509.82075	0.02060
2508.53498	0.02069
2507.24921	0.02067
2505.96344	0.02050
2504.67767	0.02018
2503.39191	0.01979
2502.10614	0.01946
2500.82037	0.01927
2499.53460	0.01920
2498.24883	0.01913
2496.96306	0.01900
2495.67729	0.01887
2494.39152	0.01887
2493.10576	0.01904
2491.81999	0.01930
2490.53422	0.01947
2489.24845	0.01949
2487.96268	0.01942
2486.67691	0.01937
2485.39114	0.01938
2484.10537	0.01943
2482.81960	0.01954
2481.53384	0.01973
2480.24807	0.01986
2478.96230	0.01972
2477.67653	0.01930
2476.39076	0.01892
2475.10499	0.01883
2473.81922	0.01891
2472.53345	0.01884
2471.24769	0.01855
2469.96192	0.01831
2468.67615	0.01838
2467.39038	0.01871
2466.10461	0.01899
2464.81884	0.01895
2463.53307	0.01865
2462.24730	0.01838
2460.96153	0.01834
2459.67577	0.01834
2458.39000	0.01818
2457.10423	0.01796
2455.81846	0.01802
2454.53269	0.01839
2453.24692	0.01870
2451.96115	0.01864
2450.67538	0.01838
2449.38962	0.01829
2448.10385	0.01844
2446.81808	0.01861
2445.53231	0.01864
2444.24654	0.01864
2442.96077	0.01875
2441.67500	0.01888
2440.38923	0.01884
2439.10346	0.01858
2437.81770	0.01825
2436.53193	0.01806
2435.24616	0.01805
2433.96039	0.01808
2432.67462	0.01806
2431.38885	0.01805
2430.10308	0.01811
2428.81731	0.01818
2427.53155	0.01817
2426.24578	0.01808
2424.96001	0.01800
2423.67424	0.01807
2422.38847	0.01838
2421.10270	0.01886
2419.81693	0.01927
2418.53116	0.01935
2417.24539	0.01915
2415.95963	0.01889
2414.67386	0.01878
2413.38809	0.01875
2412.10232	0.01866
2410.81655	0.01844
2409.53078	0.01824
2408.24501	0.01820
2406.95924	0.01836
2405.67347	0.01856
2404.38771	0.01862
2403.10194	0.01849
2401.81617	0.01832
2400.53040	0.01828
2399.24463	0.01794
2397.95886	0.01830
2396.67309	0.01871
2395.38732	0.01886
2394.10156	0.01887
2392.81579	0.01889
2391.53002	0.01904
2390.24425	0.01929
2388.95848	0.01954
2387.67271	0.01970
2386.38694	0.01975
2385.10117	0.01972
2383.81540	0.01966
2382.52964	0.01960
2381.24387	0.01964
2379.95810	0.01985
2378.67233	0.02026
2377.38656	0.02075
2376.10079	0.02119
2374.81502	0.02151
2373.52925	0.02176
2372.24349	0.02204
2370.95772	0.02245
2369.67195	0.02301
2368.38618	0.02365
2367.10041	0.02421
2365.81464	0.02458
2364.52887	0.02475
2363.24310	0.02486
2361.95733	0.02504
2360.67157	0.02530
2359.38580	0.02554
2358.10003	0.02571
2356.81426	0.02582
2355.52849	0.02592
2354.24272	0.02602
2352.95695	0.02600
2351.67118	0.02571
2350.38542	0.02513
2349.09965	0.02430
2347.81388	0.02340
2346.52811	0.02267
2345.24234	0.02233
2343.95657	0.02244
2342.67080	0.02287
2341.38503	0.02339
2340.09926	0.02380
2338.81350	0.02403
2337.52773	0.02415
2336.24196	0.02425
2334.95619	0.02442
2333.67042	0.02469
2332.38465	0.02512
2331.09888	0.02576
2329.81311	0.02661
2328.52735	0.02743
2327.24158	0.02783
2325.95581	0.02747
2324.67004	0.02629
2323.38427	0.02456
2322.09850	0.02274
2320.81273	0.02117
2319.52696	0.02002
2318.24119	0.01922
2316.95543	0.01863
2315.66966	0.01820
2314.38389	0.01790
2313.09812	0.01768
2311.81235	0.01742
2310.52658	0.01712
2309.24081	0.01692
2307.95504	0.01694
2306.66928	0.01716
2305.38351	0.01742
2304.09774	0.01760
2302.81197	0.01769
2301.52620	0.01775
2300.24043	0.01774
2298.95466	0.01761
2297.66889	0.01743
2296.38312	0.01735
2295.09736	0.01748
2293.81159	0.01771
2292.52582	0.01784
2291.24005	0.01771
2289.95428	0.01728
2288.66851	0.01664
2287.38274	0.01593
2286.09697	0.01532
2284.81121	0.01485
2283.52544	0.01452
2282.23967	0.01435
2280.95390	0.01440
2279.66813	0.01461
2278.38236	0.01468
2277.09659	0.01439
2275.81082	0.01384
2274.52505	0.01348
2273.23929	0.01357
2271.95352	0.01391
2270.66775	0.01408
2269.38198	0.01386
2268.09621	0.01338
2266.81044	0.01294
2265.52467	0.01278
2264.23890	0.01307
2262.95314	0.01377
2261.66737	0.01457
2260.38160	0.01503
2259.09583	0.01493
2257.81006	0.01441
2256.52429	0.01380
2255.23852	0.01346
2253.95275	0.01362
2252.66698	0.01434
2251.38122	0.01544
2250.09545	0.01593
2248.80968	0.01472
2247.52391	0.01409
2246.23814	0.01296
2244.95237	0.01177
2243.66660	0.01100
2242.38083	0.01082
2241.09507	0.01097
2239.80930	0.01114
2238.52353	0.01121
2237.23776	0.01134
2235.95199	0.01177
2234.66622	0.01249
2233.38045	0.01311
2232.09468	0.01315
2230.80891	0.01248
2229.52315	0.01148
2228.23738	0.01063
2226.95161	0.01011
2225.66584	0.00965
2224.38007	0.00899
2223.09430	0.00826
2221.80853	0.00793
2220.52276	0.00819
2219.23700	0.00875
2217.95123	0.00930
2216.66546	0.00995
2215.37969	0.01087
2214.09392	0.01178
2212.80815	0.01204
2211.52238	0.01148
2210.23661	0.01079
2208.95084	0.01085
2207.66508	0.01165
2206.37931	0.01228
2205.09354	0.01200
2203.80777	0.01114
2202.52200	0.01064
2201.23623	0.01085
2199.95046	0.01117
2198.66469	0.01083
2197.37893	0.00982
2196.09316	0.00882
2194.80739	0.00846
2193.52162	0.00889
2192.23585	0.00976
2190.95008	0.01049
2189.66431	0.01051
2188.37854	0.00963
2187.09277	0.00832
2185.80701	0.00738
2184.52124	0.00718
2183.23547	0.00732
2181.94970	0.00723
2180.66393	0.00684
2179.37816	0.00647
2178.09239	0.00620
2176.80662	0.00587
2175.52085	0.00543
2174.23509	0.00512
2172.94932	0.00523
2171.66355	0.00590
2170.37778	0.00697
2169.09201	0.00785
2167.80624	0.00782
2166.52047	0.00662
2165.23470	0.00488
2163.94894	0.00362
2162.66317	0.00334
2161.37740	0.00383
2160.09163	0.00457
2158.80586	0.00515
2157.52009	0.00539
2156.23432	0.00531
2154.94855	0.00502
2153.66278	0.00460
2152.37702	0.00417
2151.09125	0.00406
2149.80548	0.00472
2148.51971	0.00623
2147.23394	0.00816
2145.94817	0.00989
2144.66240	0.01102
2143.37663	0.01138
2142.09087	0.01107
2140.80510	0.01047
2139.51933	0.00999
2138.23356	0.00974
2136.94779	0.00957
2135.66202	0.00944
2134.37625	0.00945
2133.09048	0.00965
2131.80471	0.00999
2130.51895	0.01043
2129.23318	0.01085
2127.94741	0.01099
2126.66164	0.01069
2125.37587	0.01019
2124.09010	0.00991
2122.80433	0.00995
2121.51856	0.01009
2120.23280	0.01022
2118.94703	0.01039
2117.66126	0.01062
2116.37549	0.01079
2115.08972	0.01086
2113.80395	0.01091
2112.51818	0.01094
2111.23241	0.01076
2109.94664	0.01041
2108.66088	0.01018
2107.37511	0.01030
2106.08934	0.01070
2104.80357	0.01113
2103.51780	0.01130
2102.23203	0.01101
2100.94626	0.01013
2099.66049	0.00820
2098.37473	0.00660
2097.08896	0.00598
2095.80319	0.00615
2094.51742	0.00678
2093.23165	0.00753
2091.94588	0.00815
2090.66011	0.00864
2089.37434	0.00910
2088.08857	0.00957
2086.80281	0.00992
2085.51704	0.00997
2084.23127	0.00974
2082.94550	0.00941
2081.65973	0.00915
2080.37396	0.00905
2079.08819	0.00907
2077.80242	0.00912
2076.51666	0.00901
2075.23089	0.00865
2073.94512	0.00808
2072.65935	0.00749
2071.37358	0.00705
2070.08781	0.00682
2068.80204	0.00676
2067.51627	0.00680
2066.23050	0.00690
2064.94474	0.00708
2063.65897	0.00731
2062.37320	0.00752
2061.08743	0.00754
2059.80166	0.00732
2058.51589	0.00695
2057.23012	0.00661
2055.94435	0.00641
2054.65859	0.00626
2053.37282	0.00597
2052.08705	0.00544
2050.80128	0.00467
2049.51551	0.00377
2048.22974	0.00281
2046.94397	0.00202
2045.65820	0.00173
2044.37243	0.00206
2043.08667	0.00268
2041.80090	0.00303
2040.51513	0.00290
2039.22936	0.00262
2037.94359	0.00261
2036.65782	0.00302
2035.37205	0.00363
2034.08628	0.00410
2032.80052	0.00420
2031.51475	0.00406
2030.22898	0.00401
2028.94321	0.00430
2027.65744	0.00479
2026.37167	0.00512
2025.08590	0.00500
2023.80013	0.00449
2022.51436	0.00391
2021.22860	0.00355
2019.94283	0.00342
2018.65706	0.00323
2017.37129	0.00263
2016.08552	0.00145
2014.79975	-0.00008
2013.51398	-0.00123
2012.22821	-0.00115
2010.94245	0.00032
2009.65668	0.00236
2008.37091	0.00389
2007.08514	0.00465
2005.79937	0.00515
2004.51360	0.00583
2003.22783	0.00646
2001.94206	0.00671
2000.65629	0.00666
1999.37053	0.00660
1998.08476	0.00661
1996.79899	0.00656
1995.51322	0.00653
1994.22745	0.00675
1992.94168	0.00730
1991.65591	0.00792
1990.37014	0.00834
1989.08438	0.00840
1987.79861	0.00801
1986.51284	0.00713
1985.22707	0.00597
1983.94130	0.00497
1982.65553	0.00440
1981.36976	0.00403
1980.08399	0.00328
1978.79822	0.00198
1977.51246	0.00073
1976.22669	0.00039
1974.94092	0.00118
1973.65515	0.00258
1972.36938	0.00387
1971.08361	0.00468
1969.79784	0.00506
1968.51207	0.00517
1967.22631	0.00523
1965.94054	0.00541
1964.65477	0.00574
1963.36900	0.00598
1962.08323	0.00599
1960.79746	0.00594
1959.51169	0.00626
1958.22592	0.00714
1956.94015	0.00836
1955.65439	0.00947
1954.36862	0.01019
1953.08285	0.01047
1951.79708	0.01043
1950.51131	0.01015
1949.22554	0.00968
1947.93977	0.00906
1946.65400	0.00836
1945.36823	0.00765
1944.08247	0.00709
1942.79670	0.00684
1941.51093	0.00695
1940.22516	0.00733
1938.93939	0.00784
1937.65362	0.00831
1936.36785	0.00866
1935.08208	0.00884
1933.79632	0.00894
1932.51055	0.00910
1931.22478	0.00945
1929.93901	0.00999
1928.65324	0.01053
1927.36747	0.01088
1926.08170	0.01086
1924.79593	0.01051
1923.51016	0.01002
1922.22440	0.00967
1920.93863	0.00965
1919.65286	0.00992
1918.36709	0.01027
1917.08132	0.01051
1915.79555	0.01057
1914.50978	0.01046
1913.22401	0.01018
1911.93825	0.00980
1910.65248	0.00954
1909.36671	0.00953
1908.08094	0.00973
1906.79517	0.00997
1905.50940	0.01013
1904.22363	0.01022
1902.93786	0.01028
1901.65209	0.01029
1900.36633	0.01020
1899.08056	0.01007
1897.79479	0.01000
1896.50902	0.01009
1895.22325	0.01026
1893.93748	0.01035
1892.65171	0.01023
1891.36594	0.00997
1890.08018	0.00976
1888.79441	0.00976
1887.50864	0.00991
1886.22287	0.01003
1884.93710	0.00997
1883.65133	0.00977
1882.36556	0.00959
1881.07979	0.00955
1879.79402	0.00964
1878.50826	0.00981
1877.22249	0.01002
1875.93672	0.01023
1874.65095	0.01039
1873.36518	0.01046
1872.07941	0.01049
1870.79364	0.01055
1869.50787	0.01067
1868.22211	0.01078
1866.93634	0.01084
1865.65057	0.01084
1864.36480	0.01084
1863.07903	0.01084
1861.79326	0.01083
1860.50749	0.01074
1859.22172	0.01056
1857.93595	0.01032
1856.65019	0.01011
1855.36442	0.01000
1854.07865	0.01005
1852.79288	0.01022
1851.50711	0.01040
1850.22134	0.01052
1848.93557	0.01057
1847.64980	0.01060
1846.36404	0.01067
1845.07827	0.01080
1843.79250	0.01091
1842.50673	0.01094
1841.22096	0.01088
1839.93519	0.01076
1838.64942	0.01059
1837.36365	0.01048
1836.07788	0.01050
1834.79212	0.01063
1833.50635	0.01077
1832.22058	0.01085
1830.93481	0.01083
1829.64904	0.01070
1828.36327	0.01045
1827.07750	0.01019
1825.79173	0.01000
1824.50597	0.00990
1823.22020	0.00979
1821.93443	0.00966
1820.64866	0.00954
1819.36289	0.00957
1818.07712	0.00985
1816.79135	0.01034
1815.50558	0.01091
1814.21981	0.01140
1812.93405	0.01168
1811.64828	0.01172
1810.36251	0.01159
1809.07674	0.01140
1807.79097	0.01128
1806.50520	0.01127
1805.21943	0.01129
1803.93366	0.01127
1802.64790	0.01114
1801.36213	0.01096
1800.07636	0.01077
1798.79059	0.01061
1797.50482	0.01050
1796.21905	0.01043
1794.93328	0.01044
1793.64751	0.01049
1792.36174	0.01051
1791.07598	0.01045
1789.79021	0.01035
1788.50444	0.01031
1787.21867	0.01033
1785.93290	0.01035
1784.64713	0.01032
1783.36136	0.01026
1782.07559	0.01020
1780.78983	0.01018
1779.50406	0.01018
1778.21829	0.01023
1776.93252	0.01035
1775.64675	0.01053
1774.36098	0.01072
1773.07521	0.01084
1771.78944	0.01083
1770.50367	0.01075
1769.21791	0.01072
1767.93214	0.01075
1766.64637	0.01077
1765.36060	0.01074
1764.07483	0.01070
1762.78906	0.01063
1761.50329	0.01048
1760.21752	0.01029
1758.93176	0.01015
1757.64599	0.01011
1756.36022	0.01008
1755.07445	0.00994
1753.78868	0.00968
1752.50291	0.00938
1751.21714	0.00909
1749.93137	0.00882
1748.64560	0.00853
1747.35984	0.00818
1746.07407	0.00779
1744.78830	0.00743
1743.50253	0.00718
1742.21676	0.00706
1740.93099	0.00702
1739.64522	0.00696
1738.35945	0.00687
1737.07369	0.00685
1735.78792	0.00706
1734.50215	0.00746
1733.21638	0.00789
1731.93061	0.00824
1730.64484	0.00848
1729.35907	0.00860
1728.07330	0.00862
1726.78753	0.00864
1725.50177	0.00877
1724.21600	0.00898
1722.93023	0.00921
1721.64446	0.00937
1720.35869	0.00953
1719.07292	0.00974
1717.78715	0.00999
1716.50138	0.01022
1715.21561	0.01047
1713.92985	0.01076
1712.64408	0.01110
1711.35831	0.01144
1710.07254	0.01180
1708.78677	0.01218
1707.50100	0.01263
1706.21523	0.01313
1704.92946	0.01362
1703.64370	0.01410
1702.35793	0.01470
1701.07216	0.01540
1699.78639	0.01609
1698.50062	0.01680
1697.21485	0.01763
1695.92908	0.01853
1694.64331	0.01933
1693.35754	0.02007
1692.07178	0.02088
1690.78601	0.02177
1689.50024	0.02262
1688.21447	0.02338
1686.92870	0.02417
1685.64293	0.02510
1684.35716	0.02610
1683.07139	0.02703
1681.78563	0.02790
1680.49986	0.02874
1679.21409	0.02955
1677.92832	0.03035
1676.64255	0.03117
1675.35678	0.03195
1674.07101	0.03263
1672.78524	0.03330
1671.49947	0.03407
1670.21371	0.03491
1668.92794	0.03572
1667.64217	0.03644
1666.35640	0.03711
1665.07063	0.03780
1663.78486	0.03852
1662.49909	0.03922
1661.21332	0.03985
1659.92756	0.04041
1658.64179	0.04090
1657.35602	0.04134
1656.07025	0.04184
1654.78448	0.04252
1653.49871	0.04330
1652.21294	0.04393
1650.92717	0.04432
1649.64140	0.04461
1648.35564	0.04495
1647.06987	0.04533
1645.78410	0.04570
1644.49833	0.04598
1643.21256	0.04615
1641.92679	0.04620
1640.64102	0.04614
1639.35525	0.04604
1638.06949	0.04598
1636.78372	0.04598
1635.49795	0.04594
1634.21218	0.04572
1632.92641	0.04533
1631.64064	0.04488
1630.35487	0.04441
1629.06910	0.04390
1627.78333	0.04332
1626.49757	0.04267
1625.21180	0.04203
1623.92603	0.04142
1622.64026	0.04081
1621.35449	0.04011
1620.06872	0.03934
1618.78295	0.03858
1617.49718	0.03792
1616.21142	0.03732
1614.92565	0.03673
1613.63988	0.03614
1612.35411	0.03555
1611.06834	0.03493
1609.78257	0.03432
1608.49680	0.03378
1607.21103	0.03331
1605.92526	0.03289
1604.63950	0.03245
1603.35373	0.03200
1602.06796	0.03157
1600.78219	0.03121
1599.49642	0.03098
1598.21065	0.03085
1596.92488	0.03079
1595.63911	0.03075
1594.35335	0.03073
1593.06758	0.03076
1591.78181	0.03085
1590.49604	0.03095
1589.21027	0.03100
1587.92450	0.03100
1586.63873	0.03102
1585.35296	0.03111
1584.06719	0.03128
1582.78143	0.03149
1581.49566	0.03170
1580.20989	0.03191
1578.92412	0.03218
1577.63835	0.03255
1576.35258	0.03298
1575.06681	0.03335
1573.78104	0.03366
1572.49528	0.03397
1571.20951	0.03432
1569.92374	0.03466
1568.63797	0.03494
1567.35220	0.03518
1566.06643	0.03540
1564.78066	0.03560
1563.49489	0.03577
1562.20912	0.03600
1560.92336	0.03639
1559.63759	0.03689
1558.35182	0.03732
1557.06605	0.03766
1555.78028	0.03796
1554.49451	0.03827
1553.20874	0.03851
1551.92297	0.03868
1550.63721	0.03881
1549.35144	0.03890
1548.06567	0.03895
1546.77990	0.03897
1545.49413	0.03891
1544.20836	0.03877
1542.92259	0.03863
1541.63682	0.03862
1540.35105	0.03876
1539.06529	0.03887
1537.77952	0.03883
1536.49375	0.03873
1535.20798	0.03869
1533.92221	0.03869
1532.63644	0.03865
1531.35067	0.03854
1530.06490	0.03843
1528.77914	0.03839
1527.49337	0.03842
1526.20760	0.03843
1524.92183	0.03835
1523.63606	0.03824
1522.35029	0.03817
1521.06452	0.03814
1519.77875	0.03809
1518.49298	0.03807
1517.20722	0.03808
1515.92145	0.03810
1514.63568	0.03810
1513.34991	0.03807
1512.06414	0.03799
1510.77837	0.03788
1509.49260	0.03783
1508.20683	0.03796
1506.92107	0.03823
1505.63530	0.03848
1504.34953	0.03862
1503.06376	0.03866
1501.77799	0.03866
1500.49222	0.03863
1499.20645	0.03861
1497.92068	0.03860
1496.63491	0.03860
1495.34915	0.03858
1494.06338	0.03857
1492.77761	0.03862
1491.49184	0.03872
1490.20607	0.03882
1488.92030	0.03891
1487.63453	0.03902
1486.34876	0.03916
1485.06299	0.03936
1483.77723	0.03963
1482.49146	0.03994
1481.20569	0.04029
1479.91992	0.04064
1478.63415	0.04101
1477.34838	0.04137
1476.06261	0.04169
1474.77684	0.04200
1473.49108	0.04230
1472.20531	0.04261
1470.91954	0.04291
1469.63377	0.04319
1468.34800	0.04347
1467.06223	0.04376
1465.77646	0.04409
1464.49069	0.04443
1463.20492	0.04475
1461.91916	0.04504
1460.63339	0.04533
1459.34762	0.04572
1458.06185	0.04624
1456.77608	0.04682
1455.49031	0.04736
1454.20454	0.04784
1452.91877	0.04826
1451.63301	0.04855
1450.34724	0.04870
1449.06147	0.04875
1447.77570	0.04876
1446.48993	0.04878
1445.20416	0.04881
1443.91839	0.04886
1442.63262	0.04888
1441.34685	0.04884
1440.06109	0.04877
1438.77532	0.04874
1437.48955	0.04877
1436.20378	0.04878
1434.91801	0.04877
1433.63224	0.04881
1432.34647	0.04898
1431.06070	0.04927
1429.77494	0.04965
1428.48917	0.05005
1427.20340	0.05045
1425.91763	0.05085
1424.63186	0.05126
1423.34609	0.05167
1422.06032	0.05210
1420.77455	0.05257
1419.48878	0.05303
1418.20302	0.05340
1416.91725	0.05370
1415.63148	0.05395
1414.34571	0.05417
1413.05994	0.05431
1411.77417	0.05435
1410.48840	0.05432
1409.20263	0.05421
1407.91687	0.05406
1406.63110	0.05384
1405.34533	0.05349
1404.05956	0.05298
1402.77379	0.05232
1401.48802	0.05162
1400.20225	0.05091
1398.91648	0.05019
1397.63071	0.04944
1396.34495	0.04869
1395.05918	0.04793
1393.77341	0.04713
1392.48764	0.04625
1391.20187	0.04534
1389.91610	0.04446
1388.63033	0.04363
1387.34456	0.04283
1386.05880	0.04202
1384.77303	0.04118
1383.48726	0.04032
1382.20149	0.03941
1380.91572	0.03846
1379.62995	0.03750
1378.34418	0.03658
1377.05841	0.03575
1375.77264	0.03499
1374.48688	0.03429
1373.20111	0.03361
1371.91534	0.03293
1370.62957	0.03225
1369.34380	0.03157
1368.05803	0.03088
1366.77226	0.03019
1365.48649	0.02954
1364.20073	0.02892
1362.91496	0.02836
1361.62919	0.02784
1360.34342	0.02739
1359.05765	0.02702
1357.77188	0.02671
1356.48611	0.02646
1355.20034	0.02624
1353.91457	0.02601
1352.62881	0.02580
1351.34304	0.02561
1350.05727	0.02547
1348.77150	0.02536
1347.48573	0.02524
1346.19996	0.02508
1344.91419	0.02492
1343.62842	0.02480
1342.34266	0.02472
1341.05689	0.02464
1339.77112	0.02451
1338.48535	0.02436
1337.19958	0.02421
1335.91381	0.02409
1334.62804	0.02396
1333.34227	0.02380
1332.05650	0.02362
1330.77074	0.02344
1329.48497	0.02328
1328.19920	0.02312
1326.91343	0.02295
1325.62766	0.02275
1324.34189	0.02253
1323.05612	0.02232
1321.77035	0.02214
1320.48459	0.02199
1319.19882	0.02186
1317.91305	0.02172
1316.62728	0.02157
1315.34151	0.02141
1314.05574	0.02125
1312.76997	0.02109
1311.48420	0.02092
1310.19843	0.02075
1308.91267	0.02060
1307.62690	0.02047
1306.34113	0.02033
1305.05536	0.02017
1303.76959	0.01999
1302.48382	0.01981
1301.19805	0.01965
1299.91228	0.01951
1298.62652	0.01938
1297.34075	0.01926
1296.05498	0.01916
1294.76921	0.01907
1293.48344	0.01901
1292.19767	0.01895
1290.91190	0.01889
1289.62613	0.01883
1288.34036	0.01881
1287.05460	0.01882
1285.76883	0.01887
1284.48306	0.01891
1283.19729	0.01893
1281.91152	0.01891
1280.62575	0.01883
1279.33998	0.01872
1278.05421	0.01862
1276.76845	0.01856
1275.48268	0.01855
1274.19691	0.01856
1272.91114	0.01855
1271.62537	0.01851
1270.33960	0.01841
1269.05383	0.01826
1267.76806	0.01810
1266.48229	0.01797
1265.19653	0.01787
1263.91076	0.01781
1262.62499	0.01777
1261.33922	0.01776
1260.05345	0.01780
1258.76768	0.01788
1257.48191	0.01801
1256.19614	0.01815
1254.91037	0.01827
1253.62461	0.01832
1252.33884	0.01832
1251.05307	0.01829
1249.76730	0.01827
1248.48153	0.01828
1247.19576	0.01835
1245.90999	0.01845
1244.62422	0.01854
1243.33846	0.01860
1242.05269	0.01860
1240.76692	0.01857
1239.48115	0.01856
1238.19538	0.01855
1236.90961	0.01853
1235.62384	0.01846
1234.33807	0.01834
1233.05230	0.01822
1231.76654	0.01812
1230.48077	0.01803
1229.19500	0.01792
1227.90923	0.01777
1226.62346	0.01758
1225.33769	0.01740
1224.05192	0.01723
1222.76615	0.01708
1221.48039	0.01694
1220.19462	0.01681
1218.90885	0.01671
1217.62308	0.01663
1216.33731	0.01655
1215.05154	0.01646
1213.76577	0.01636
1212.48000	0.01630
1211.19423	0.01629
1209.90847	0.01631
1208.62270	0.01635
1207.33693	0.01638
1206.05116	0.01640
1204.76539	0.01642
1203.47962	0.01643
1202.19385	0.01645
1200.90808	0.01650
1199.62232	0.01652
1198.33655	0.01651
1197.05078	0.01652
1195.76501	0.01654
1194.47924	0.01654
1193.19347	0.01653
1191.90770	0.01653
1190.62193	0.01649
1189.33616	0.01639
1188.05040	0.01622
1186.76463	0.01601
1185.47886	0.01581
1184.19309	0.01566
1182.90732	0.01557
1181.62155	0.01550
1180.33578	0.01546
1179.05001	0.01545
1177.76425	0.01548
1176.47848	0.01551
1175.19271	0.01550
1173.90694	0.01544
1172.62117	0.01538
1171.33540	0.01537
1170.04963	0.01544
1168.76386	0.01558
1167.47809	0.01579
1166.19233	0.01603
1164.90656	0.01623
1163.62079	0.01634
1162.33502	0.01637
1161.04925	0.01639
1159.76348	0.01646
1158.47771	0.01658
1157.19194	0.01673
1155.90618	0.01686
1154.62041	0.01698
1153.33464	0.01709
1152.04887	0.01720
1150.76310	0.01733
1149.47733	0.01748
1148.19156	0.01769
1146.90579	0.01796
1145.62002	0.01827
1144.33426	0.01862
1143.04849	0.01900
1141.76272	0.01939
1140.47695	0.01979
1139.19118	0.02023
1137.90541	0.02073
1136.61964	0.02130
1135.33387	0.02193
1134.04811	0.02267
1132.76234	0.02354
1131.47657	0.02451
1130.19080	0.02554
1128.90503	0.02665
1127.61926	0.02791
1126.33349	0.02932
1125.04772	0.03085
1123.76195	0.03245
1122.47619	0.03408
1121.19042	0.03575
1119.90465	0.03746
1118.61888	0.03922
1117.33311	0.04100
1116.04734	0.04271
1114.76157	0.04434
1113.47580	0.04592
1112.19004	0.04751
1110.90427	0.04913
1109.61850	0.05076
1108.33273	0.05233
1107.04696	0.05384
1105.76119	0.05529
1104.47542	0.05673
1103.18965	0.05813
1101.90388	0.05944
1100.61812	0.06061
1099.33235	0.06168
1098.04658	0.06275
1096.76081	0.06382
1095.47504	0.06484
1094.18927	0.06578
1092.90350	0.06667
1091.61773	0.06756
1090.33197	0.06841
1089.04620	0.06917
1087.76043	0.06988
1086.47466	0.07065
1085.18889	0.07153
1083.90312	0.07250
1082.61735	0.07346
1081.33158	0.07437
1080.04581	0.07531
1078.76005	0.07631
1077.47428	0.07741
1076.18851	0.07859
1074.90274	0.07985
1073.61697	0.08119
1072.33120	0.08260
1071.04543	0.08403
1069.75966	0.08547
1068.47390	0.08693
1067.18813	0.08844
1065.90236	0.09001
1064.61659	0.09157
1063.33082	0.09304
1062.04505	0.09444
1060.75928	0.09585
1059.47351	0.09733
1058.18774	0.09885
1056.90198	0.10032
1055.61621	0.10170
1054.33044	0.10304
1053.04467	0.10444
1051.75890	0.10593
1050.47313	0.10749
1049.18736	0.10911
1047.90159	0.11078
1046.61583	0.11244
1045.33006	0.11408
1044.04429	0.11572
1042.75852	0.11740
1041.47275	0.11917
1040.18698	0.12098
1038.90121	0.12277
1037.61544	0.12451
1036.32967	0.12621
1035.04391	0.12790
1033.75814	0.12951
1032.47237	0.13095
1031.18660	0.13219
1029.90083	0.13326
1028.61506	0.13416
1027.32929	0.13487
1026.04352	0.13535
1024.75775	0.13559
1023.47199	0.13564
1022.18622	0.13556
1020.90045	0.13534
1019.61468	0.13496
1018.32891	0.13438
1017.04314	0.13363
1015.75737	0.13270
1014.47160	0.13158
1013.18584	0.13025
1011.90007	0.12874
1010.61430	0.12711
1009.32853	0.12537
1008.04276	0.12345
1006.75699	0.12129
1005.47122	0.11892
1004.18545	0.11641
1002.89968	0.11383
1001.61392	0.11122
1000.32815	0.10855
999.04238	0.10577
997.75661	0.10287
996.47084	0.09988
995.18507	0.09691
993.89930	0.09404
992.61353	0.09129
991.32777	0.08862
990.04200	0.08599
988.75623	0.08345
987.47046	0.08100
986.18469	0.07863
984.89892	0.07631
983.61315	0.07401
982.32738	0.07177
981.04161	0.06963
979.75585	0.06767
978.47008	0.06590
977.18431	0.06429
975.89854	0.06278
974.61277	0.06135
973.32700	0.06004
972.04123	0.05891
970.75546	0.05803
969.46970	0.05738
968.18393	0.05696
966.89816	0.05676
965.61239	0.05678
964.32662	0.05698
963.04085	0.05722
961.75508	0.05736
960.46931	0.05731
959.18354	0.05703
957.89778	0.05650
956.61201	0.05574
955.32624	0.05484
954.04047	0.05390
952.75470	0.05297
951.46893	0.05202
950.18316	0.05104
948.89739	0.05003
947.61163	0.04898
946.32586	0.04795
945.04009	0.04698
943.75432	0.04609
942.46855	0.04525
941.18278	0.04439
939.89701	0.04349
938.61124	0.04258
937.32547	0.04172
936.03971	0.04093
934.75394	0.04019
933.46817	0.03946
932.18240	0.03876
930.89663	0.03812
929.61086	0.03758
928.32509	0.03710
927.03932	0.03662
925.75356	0.03609
924.46779	0.03557
923.18202	0.03510
921.89625	0.03472
920.61048	0.03441
919.32471	0.03412
918.03894	0.03384
916.75317	0.03356
915.46740	0.03324
914.18164	0.03283
912.89587	0.03235
911.61010	0.03186
910.32433	0.03142
909.03856	0.03106
907.75279	0.03082
906.46702	0.03070
905.18125	0.03066
903.89549	0.03058
902.60972	0.03038
901.32395	0.03007
900.03818	0.02975
898.75241	0.02948
897.46664	0.02921
896.18087	0.02890
894.89510	0.02857
893.60933	0.02831
892.32357	0.02814
891.03780	0.02804
889.75203	0.02803
888.46626	0.02813
887.18049	0.02838
885.89472	0.02882
884.60895	0.02950
883.32318	0.03043
882.03742	0.03151
880.75165	0.03257
879.46588	0.03342
878.18011	0.03401
876.89434	0.03450
875.60857	0.03508
874.32280	0.03581
873.03703	0.03650
871.75126	0.03691
870.46550	0.03687
869.17973	0.03644
867.89396	0.03574
866.60819	0.03491
865.32242	0.03401
864.03665	0.03308
862.75088	0.03218
861.46511	0.03135
860.17935	0.03062
858.89358	0.02998
857.60781	0.02940
856.32204	0.02888
855.03627	0.02846
853.75050	0.02813
852.46473	0.02785
851.17896	0.02763
849.89319	0.02748
848.60743	0.02733
847.32166	0.02713
846.03589	0.02686
844.75012	0.02658
843.46435	0.02633
842.17858	0.02614
840.89281	0.02599
839.60704	0.02587
838.32128	0.02572
837.03551	0.02552
835.74974	0.02528
834.46397	0.02505
833.17820	0.02484
831.89243	0.02467
830.60666	0.02456
829.32089	0.02451
828.03512	0.02452
826.74936	0.02450
825.46359	0.02441
824.17782	0.02426
822.89205	0.02410
821.60628	0.02396
820.32051	0.02386
819.03474	0.02383
817.74897	0.02390
816.46321	0.02402
815.17744	0.02414
813.89167	0.02418
812.60590	0.02411
811.32013	0.02400
810.03436	0.02394
808.74859	0.02397
807.46282	0.02403
806.17705	0.02405
804.89129	0.02400
803.60552	0.02393
802.31975	0.02391
801.03398	0.02397
799.74821	0.02401
798.46244	0.02399
797.17667	0.02389
795.89090	0.02379
794.60513	0.02374
793.31937	0.02375
792.03360	0.02378
790.74783	0.02382
789.46206	0.02382
788.17629	0.02379
786.89052	0.02373
785.60475	0.02367
784.31898	0.02367
783.03322	0.02373
781.74745	0.02386
780.46168	0.02402
779.17591	0.02413
777.89014	0.02418
776.60437	0.02416
775.31860	0.02406
774.03283	0.02389
772.74706	0.02373
771.46130	0.02367
770.17553	0.02373
768.88976	0.02384
767.60399	0.02391
766.31822	0.02393
765.03245	0.02393
763.74668	0.02396
762.46091	0.02403
761.17515	0.02410
759.88938	0.02418
758.60361	0.02423
757.31784	0.02423
756.03207	0.02419
754.74630	0.02416
753.46053	0.02421
752.17476	0.02432
750.88899	0.02441
749.60323	0.02440
748.31746	0.02432
747.03169	0.02422
745.74592	0.02413
744.46015	0.02403
743.17438	0.02392
741.88861	0.02384
740.60284	0.02383
739.31708	0.02388
738.03131	0.02391
736.74554	0.02387
735.45977	0.02380
734.17400	0.02382
732.88823	0.02396
731.60246	0.02414
730.31669	0.02427
729.03092	0.02432
727.74516	0.02435
726.45939	0.02442
725.17362	0.02455
723.88785	0.02489
722.60208	0.02479
721.31631	0.02433
720.03054	0.02383
718.74477	0.02341
717.45901	0.02318
716.17324	0.02323
714.88747	0.02351
713.60170	0.02391
712.31593	0.02427
711.03016	0.02451
709.74439	0.02462
708.45862	0.02465
707.17285	0.02466
705.88709	0.02468
704.60132	0.02470
703.31555	0.02470
702.02978	0.02468
700.74401	0.02463
699.45824	0.02454
698.17247	0.02440
696.88670	0.02424
695.60094	0.02409
694.31517	0.02397
693.02940	0.02390
691.74363	0.02389
690.45786	0.02394
689.17209	0.02407
687.88632	0.02424
686.60055	0.02442
685.31478	0.02454
684.02902	0.02458
682.74325	0.02455
681.45748	0.02451
680.17171	0.02449
678.88594	0.02450
677.60017	0.02453
676.31440	0.02460
675.02863	0.02471
673.74287	0.02486
672.45710	0.02500
671.17133	0.02510
669.88556	0.02519
668.59979	0.02531
667.31402	0.02542
666.02825	0.02543
664.74248	0.02532
663.45671	0.02512
662.17095	0.02491
660.88518	0.02472
659.59941	0.02457
658.31364	0.02443
657.02787	0.02430
655.74210	0.02419
654.45633	0.02414
653.17056	0.02413
651.88480	0.02412
650.59903	0.02411
649.31326	0.02408
648.02749	0.02402
646.74172	0.02390
645.45595	0.02374
644.17018	0.02359
642.88441	0.02354
641.59864	0.02364
640.31288	0.02387
639.02711	0.02417
637.74134	0.02445
636.45557	0.02466
635.16980	0.02476
633.88403	0.02475
632.59826	0.02474
631.31249	0.02485
630.02673	0.02476
628.74096	0.02384
627.45519	0.02379
626.16942	0.02243
624.88365	0.02037
623.59788	0.01895
622.31211	0.01903
621.02634	0.02072
619.74057	0.02334
618.45481	0.02633
617.16904	0.02984
615.88327	0.03401
614.59750	0.03828
613.31173	0.04166
612.02596	0.04383
610.74019	0.04552
609.45442	0.04755
608.16866	0.04979
606.88289	0.05174
605.59712	0.05354
604.31135	0.05567
603.02558	0.05782
601.73981	0.05906
600.45404	0.05882
599.16827	0.05739
597.88250	0.05547
596.59674	0.05363
595.31097	0.05213
594.02520	0.05101
592.73943	0.05018
591.45366	0.04955
590.16789	0.04911
588.88212	0.04890
587.59635	0.04897
586.31059	0.04932
585.02482	0.04989
583.73905	0.05066
582.45328	0.05160
581.16751	0.05269
579.88174	0.05396
578.59597	0.05540
577.31020	0.05695
576.02443	0.05845
574.73867	0.05971
573.45290	0.06072
572.16713	0.06166
570.88136	0.06279
569.59559	0.06430
568.30982	0.06620
567.02405	0.06840
565.73828	0.07067
564.45251	0.07269
563.16675	0.07408
561.88098	0.07458
560.59521	0.07419
559.30944	0.07303
558.02367	0.07124
556.73790	0.06896
555.45213	0.06638
554.16636	0.06369
552.88060	0.06098
551.59483	0.05829
550.30906	0.05570
549.02329	0.05329
547.73752	0.05117
546.45175	0.04936
545.16598	0.04781
543.88021	0.04646
542.59444	0.04528
541.30868	0.04418
540.02291	0.04312
538.73714	0.04208
537.45137	0.04108
536.16560	0.04017
534.87983	0.03936
533.59406	0.03862
532.30829	0.03793
531.02253	0.03724
529.73676	0.03653
528.45099	0.03582
527.16522	0.03517
525.87945	0.03462
524.59368	0.03422
523.30791	0.03391
522.02214	0.03357
520.73637	0.03311
519.45061	0.03255
518.16484	0.03198
516.87907	0.03147
515.59330	0.03103
514.30753	0.03065
513.02176	0.03035
511.73599	0.03013
510.45022	0.02992
509.16446	0.02966
507.87869	0.02932
506.59292	0.02894
505.30715	0.02857
504.02138	0.02829
502.73561	0.02808
501.44984	0.02792
500.16407	0.02771
498.87830	0.02742
497.59254	0.02707
496.30677	0.02672
495.02100	0.02638
493.73523	0.02605
492.44946	0.02574
491.16369	0.02551
489.87792	0.02539
488.59215	0.02535
487.30639	0.02533
486.02062	0.02529
484.73485	0.02520
483.44908	0.02507
482.16331	0.02495
480.87754	0.02491
479.59177	0.02499
478.30600	0.02516
477.02023	0.02536
475.73447	0.02555
474.44870	0.02570
473.16293	0.02582
471.87716	0.02586
470.59139	0.02579
469.30562	0.02558
468.01985	0.02526
466.73408	0.02491
465.44832	0.02462
464.16255	0.02439
462.87678	0.02416
461.59101	0.02388
460.30524	0.02356
459.01947	0.02326
457.73370	0.02303
456.44793	0.02286
455.16216	0.02271
453.87640	0.02252
452.59063	0.02229
451.30486	0.02204
450.01909	0.02178
448.73332	0.02153
447.44755	0.02131
446.16178	0.02117
444.87601	0.02112
443.59025	0.02107
442.30448	0.02096
441.01871	0.02076
439.73294	0.02054
438.44717	0.02035
437.16140	0.02020
435.87563	0.02009
434.58986	0.02003
433.30409	0.02000
432.01833	0.01996
430.73256	0.01988
429.44679	0.01975
428.16102	0.01959
426.87525	0.01942
425.58948	0.01924
424.30371	0.01906
423.01794	0.01891
421.73218	0.01878
420.44641	0.01868
419.16064	0.01860
417.87487	0.01850
416.58910	0.01838
415.30333	0.01822
414.01756	0.01804
412.73179	0.01785
411.44602	0.01769
410.16026	0.01757
408.87449	0.01747
407.58872	0.01740
406.30295	0.01738
405.01718	0.01737
403.73141	0.01735
402.44564	0.01731
401.15987	0.01729
399.87411	0.01733
