3997.45528 0.04283
3996.16951 0.04284
3994.88374 0.04330
3993.59798 0.04375
3992.31221 0.04389
3991.02644 0.04388
3989.74067 0.04413
3988.45490 0.04502
3987.16913 0.04638
3985.88336 0.04733
3984.59759 0.04689
3983.31183 0.04499
3982.02606 0.04277
3980.74029 0.04156
3979.45452 0.04177
3978.16875 0.04275
3976.88298 0.04359
3975.59721 0.04386
3974.31144 0.04372
3973.02567 0.04351
3971.73991 0.04346
3970.45414 0.04365
3969.16837 0.04400
3967.88260 0.04432
3966.59683 0.04438
3965.31106 0.04411
3964.02529 0.04361
3962.73952 0.04308
3961.45376 0.04265
3960.16799 0.04246
3958.88222 0.04256
3957.59645 0.04297
3956.31068 0.04350
3955.02491 0.04384
3953.73914 0.04370
3952.45337 0.04306
3951.16760 0.04215
3949.88184 0.04151
3948.59607 0.04177
3947.31030 0.04312
3946.02453 0.04492
3944.73876 0.04600
3943.45299 0.04573
3942.16722 0.04449
3940.88145 0.04306
3939.59569 0.04199
3938.30992 0.04151
3937.02415 0.04177
3935.73838 0.04259
3934.45261 0.04341
3933.16684 0.04369
3931.88107 0.04344
3930.59530 0.04313
3929.30953 0.04323
3928.02377 0.04376
3926.73800 0.04444
3925.45223 0.04489
3924.16646 0.04486
3922.88069 0.04429
3921.59492 0.04352
3920.30915 0.04324
3919.02338 0.04378
3917.73762 0.04464
3916.45185 0.04496
3915.16608 0.04449
3913.88031 0.04376
3912.59454 0.04351
3911.30877 0.04387
3910.02300 0.04443
3908.73723 0.04492
3907.45146 0.04550
3906.16570 0.04634
3904.87993 0.04720
3903.59416 0.04744
3902.30839 0.04653
3901.02262 0.04461
3899.73685 0.04244
3898.45108 0.04096
3897.16531 0.04057
3895.87955 0.04102
3894.59378 0.04167
3893.30801 0.04205
3892.02224 0.04215
3890.73647 0.04226
3889.45070 0.04253
3888.16493 0.04285
3886.87916 0.04325
3885.59339 0.04373
3884.30763 0.04382
3883.02186 0.04301
3881.73609 0.04155
3880.45032 0.04053
3879.16455 0.04065
3877.87878 0.04165
3876.59301 0.04283
3875.30724 0.04382
3874.02148 0.04443
3872.73571 0.04427
3871.44994 0.04320
3870.16417 0.04189
3868.87840 0.04128
3867.59263 0.04139
3866.30686 0.04164
3865.02109 0.04182
3863.73532 0.04209
3862.44956 0.04246
3861.16379 0.04273
3859.87802 0.04278
3858.59225 0.04269
3857.30648 0.04259
3856.02071 0.04248
3854.73494 0.04231
3853.44917 0.04220
3852.16341 0.04220
3850.87764 0.04222
3849.59187 0.04232
3848.30610 0.04265
3847.02033 0.04310
3845.73456 0.04334
3844.44879 0.04315
3843.16302 0.04268
3841.87725 0.04226
3840.59149 0.04202
3839.30572 0.04190
3838.01995 0.04185
3836.73418 0.04185
3835.44841 0.04170
3834.16264 0.04129
3832.87687 0.04080
3831.59110 0.04052
3830.30534 0.04048
3829.01957 0.04050
3827.73380 0.04040
3826.44803 0.04026
3825.16226 0.04021
3823.87649 0.04026
3822.59072 0.04038
3821.30495 0.04072
3820.01918 0.04141
3818.73342 0.04208
3817.44765 0.04234
3816.16188 0.04227
3814.87611 0.04207
3813.59034 0.04156
3812.30457 0.04065
3811.01880 0.03974
3809.73303 0.03911
3808.44726 0.03872
3807.16150 0.03853
3805.87573 0.03864
3804.58996 0.03898
3803.30419 0.03932
3802.01842 0.03967
3800.73265 0.04019
3799.44688 0.04064
3798.16111 0.04065
3796.87535 0.04020
3795.58958 0.03950
3794.30381 0.03873
3793.01804 0.03826
3791.73227 0.03838
3790.44650 0.03892
3789.16073 0.03940
3787.87496 0.03970
3786.58919 0.04009
3785.30343 0.04061
3784.01766 0.04087
3782.73189 0.04052
3781.44612 0.03967
3780.16035 0.03880
3778.87458 0.03837
3777.58881 0.03851
3776.30304 0.03906
3775.01728 0.03974
3773.73151 0.04036
3772.44574 0.04084
3771.15997 0.04119
3769.87420 0.04138
3768.58843 0.04118
3767.30266 0.04056
3766.01689 0.04000
3764.73112 0.04005
3763.44536 0.04055
3762.15959 0.04076
3760.87382 0.04026
3759.58805 0.03937
3758.30228 0.03863
3757.01651 0.03840
3755.73074 0.03865
3754.44497 0.03910
3753.15921 0.03951
3751.87344 0.03977
3750.58767 0.03989
3749.30190 0.04006
3748.01613 0.04036
3746.73036 0.04045
3745.44459 0.04031
3744.15882 0.04050
3742.87305 0.04109
3741.58729 0.04138
3740.30152 0.04107
3739.01575 0.04050
3737.72998 0.04002
3736.44421 0.03979
3735.15844 0.03970
3733.87267 0.03945
3732.58690 0.03894
3731.30114 0.03842
3730.01537 0.03798
3728.72960 0.03744
3727.44383 0.03685
3726.15806 0.03649
3724.87229 0.03643
3723.58652 0.03649
3722.30075 0.03657
3721.01498 0.03667
3719.72922 0.03674
3718.44345 0.03668
3717.15768 0.03647
3715.87191 0.03619
3714.58614 0.03591
3713.30037 0.03569
3712.01460 0.03558
3710.72883 0.03566
3709.44307 0.03600
3708.15730 0.03669
3706.87153 0.03759
3705.58576 0.03843
3704.29999 0.03899
3703.01422 0.03937
3701.72845 0.03975
3700.44268 0.03989
3699.15691 0.03936
3697.87115 0.03822
3696.58538 0.03719
3695.29961 0.03693
3694.01384 0.03742
3692.72807 0.03824
3691.44230 0.03876
3690.15653 0.03852
3688.87076 0.03768
3687.58500 0.03691
3686.29923 0.03655
3685.01346 0.03647
3683.72769 0.03649
3682.44192 0.03660
3681.15615 0.03691
3679.87038 0.03740
3678.58461 0.03787
3677.29884 0.03807
3676.01308 0.03805
3674.72731 0.03802
3673.44154 0.03797
3672.15577 0.03788
3670.87000 0.03816
3669.58423 0.03900
3668.29846 0.03983
3667.01269 0.04012
3665.72693 0.03989
3664.44116 0.03942
3663.15539 0.03886
3661.86962 0.03836
3660.58385 0.03818
3659.29808 0.03839
3658.01231 0.03878
3656.72654 0.03917
3655.44077 0.03972
3654.15501 0.04051
3652.86924 0.04123
3651.58347 0.04143
3650.29770 0.04098
3649.01193 0.04018
3647.72616 0.03952
3646.44039 0.03923
3645.15462 0.03917
3643.86886 0.03911
3642.58309 0.03896
3641.29732 0.03870
3640.01155 0.03844
3638.72578 0.03843
3637.44001 0.03872
3636.15424 0.03896
3634.86847 0.03889
3633.58270 0.03901
3632.29694 0.04003
3631.01117 0.04190
3629.72540 0.04371
3628.43963 0.04443
3627.15386 0.04356
3625.86809 0.04142
3624.58232 0.03903
3623.29655 0.03739
3622.01079 0.03691
3620.72502 0.03750
3619.43925 0.03902
3618.15348 0.04111
3616.86771 0.04315
3615.58194 0.04438
3614.29617 0.04451
3613.01040 0.04386
3611.72463 0.04300
3610.43887 0.04233
3609.15310 0.04203
3607.86733 0.04220
3606.58156 0.04290
3605.29579 0.04398
3604.01002 0.04509
3602.72425 0.04589
3601.43848 0.04634
3600.15272 0.04655
3598.86695 0.04652
3597.58118 0.04617
3596.29541 0.04546
3595.00964 0.04443
3593.72387 0.04328
3592.43810 0.04242
3591.15233 0.04230
3589.86656 0.04297
3588.58080 0.04408
3587.29503 0.04500
3586.00926 0.04524
3584.72349 0.04489
3583.43772 0.04454
3582.15195 0.04466
3580.86618 0.04517
3579.58041 0.04574
3578.29464 0.04617
3577.00888 0.04652
3575.72311 0.04691
3574.43734 0.04731
3573.15157 0.04766
3571.86580 0.04789
3570.58003 0.04782
3569.29426 0.04742
3568.00849 0.04707
3566.72273 0.04726
3565.43696 0.04802
3564.15119 0.04875
3562.86542 0.04887
3561.57965 0.04838
3560.29388 0.04775
3559.00811 0.04747
3557.72234 0.04769
3556.43657 0.04819
3555.15081 0.04860
3553.86504 0.04865
3552.57927 0.04836
3551.29350 0.04810
3550.00773 0.04832
3548.72196 0.04909
3547.43619 0.04993
3546.15042 0.05026
3544.86466 0.05003
3543.57889 0.04972
3542.29312 0.04965
3541.00735 0.04960
3539.72158 0.04924
3538.43581 0.04865
3537.15004 0.04816
3535.86427 0.04787
3534.57850 0.04758
3533.29274 0.04721
3532.00697 0.04698
3530.72120 0.04722
3529.43543 0.04791
3528.14966 0.04873
3526.86389 0.04943
3525.57812 0.05008
3524.29235 0.05091
3523.00659 0.05187
3521.72082 0.05255
3520.43505 0.05271
3519.14928 0.05255
3517.86351 0.05255
3516.57774 0.05289
3515.29197 0.05333
3514.00620 0.05363
3512.72043 0.05380
3511.43467 0.05399
3510.14890 0.05426
3508.86313 0.05453
3507.57736 0.05471
3506.29159 0.05478
3505.00582 0.05481
3503.72005 0.05483
3502.43428 0.05489
3501.14852 0.05499
3499.86275 0.05512
3498.57698 0.05528
3497.29121 0.05549
3496.00544 0.05570
3494.71967 0.05574
3493.43390 0.05546
3492.14813 0.05497
3490.86236 0.05461
3489.57660 0.05463
3488.29083 0.05499
3487.00506 0.05551
3485.71929 0.05621
3484.43352 0.05718
3483.14775 0.05823
3481.86198 0.05895
3480.57621 0.05905
3479.29045 0.05859
3478.00468 0.05777
3476.71891 0.05679
3475.43314 0.05585
3474.14737 0.05524
3472.86160 0.05522
3471.57583 0.05575
3470.29006 0.05647
3469.00429 0.05687
3467.71853 0.05667
3466.43276 0.05603
3465.14699 0.05539
3463.86122 0.05517
3462.57545 0.05553
3461.28968 0.05632
3460.00391 0.05722
3458.71814 0.05800
3457.43238 0.05856
3456.14661 0.05886
3454.86084 0.05891
3453.57507 0.05876
3452.28930 0.05859
3451.00353 0.05853
3449.71776 0.05859
3448.43199 0.05877
3447.14622 0.05900
3445.86046 0.05913
3444.57469 0.05899
3443.28892 0.05865
3442.00315 0.05841
3440.71738 0.05848
3439.43161 0.05885
3438.14584 0.05933
3436.86007 0.05966
3435.57431 0.05960
3434.28854 0.05915
3433.00277 0.05871
3431.71700 0.05878
3430.43123 0.05952
3429.14546 0.06050
3427.85969 0.06104
3426.57392 0.06083
3425.28815 0.06016
3424.00239 0.05967
3422.71662 0.05979
3421.43085 0.06046
3420.14508 0.06124
3418.85931 0.06176
3417.57354 0.06198
3416.28777 0.06211
3415.00200 0.06231
3413.71624 0.06260
3412.43047 0.06286
3411.14470 0.06293
3409.85893 0.06271
3408.57316 0.06222
3407.28739 0.06169
3406.00162 0.06142
3404.71585 0.06147
3403.43008 0.06166
3402.14432 0.06192
3400.85855 0.06237
3399.57278 0.06271
3398.28701 0.06298
3397.00124 0.06361
3395.71547 0.06419
3394.42970 0.06432
3393.14393 0.06404
3391.85817 0.06365
3390.57240 0.06348
3389.28663 0.06376
3388.00086 0.06450
3386.71509 0.06543
3385.42932 0.06616
3384.14355 0.06641
3382.85778 0.06622
3381.57201 0.06578
3380.28625 0.06530
3379.00048 0.06493
3377.71471 0.06476
3376.42894 0.06481
3375.14317 0.06500
3373.85740 0.06514
3372.57163 0.06508
3371.28586 0.06488
3370.00010 0.06471
3368.71433 0.06469
3367.42856 0.06479
3366.14279 0.06493
3364.85702 0.06503
3363.57125 0.06508
3362.28548 0.06518
3360.99971 0.06542
3359.71394 0.06579
3358.42818 0.06614
3357.14241 0.06635
3355.85664 0.06637
3354.57087 0.06622
3353.28510 0.06597
3351.99933 0.06572
3350.71356 0.06553
3349.42779 0.06540
3348.14202 0.06523
3346.85626 0.06503
3345.57049 0.06494
3344.28472 0.06523
3342.99895 0.06591
3341.71318 0.06670
3340.42741 0.06717
3339.14164 0.06713
3337.85587 0.06673
3336.57011 0.06625
3335.28434 0.06591
3333.99857 0.06572
3332.71280 0.06554
3331.42703 0.06525
3330.14126 0.06492
3328.85549 0.06476
3327.56972 0.06485
3326.28395 0.06507
3324.99819 0.06521
3323.71242 0.06524
3322.42665 0.06525
3321.14088 0.06541
3319.85511 0.06581
3318.56934 0.06635
3317.28357 0.06687
3315.99780 0.06730
3314.71204 0.06768
3313.42627 0.06797
3312.14050 0.06796
3310.85473 0.06761
3309.56896 0.06725
3308.28319 0.06729
3306.99742 0.06765
3305.71165 0.06783
3304.42588 0.06750
3303.14012 0.06693
3301.85435 0.06662
3300.56858 0.06674
3299.28281 0.06699
3297.99704 0.06702
3296.71127 0.06676
3295.42550 0.06641
3294.13973 0.06623
3292.85397 0.06636
3291.56820 0.06676
3290.28243 0.06728
3288.99666 0.06779
3287.71089 0.06822
3286.42512 0.06850
3285.13935 0.06858
3283.85358 0.06859
3282.56781 0.06875
3281.28205 0.06912
3279.99628 0.06943
3278.71051 0.06939
3277.42474 0.06901
3276.13897 0.06860
3274.85320 0.06836
3273.56743 0.06827
3272.28166 0.06819
3270.99590 0.06800
3269.71013 0.06763
3268.42436 0.06717
3267.13859 0.06682
3265.85282 0.06675
3264.56705 0.06700
3263.28128 0.06745
3261.99551 0.06797
3260.70974 0.06837
3259.42398 0.06847
3258.13821 0.06818
3256.85244 0.06759
3255.56667 0.06699
3254.28090 0.06658
3252.99513 0.06640
3251.70936 0.06631
3250.42359 0.06632
3249.13783 0.06653
3247.85206 0.06696
3246.56629 0.06741
3245.28052 0.06762
3243.99475 0.06749
3242.70898 0.06709
3241.42321 0.06660
3240.13744 0.06620
3238.85167 0.06595
3237.56591 0.06573
3236.28014 0.06539
3234.99437 0.06492
3233.70860 0.06445
3232.42283 0.06410
3231.13706 0.06396
3229.85129 0.06408
3228.56552 0.06445
3227.27976 0.06487
3225.99399 0.06506
3224.70822 0.06487
3223.42245 0.06442
3222.13668 0.06407
3220.85091 0.06408
3219.56514 0.06438
3218.27937 0.06471
3216.99360 0.06488
3215.70784 0.06494
3214.42207 0.06499
3213.13630 0.06501
3211.85053 0.06494
3210.56476 0.06477
3209.27899 0.06461
3207.99322 0.06448
3206.70745 0.06430
3205.42169 0.06403
3204.13592 0.06376
3202.85015 0.06366
3201.56438 0.06378
3200.27861 0.06394
3198.99284 0.06390
3197.70707 0.06363
3196.42130 0.06333
3195.13553 0.06322
3193.84977 0.06336
3192.56400 0.06363
3191.27823 0.06381
3189.99246 0.06379
3188.70669 0.06359
3187.42092 0.06332
3186.13515 0.06305
3184.84938 0.06285
3183.56362 0.06280
3182.27785 0.06295
3180.99208 0.06323
3179.70631 0.06332
3178.42054 0.06298
3177.13477 0.06225
3175.84900 0.06145
3174.56323 0.06085
3173.27746 0.06053
3171.99170 0.06041
3170.70593 0.06038
3169.42016 0.06042
3168.13439 0.06053
3166.84862 0.06067
3165.56285 0.06075
3164.27708 0.06068
3162.99131 0.06048
3161.70555 0.06020
3160.41978 0.05992
3159.13401 0.05968
3157.84824 0.05951
3156.56247 0.05932
3155.27670 0.05904
3153.99093 0.05875
3152.70516 0.05865
3151.41939 0.05879
3150.13363 0.05898
3148.84786 0.05900
3147.56209 0.05891
3146.27632 0.05893
3144.99055 0.05913
3143.70478 0.05932
3142.41901 0.05927
3141.13324 0.05897
3139.84748 0.05862
3138.56171 0.05844
3137.27594 0.05851
3135.99017 0.05873
3134.70440 0.05893
3133.41863 0.05907
3132.13286 0.05916
3130.84709 0.05920
3129.56132 0.05900
3128.27556 0.05846
3126.98979 0.05776
3125.70402 0.05724
3124.41825 0.05708
3123.13248 0.05715
3121.84671 0.05717
3120.56094 0.05701
3119.27517 0.05674
3117.98940 0.05656
3116.70364 0.05655
3115.41787 0.05666
3114.13210 0.05678
3112.84633 0.05686
3111.56056 0.05686
3110.27479 0.05680
3108.98902 0.05674
3107.70325 0.05682
3106.41749 0.05707
3105.13172 0.05736
3103.84595 0.05748
3102.56018 0.05736
3101.27441 0.05712
3099.98864 0.05691
3098.70287 0.05674
3097.41710 0.05663
3096.13133 0.05662
3094.84557 0.05681
3093.55980 0.05715
3092.27403 0.05744
3090.98826 0.05740
3089.70249 0.05699
3088.41672 0.05642
3087.13095 0.05602
3085.84518 0.05594
3084.55942 0.05609
3083.27365 0.05620
3081.98788 0.05609
3080.70211 0.05581
3079.41634 0.05560
3078.13057 0.05564
3076.84480 0.05592
3075.55903 0.05622
3074.27326 0.05630
3072.98750 0.05601
3071.70173 0.05558
3070.41596 0.05546
3069.13019 0.05591
3067.84442 0.05665
3066.55865 0.05711
3065.27288 0.05703
3063.98711 0.05660
3062.70135 0.05611
3061.41558 0.05574
3060.12981 0.05551
3058.84404 0.05536
3057.55827 0.05523
3056.27250 0.05505
3054.98673 0.05490
3053.70096 0.05487
3052.41519 0.05502
3051.12943 0.05518
3049.84366 0.05516
3048.55789 0.05483
3047.27212 0.05431
3045.98635 0.05385
3044.70058 0.05358
3043.41481 0.05343
3042.12904 0.05330
3040.84328 0.05318
3039.55751 0.05318
3038.27174 0.05339
3036.98597 0.05374
3035.70020 0.05403
3034.41443 0.05405
3033.12866 0.05375
3031.84289 0.05330
3030.55712 0.05296
3029.27136 0.05286
3027.98559 0.05291
3026.69982 0.05287
3025.41405 0.05266
3024.12828 0.05242
3022.84251 0.05236
3021.55674 0.05246
3020.27097 0.05256
3018.98521 0.05260
3017.69944 0.05265
3016.41367 0.05276
3015.12790 0.05282
3013.84213 0.05269
3012.55636 0.05241
3011.27059 0.05208
3009.98482 0.05178
3008.69905 0.05150
3007.41329 0.05123
3006.12752 0.05099
3004.84175 0.05084
3003.55598 0.05085
3002.27021 0.05117
3000.98444 0.05164
2999.69867 0.05162
2998.41290 0.05186
2997.12714 0.05197
2995.84137 0.05199
2994.55560 0.05193
2993.26983 0.05178
2991.98406 0.05150
2990.69829 0.05120
2989.41252 0.05106
2988.12675 0.05116
2986.84098 0.05142
2985.55522 0.05169
2984.26945 0.05197
2982.98368 0.05232
2981.69791 0.05267
2980.41214 0.05292
2979.12637 0.05307
2977.84060 0.05317
2976.55483 0.05327
2975.26907 0.05332
2973.98330 0.05339
2972.69753 0.05365
2971.41176 0.05424
2970.12599 0.05516
2968.84022 0.05620
2967.55445 0.05718
2966.26868 0.05809
2964.98291 0.05893
2963.69715 0.05967
2962.41138 0.06020
2961.12561 0.06058
2959.83984 0.06103
2958.55407 0.06171
2957.26830 0.06258
2955.98253 0.06342
2954.69676 0.06405
2953.41100 0.06439
2952.12523 0.06448
2950.83946 0.06442
2949.55369 0.06430
2948.26792 0.06421
2946.98215 0.06415
2945.69638 0.06401
2944.41061 0.06363
2943.12484 0.06312
2941.83908 0.06283
2940.55331 0.06306
2939.26754 0.06371
2937.98177 0.06443
2936.69600 0.06496
2935.41023 0.06528
2934.12446 0.06559
2932.83869 0.06601
2931.55293 0.06649
2930.26716 0.06686
2928.98139 0.06710
2927.69562 0.06742
2926.40985 0.06795
2925.12408 0.06849
2923.83831 0.06864
2922.55254 0.06831
2921.26677 0.06783
2919.98101 0.06755
2918.69524 0.06751
2917.40947 0.06747
2916.12370 0.06720
2914.83793 0.06667
2913.55216 0.06592
2912.26639 0.06509
2910.98062 0.06445
2909.69486 0.06413
2908.40909 0.06396
2907.12332 0.06360
2905.83755 0.06285
2904.55178 0.06194
2903.26601 0.06124
2901.98024 0.06097
2900.69447 0.06101
2899.40870 0.06110
2898.12294 0.06089
2896.83717 0.06021
2895.55140 0.05919
2894.26563 0.05826
2892.97986 0.05780
2891.69409 0.05775
2890.40832 0.05774
2889.12255 0.05744
2887.83678 0.05683
2886.55102 0.05619
2885.26525 0.05573
2883.97948 0.05551
2882.69371 0.05545
2881.40794 0.05547
2880.12217 0.05549
2878.83640 0.05547
2877.55063 0.05545
2876.26487 0.05558
2874.97910 0.05593
2873.69333 0.05634
2872.40756 0.05656
2871.12179 0.05659
2869.83602 0.05672
2868.55025 0.05713
2867.26448 0.05763
2865.97871 0.05778
2864.69295 0.05744
2863.40718 0.05686
2862.12141 0.05639
2860.83564 0.05623
2859.54987 0.05632
2858.26410 0.05646
2856.97833 0.05645
2855.69256 0.05625
2854.40680 0.05605
2853.12103 0.05601
2851.83526 0.05603
2850.54949 0.05588
2849.26372 0.05544
2847.97795 0.05489
2846.69218 0.05441
2845.40641 0.05399
2844.12064 0.05356
2842.83488 0.05304
2841.54911 0.05238
2840.26334 0.05153
2838.97757 0.05053
2837.69180 0.04952
2836.40603 0.04867
2835.12026 0.04804
2833.83449 0.04762
2832.54873 0.04739
2831.26296 0.04724
2829.97719 0.04705
2828.69142 0.04677
2827.40565 0.04651
2826.11988 0.04635
2824.83411 0.04628
2823.54834 0.04618
2822.26257 0.04600
2820.97681 0.04575
2819.69104 0.04551
2818.40527 0.04528
2817.11950 0.04506
2815.83373 0.04485
2814.54796 0.04468
2813.26219 0.04455
2811.97642 0.04442
2810.69066 0.04419
2809.40489 0.04390
2808.11912 0.04368
2806.83335 0.04363
2805.54758 0.04368
2804.26181 0.04369
2802.97604 0.04360
2801.69027 0.04345
2800.40450 0.04332
2799.11874 0.04320
2797.83297 0.04305
2796.54720 0.04281
2795.26143 0.04256
2793.97566 0.04239
2792.68989 0.04238
2791.40412 0.04252
2790.11835 0.04277
2788.83259 0.04302
2787.54682 0.04311
2786.26105 0.04289
2784.97528 0.04246
2783.68951 0.04206
2782.40374 0.04186
2781.11797 0.04185
2779.83220 0.04195
2778.54643 0.04207
2777.26067 0.04214
2775.97490 0.04210
2774.68913 0.04199
2773.40336 0.04187
2772.11759 0.04174
2770.83182 0.04162
2769.54605 0.04155
2768.26028 0.04152
2766.97452 0.04147
2765.68875 0.04136
2764.40298 0.04124
2763.11721 0.04119
2761.83144 0.04115
2760.54567 0.04100
2759.25990 0.04069
2757.97413 0.04035
2756.68836 0.04018
2755.40260 0.04029
2754.11683 0.04061
2752.83106 0.04085
2751.54529 0.04079
2750.25952 0.04042
2748.97375 0.04003
2747.68798 0.03985
2746.40221 0.03985
2745.11645 0.03985
2743.83068 0.03978
2742.54491 0.03972
2741.25914 0.03972
2739.97337 0.03974
2738.68760 0.03971
2737.40183 0.03966
2736.11606 0.03963
2734.83029 0.03964
2733.54453 0.03971
2732.25876 0.03980
2730.97299 0.03986
2729.68722 0.03984
2728.40145 0.03969
2727.11568 0.03940
2725.82991 0.03901
2724.54414 0.03861
2723.25838 0.03836
2721.97261 0.03830
2720.68684 0.03842
2719.40107 0.03863
2718.11530 0.03881
2716.82953 0.03886
2715.54376 0.03875
2714.25799 0.03858
2712.97222 0.03851
2711.68646 0.03855
2710.40069 0.03853
2709.11492 0.03827
2707.82915 0.03784
2706.54338 0.03744
2705.25761 0.03724
2703.97184 0.03728
2702.68607 0.03747
2701.40031 0.03767
2700.11454 0.03774
2698.82877 0.03767
2697.54300 0.03757
2696.25723 0.03752
2694.97146 0.03748
2693.68569 0.03738
2692.39992 0.03720
2691.11415 0.03702
2689.82839 0.03697
2688.54262 0.03709
2687.25685 0.03728
2685.97108 0.03735
2684.68531 0.03718
2683.39954 0.03687
2682.11377 0.03664
2680.82800 0.03661
2679.54224 0.03669
2678.25647 0.03668
2676.97070 0.03652
2675.68493 0.03633
2674.39916 0.03626
2673.11339 0.03634
2671.82762 0.03643
2670.54185 0.03650
2669.25608 0.03658
2667.97032 0.03665
2666.68455 0.03658
2665.39878 0.03634
2664.11301 0.03610
2662.82724 0.03605
2661.54147 0.03621
2660.25570 0.03643
2658.96993 0.03657
2657.68417 0.03668
2656.39840 0.03681
2655.11263 0.03693
2653.82686 0.03695
2652.54109 0.03679
2651.25532 0.03641
2649.96955 0.03585
2648.68378 0.03523
2647.39801 0.03474
2646.11225 0.03450
2644.82648 0.03453
2643.54071 0.03475
2642.25494 0.03496
2640.96917 0.03497
2639.68340 0.03472
2638.39763 0.03431
2637.11186 0.03385
2635.82609 0.03344
2634.54033 0.03311
2633.25456 0.03293
2631.96879 0.03296
2630.68302 0.03326
2629.39725 0.03381
2628.11148 0.03446
2626.82571 0.03491
2625.53994 0.03495
2624.25418 0.03461
2622.96841 0.03408
2621.68264 0.03358
2620.39687 0.03321
2619.11110 0.03291
2617.82533 0.03260
2616.53956 0.03233
2615.25379 0.03229
2613.96802 0.03259
2612.68226 0.03302
2611.39649 0.03320
2610.11072 0.03298
2608.82495 0.03252
2607.53918 0.03213
2606.25341 0.03196
2604.96764 0.03197
2603.68187 0.03202
2602.39611 0.03207
2601.11034 0.03216
2599.82457 0.03226
2598.53880 0.03216
2597.25303 0.03169
2595.96726 0.03101
2594.68149 0.03048
2593.39572 0.03026
2592.10995 0.03022
2590.82419 0.03017
2589.53842 0.03013
2588.25265 0.03016
2586.96688 0.03019
2585.68111 0.03011
2584.39534 0.02995
2583.10957 0.02980
2581.82380 0.02973
2580.53804 0.02973
2579.25227 0.02985
2577.96650 0.03010
2576.68073 0.03037
2575.39496 0.03047
2574.10919 0.03033
2572.82342 0.03013
2571.53765 0.03007
2570.25188 0.03019
2568.96612 0.03035
2567.68035 0.03036
2566.39458 0.03018
2565.10881 0.02986
2563.82304 0.02951
2562.53727 0.02929
2561.25150 0.02924
2559.96573 0.02929
2558.67997 0.02926
2557.39420 0.02906
2556.10843 0.02876
2554.82266 0.02861
2553.53689 0.02872
2552.25112 0.02894
2550.96535 0.02901
2549.67958 0.02881
2548.39381 0.02848
2547.10805 0.02817
2545.82228 0.02795
2544.53651 0.02786
2543.25074 0.02801
2541.96497 0.02842
2540.67920 0.02891
2539.39343 0.02920
2538.10766 0.02911
2536.82190 0.02872
2535.53613 0.02822
2534.25036 0.02787
2532.96459 0.02790
2531.67882 0.02836
2530.39305 0.02903
2529.10728 0.02950
2527.82151 0.02946
2526.53574 0.02894
2525.24998 0.02831
2523.96421 0.02794
2522.67844 0.02792
2521.39267 0.02807
2520.10690 0.02817
2518.82113 0.02814
2517.53536 0.02804
2516.24959 0.02794
2514.96383 0.02785
2513.67806 0.02775
2512.39229 0.02768
2511.10652 0.02777
2509.82075 0.02808
2508.53498 0.02842
2507.24921 0.02847
2505.96344 0.02812
2504.67767 0.02760
2503.39191 0.02724
2502.10614 0.02709
2500.82037 0.02699
2499.53460 0.02687
2498.24883 0.02684
2496.96306 0.02703
2495.67729 0.02738
2494.39152 0.02769
2493.10576 0.02786
2491.81999 0.02792
2490.53422 0.02787
2489.24845 0.02769
2487.96268 0.02743
2486.67691 0.02721
2485.39114 0.02713
2484.10537 0.02722
2482.81960 0.02749
2481.53384 0.02781
2480.24807 0.02787
2478.96230 0.02753
2477.67653 0.02699
2476.39076 0.02667
2475.10499 0.02670
2473.81922 0.02689
2472.53345 0.02695
2471.24769 0.02677
2469.96192 0.02650
2468.67615 0.02640
2467.39038 0.02653
2466.10461 0.02675
2464.81884 0.02687
2463.53307 0.02684
2462.24730 0.02677
2460.96153 0.02674
2459.67577 0.02674
2458.39000 0.02669
2457.10423 0.02659
2455.81846 0.02650
2454.53269 0.02643
2453.24692 0.02644
2451.96115 0.02656
2450.67538 0.02680
2449.38962 0.02702
2448.10385 0.02701
2446.81808 0.02672
2445.53231 0.02630
2444.24654 0.02598
2442.96077 0.02595
2441.67500 0.02622
2440.38923 0.02661
2439.10346 0.02688
2437.81770 0.02689
2436.53193 0.02668
2435.24616 0.02641
2433.96039 0.02626
2432.67462 0.02639
2431.38885 0.02679
2430.10308 0.02723
2428.81731 0.02731
2427.53155 0.02686
2426.24578 0.02606
2424.96001 0.02531
2423.67424 0.02487
2422.38847 0.02471
2421.10270 0.02469
2419.81693 0.02468
2418.53116 0.02472
2417.24539 0.02485
2415.95963 0.02511
2414.67386 0.02544
2413.38809 0.02575
2412.10232 0.02599
2410.81655 0.02623
2409.53078 0.02647
2408.24501 0.02657
2406.95924 0.02631
2405.67347 0.02571
2404.38771 0.02516
2403.10194 0.02505
2401.81617 0.02544
2400.53040 0.02607
2399.24463 0.02740
2397.95886 0.02689
2396.67309 0.02621
2395.38732 0.02590
2394.10156 0.02582
2392.81579 0.02587
2391.53002 0.02589
2390.24425 0.02575
2388.95848 0.02548
2387.67271 0.02523
2386.38694 0.02510
2385.10117 0.02507
2383.81540 0.02508
2382.52964 0.02506
2381.24387 0.02497
2379.95810 0.02478
2378.67233 0.02453
2377.38656 0.02434
2376.10079 0.02437
2374.81502 0.02465
2373.52925 0.02517
2372.24349 0.02573
2370.95772 0.02621
2369.67195 0.02643
2368.38618 0.02643
2367.10041 0.02638
2365.81464 0.02649
2364.52887 0.02663
2363.24310 0.02673
2361.95733 0.02676
2360.67157 0.02685
2359.38580 0.02681
2358.10003 0.02666
2356.81426 0.02652
2355.52849 0.02645
2354.24272 0.02640
2352.95695 0.02634
2351.67118 0.02639
2350.38542 0.02646
2349.09965 0.02633
2347.81388 0.02607
2346.52811 0.02617
2345.24234 0.02645
2343.95657 0.02631
2342.67080 0.02583
2341.38503 0.02598
2340.09926 0.02680
2338.81350 0.02690
2337.52773 0.02621
2336.24196 0.02638
2334.95619 0.02717
2333.67042 0.02681
2332.38465 0.02583
2331.09888 0.02616
2329.81311 0.02660
2328.52735 0.02594
2327.24158 0.02629
2325.95581 0.02721
2324.67004 0.02698
2323.38427 0.02685
2322.09850 0.02716
2320.81273 0.02666
2319.52696 0.02649
2318.24119 0.02658
2316.95543 0.02608
2315.66966 0.02585
2314.38389 0.02581
2313.09812 0.02556
2311.81235 0.02556
2310.52658 0.02546
2309.24081 0.02532
2307.95504 0.02529
2306.66928 0.02500
2305.38351 0.02456
2304.09774 0.02396
2302.81197 0.02335
2301.52620 0.02309
2300.24043 0.02314
2298.95466 0.02345
2297.66889 0.02377
2296.38312 0.02397
2295.09736 0.02402
2293.81159 0.02395
2292.52582 0.02386
2291.24005 0.02379
2289.95428 0.02377
2288.66851 0.02371
2287.38274 0.02349
2286.09697 0.02311
2284.81121 0.02274
2283.52544 0.02259
2282.23967 0.02277
2280.95390 0.02312
2279.66813 0.02339
2278.38236 0.02334
2277.09659 0.02293
2275.81082 0.02244
2274.52505 0.02219
2273.23929 0.02226
2271.95352 0.02244
2270.66775 0.02238
2269.38198 0.02193
2268.09621 0.02125
2266.81044 0.02076
2265.52467 0.02087
2264.23890 0.02149
2262.95314 0.02206
2261.66737 0.02192
2260.38160 0.02093
2259.09583 0.01955
2257.81006 0.01852
2256.52429 0.01817
2255.23852 0.01836
2253.95275 0.01875
2252.66698 0.01909
2251.38122 0.01906
2250.09545 0.01902
2248.80968 0.02024
2247.52391 0.02022
2246.23814 0.01984
2244.95237 0.01960
2243.66660 0.01986
2242.38083 0.02030
2241.09507 0.02026
2239.80930 0.01954
2238.52353 0.01862
2237.23776 0.01808
2235.95199 0.01805
2234.66622 0.01828
2233.38045 0.01844
2232.09468 0.01834
2230.80891 0.01806
2229.52315 0.01787
2228.23738 0.01795
2226.95161 0.01813
2225.66584 0.01798
2224.38007 0.01728
2223.09430 0.01632
2221.80853 0.01578
2220.52276 0.01605
2219.23700 0.01680
2217.95123 0.01735
2216.66546 0.01724
2215.37969 0.01656
2214.09392 0.01574
2212.80815 0.01515
2211.52238 0.01492
2210.23661 0.01489
2208.95084 0.01479
2207.66508 0.01451
2206.37931 0.01419
2205.09354 0.01403
2203.80777 0.01416
2202.52200 0.01447
2201.23623 0.01463
2199.95046 0.01442
2198.66469 0.01397
2197.37893 0.01362
2196.09316 0.01359
2194.80739 0.01378
2193.52162 0.01399
2192.23585 0.01414
2190.95008 0.01433
2189.66431 0.01469
2188.37854 0.01509
2187.09277 0.01506
2185.80701 0.01432
2184.52124 0.01326
2183.23547 0.01261
2181.94970 0.01267
2180.66393 0.01311
2179.37816 0.01330
2178.09239 0.01288
2176.80662 0.01193
2175.52085 0.01093
2174.23509 0.01040
2172.94932 0.01041
2171.66355 0.01064
2170.37778 0.01101
2169.09201 0.01174
2167.80624 0.01275
2166.52047 0.01327
2165.23470 0.01239
2163.94894 0.01005
2162.66317 0.00711
2161.37740 0.00458
2160.09163 0.00304
2158.80586 0.00258
2157.52009 0.00289
2156.23432 0.00335
2154.94855 0.00342
2153.66278 0.00306
2152.37702 0.00288
2151.09125 0.00371
2149.80548 0.00576
2148.51971 0.00836
2147.23394 0.01051
2145.94817 0.01163
2144.66240 0.01171
2143.37663 0.01105
2142.09087 0.01004
2140.80510 0.00914
2139.51933 0.00865
2138.23356 0.00857
2136.94779 0.00868
2135.66202 0.00895
2134.37625 0.00952
2133.09048 0.01033
2131.80471 0.01104
2130.51895 0.01144
2129.23318 0.01168
2127.94741 0.01200
2126.66164 0.01236
2125.37587 0.01255
2124.09010 0.01251
2122.80433 0.01239
2121.51856 0.01232
2120.23280 0.01240
2118.94703 0.01273
2117.66126 0.01337
2116.37549 0.01410
2115.08972 0.01451
2113.80395 0.01437
2112.51818 0.01389
2111.23241 0.01356
2109.94664 0.01362
2108.66088 0.01389
2107.37511 0.01399
2106.08934 0.01372
2104.80357 0.01321
2103.51780 0.01269
2102.23203 0.01230
2100.94626 0.01206
2099.66049 0.01360
2098.37473 0.01466
2097.08896 0.01473
2095.80319 0.01437
2094.51742 0.01377
2093.23165 0.01300
2091.94588 0.01235
2090.66011 0.01206
2089.37434 0.01209
2088.08857 0.01222
2086.80281 0.01223
2085.51704 0.01216
2084.23127 0.01220
2082.94550 0.01256
2081.65973 0.01324
2080.37396 0.01402
2079.08819 0.01466
2077.80242 0.01500
2076.51666 0.01510
2075.23089 0.01507
2073.94512 0.01500
2072.65935 0.01483
2071.37358 0.01441
2070.08781 0.01377
2068.80204 0.01309
2067.51627 0.01259
2066.23050 0.01225
2064.94474 0.01189
2063.65897 0.01144
2062.37320 0.01093
2061.08743 0.01047
2059.80166 0.01013
2058.51589 0.00990
2057.23012 0.00972
2055.94435 0.00954
2054.65859 0.00951
2053.37282 0.00983
2052.08705 0.01055
2050.80128 0.01141
2049.51551 0.01195
2048.22974 0.01193
2046.94397 0.01142
2045.65820 0.01070
2044.37243 0.01007
2043.08667 0.00974
2041.80090 0.00977
2040.51513 0.01008
2039.22936 0.01052
2037.94359 0.01106
2036.65782 0.01176
2035.37205 0.01263
2034.08628 0.01333
2032.80052 0.01336
2031.51475 0.01234
2030.22898 0.01049
2028.94321 0.00859
2027.65744 0.00742
2026.37167 0.00722
2025.08590 0.00760
2023.80013 0.00809
2022.51436 0.00847
2021.22860 0.00864
2019.94283 0.00846
2018.65706 0.00793
2017.37129 0.00750
2016.08552 0.00774
2014.79975 0.00875
2013.51398 0.01007
2012.22821 0.01117
2010.94245 0.01183
2009.65668 0.01195
2008.37091 0.01140
2007.08514 0.01028
2005.79937 0.00907
2004.51360 0.00821
2003.22783 0.00777
2001.94206 0.00762
2000.65629 0.00779
1999.37053 0.00842
1998.08476 0.00929
1996.79899 0.00991
1995.51322 0.01001
1994.22745 0.00988
1992.94168 0.00993
1991.65591 0.01019
1990.37014 0.01032
1989.08438 0.01016
1987.79861 0.00996
1986.51284 0.01007
1985.22707 0.01058
1983.94130 0.01140
1982.65553 0.01240
1981.36976 0.01346
1980.08399 0.01431
1978.79822 0.01465
1977.51246 0.01437
1976.22669 0.01371
1974.94092 0.01315
1973.65515 0.01310
1972.36938 0.01370
1971.08361 0.01468
1969.79784 0.01551
1968.51207 0.01567
1967.22631 0.01506
1965.94054 0.01407
1964.65477 0.01329
1963.36900 0.01299
1962.08323 0.01292
1960.79746 0.01271
1959.51169 0.01234
1958.22592 0.01208
1956.94015 0.01207
1955.65439 0.01214
1954.36862 0.01214
1953.08285 0.01220
1951.79708 0.01256
1950.51131 0.01324
1949.22554 0.01394
1947.93977 0.01437
1946.65400 0.01456
1945.36823 0.01475
1944.08247 0.01506
1942.79670 0.01541
1941.51093 0.01568
1940.22516 0.01591
1938.93939 0.01619
1937.65362 0.01652
1936.36785 0.01673
1935.08208 0.01669
1933.79632 0.01643
1932.51055 0.01608
1931.22478 0.01574
1929.93901 0.01552
1928.65324 0.01555
1927.36747 0.01573
1926.08170 0.01576
1924.79593 0.01545
1923.51016 0.01499
1922.22440 0.01479
1920.93863 0.01497
1919.65286 0.01528
1918.36709 0.01541
1917.08132 0.01533
1915.79555 0.01516
1914.50978 0.01503
1913.22401 0.01501
1911.93825 0.01509
1910.65248 0.01517
1909.36671 0.01518
1908.08094 0.01508
1906.79517 0.01485
1905.50940 0.01450
1904.22363 0.01414
1902.93786 0.01393
1901.65209 0.01396
1900.36633 0.01424
1899.08056 0.01470
1897.79479 0.01526
1896.50902 0.01577
1895.22325 0.01609
1893.93748 0.01611
1892.65171 0.01587
1891.36594 0.01555
1890.08018 0.01539
1888.79441 0.01547
1887.50864 0.01574
1886.22287 0.01600
1884.93710 0.01607
1883.65133 0.01587
1882.36556 0.01548
1881.07979 0.01508
1879.79402 0.01483
1878.50826 0.01482
1877.22249 0.01500
1875.93672 0.01522
1874.65095 0.01536
1873.36518 0.01544
1872.07941 0.01554
1870.79364 0.01565
1869.50787 0.01572
1868.22211 0.01572
1866.93634 0.01569
1865.65057 0.01564
1864.36480 0.01554
1863.07903 0.01537
1861.79326 0.01516
1860.50749 0.01504
1859.22172 0.01506
1857.93595 0.01518
1856.65019 0.01530
1855.36442 0.01536
1854.07865 0.01539
1852.79288 0.01541
1851.50711 0.01539
1850.22134 0.01529
1848.93557 0.01515
1847.64980 0.01508
1846.36404 0.01513
1845.07827 0.01531
1843.79250 0.01551
1842.50673 0.01559
1841.22096 0.01548
1839.93519 0.01533
1838.64942 0.01531
1837.36365 0.01542
1836.07788 0.01550
1834.79212 0.01548
1833.50635 0.01540
1832.22058 0.01528
1830.93481 0.01516
1829.64904 0.01515
1828.36327 0.01531
1827.07750 0.01562
1825.79173 0.01603
1824.50597 0.01652
1823.22020 0.01701
1821.93443 0.01734
1820.64866 0.01739
1819.36289 0.01718
1818.07712 0.01679
1816.79135 0.01631
1815.50558 0.01579
1814.21981 0.01528
1812.93405 0.01487
1811.64828 0.01467
1810.36251 0.01469
1809.07674 0.01489
1807.79097 0.01514
1806.50520 0.01539
1805.21943 0.01563
1803.93366 0.01582
1802.64790 0.01590
1801.36213 0.01586
1800.07636 0.01576
1798.79059 0.01569
1797.50482 0.01574
1796.21905 0.01592
1794.93328 0.01614
1793.64751 0.01629
1792.36174 0.01640
1791.07598 0.01652
1789.79021 0.01664
1788.50444 0.01667
1787.21867 0.01659
1785.93290 0.01646
1784.64713 0.01635
1783.36136 0.01631
1782.07559 0.01633
1780.78983 0.01638
1779.50406 0.01644
1778.21829 0.01647
1776.93252 0.01646
1775.64675 0.01641
1774.36098 0.01630
1773.07521 0.01617
1771.78944 0.01609
1770.50367 0.01603
1769.21791 0.01592
1767.93214 0.01579
1766.64637 0.01579
1765.36060 0.01595
1764.07483 0.01619
1762.78906 0.01642
1761.50329 0.01658
1760.21752 0.01659
1758.93176 0.01643
1757.64599 0.01622
1756.36022 0.01613
1755.07445 0.01619
1753.78868 0.01628
1752.50291 0.01631
1751.21714 0.01635
1749.93137 0.01643
1748.64560 0.01650
1747.35984 0.01649
1746.07407 0.01644
1744.78830 0.01642
1743.50253 0.01645
1742.21676 0.01647
1740.93099 0.01645
1739.64522 0.01643
1738.35945 0.01651
1737.07369 0.01661
1735.78792 0.01663
1734.50215 0.01663
1733.21638 0.01669
1731.93061 0.01672
1730.64484 0.01660
1729.35907 0.01642
1728.07330 0.01639
1726.78753 0.01650
1725.50177 0.01663
1724.21600 0.01675
1722.93023 0.01693
1721.64446 0.01721
1720.35869 0.01754
1719.07292 0.01779
1717.78715 0.01800
1716.50138 0.01819
1715.21561 0.01835
1713.92985 0.01848
1712.64408 0.01867
1711.35831 0.01900
1710.07254 0.01946
1708.78677 0.02000
1707.50100 0.02056
1706.21523 0.02117
1704.92946 0.02191
1703.64370 0.02273
1702.35793 0.02348
1701.07216 0.02415
1699.78639 0.02493
1698.50062 0.02578
1697.21485 0.02647
1695.92908 0.02702
1694.64331 0.02764
1693.35754 0.02823
1692.07178 0.02869
1690.78601 0.02916
1689.50024 0.02990
1688.21447 0.03086
1686.92870 0.03179
1685.64293 0.03257
1684.35716 0.03331
1683.07139 0.03410
1681.78563 0.03481
1680.49986 0.03539
1679.21409 0.03599
1677.92832 0.03666
1676.64255 0.03736
1675.35678 0.03814
1674.07101 0.03905
1672.78524 0.03998
1671.49947 0.04082
1670.21371 0.04156
1668.92794 0.04227
1667.64217 0.04296
1666.35640 0.04360
1665.07063 0.04420
1663.78486 0.04483
1662.49909 0.04552
1661.21332 0.04620
1659.92756 0.04681
1658.64179 0.04744
1657.35602 0.04820
1656.07025 0.04902
1654.78448 0.04969
1653.49871 0.05020
1652.21294 0.05068
1650.92717 0.05108
1649.64140 0.05117
1648.35564 0.05102
1647.06987 0.05086
1645.78410 0.05081
1644.49833 0.05077
1643.21256 0.05060
1641.92679 0.05033
1640.64102 0.05009
1639.35525 0.04994
1638.06949 0.04982
1636.78372 0.04961
1635.49795 0.04928
1634.21218 0.04883
1632.92641 0.04825
1631.64064 0.04757
1630.35487 0.04694
1629.06910 0.04645
1627.78333 0.04602
1626.49757 0.04555
1625.21180 0.04495
1623.92603 0.04425
1622.64026 0.04357
1621.35449 0.04302
1620.06872 0.04255
1618.78295 0.04206
1617.49718 0.04153
1616.21142 0.04105
1614.92565 0.04061
1613.63988 0.04012
1612.35411 0.03959
1611.06834 0.03914
1609.78257 0.03882
1608.49680 0.03859
1607.21103 0.03839
1605.92526 0.03823
1604.63950 0.03812
1603.35373 0.03808
1602.06796 0.03812
1600.78219 0.03818
1599.49642 0.03823
1598.21065 0.03825
1596.92488 0.03827
1595.63911 0.03833
1594.35335 0.03845
1593.06758 0.03864
1591.78181 0.03885
1590.49604 0.03905
1589.21027 0.03925
1587.92450 0.03947
1586.63873 0.03969
1585.35296 0.03989
1584.06719 0.04009
1582.78143 0.04037
1581.49566 0.04084
1580.20989 0.04152
1578.92412 0.04229
1577.63835 0.04295
1576.35258 0.04350
1575.06681 0.04405
1573.78104 0.04457
1572.49528 0.04497
1571.20951 0.04530
1569.92374 0.04570
1568.63797 0.04617
1567.35220 0.04663
1566.06643 0.04701
1564.78066 0.04745
1563.49489 0.04808
1562.20912 0.04878
1560.92336 0.04939
1559.63759 0.04993
1558.35182 0.05049
1557.06605 0.05099
1555.78028 0.05121
1554.49451 0.05120
1553.20874 0.05119
1551.92297 0.05125
1550.63721 0.05136
1549.35144 0.05154
1548.06567 0.05177
1546.77990 0.05199
1545.49413 0.05220
1544.20836 0.05243
1542.92259 0.05264
1541.63682 0.05270
1540.35105 0.05258
1539.06529 0.05242
1537.77952 0.05226
1536.49375 0.05203
1535.20798 0.05173
1533.92221 0.05153
1532.63644 0.05157
1531.35067 0.05177
1530.06490 0.05200
1528.77914 0.05224
1527.49337 0.05254
1526.20760 0.05294
1524.92183 0.05344
1523.63606 0.05394
1522.35029 0.05437
1521.06452 0.05483
1519.77875 0.05535
1518.49298 0.05586
1517.20722 0.05636
1515.92145 0.05693
1514.63568 0.05762
1513.34991 0.05840
1512.06414 0.05932
1510.77837 0.06042
1509.49260 0.06158
1508.20683 0.06262
1506.92107 0.06351
1505.63530 0.06435
1504.34953 0.06513
1503.06376 0.06581
1501.77799 0.06643
1500.49222 0.06708
1499.20645 0.06773
1497.92068 0.06827
1496.63491 0.06871
1495.34915 0.06917
1494.06338 0.06968
1492.77761 0.07019
1491.49184 0.07074
1490.20607 0.07140
1488.92030 0.07218
1487.63453 0.07299
1486.34876 0.07378
1485.06299 0.07456
1483.77723 0.07537
1482.49146 0.07626
1481.20569 0.07726
1479.91992 0.07835
1478.63415 0.07953
1477.34838 0.08077
1476.06261 0.08203
1474.77684 0.08320
1473.49108 0.08421
1472.20531 0.08510
1470.91954 0.08590
1469.63377 0.08659
1468.34800 0.08717
1467.06223 0.08767
1465.77646 0.08818
1464.49069 0.08875
1463.20492 0.08937
1461.91916 0.09004
1460.63339 0.09076
1459.34762 0.09148
1458.06185 0.09219
1456.77608 0.09293
1455.49031 0.09366
1454.20454 0.09424
1452.91877 0.09461
1451.63301 0.09486
1450.34724 0.09506
1449.06147 0.09516
1447.77570 0.09514
1446.48993 0.09500
1445.20416 0.09478
1443.91839 0.09452
1442.63262 0.09428
1441.34685 0.09409
1440.06109 0.09393
1438.77532 0.09372
1437.48955 0.09353
1436.20378 0.09347
1434.91801 0.09359
1433.63224 0.09383
1432.34647 0.09417
1431.06070 0.09472
1429.77494 0.09553
1428.48917 0.09659
1427.20340 0.09784
1425.91763 0.09921
1424.63186 0.10065
1423.34609 0.10210
1422.06032 0.10349
1420.77455 0.10474
1419.48878 0.10589
1418.20302 0.10697
1416.91725 0.10789
1415.63148 0.10859
1414.34571 0.10908
1413.05994 0.10943
1411.77417 0.10964
1410.48840 0.10965
1409.20263 0.10944
1407.91687 0.10900
1406.63110 0.10834
1405.34533 0.10750
1404.05956 0.10650
1402.77379 0.10529
1401.48802 0.10384
1400.20225 0.10221
1398.91648 0.10052
1397.63071 0.09880
1396.34495 0.09698
1395.05918 0.09502
1393.77341 0.09296
1392.48764 0.09088
1391.20187 0.08883
1389.91610 0.08682
1388.63033 0.08485
1387.34456 0.08292
1386.05880 0.08098
1384.77303 0.07898
1383.48726 0.07692
1382.20149 0.07487
1380.91572 0.07292
1379.62995 0.07108
1378.34418 0.06928
1377.05841 0.06742
1375.77264 0.06545
1374.48688 0.06338
1373.20111 0.06130
1371.91534 0.05925
1370.62957 0.05727
1369.34380 0.05538
1368.05803 0.05361
1366.77226 0.05195
1365.48649 0.05040
1364.20073 0.04894
1362.91496 0.04756
1361.62919 0.04625
1360.34342 0.04500
1359.05765 0.04383
1357.77188 0.04278
1356.48611 0.04183
1355.20034 0.04094
1353.91457 0.04007
1352.62881 0.03923
1351.34304 0.03848
1350.05727 0.03783
1348.77150 0.03727
1347.48573 0.03676
1346.19996 0.03628
1344.91419 0.03582
1343.62842 0.03537
1342.34266 0.03492
1341.05689 0.03445
1339.77112 0.03402
1338.48535 0.03366
1337.19958 0.03336
1335.91381 0.03309
1334.62804 0.03283
1333.34227 0.03256
1332.05650 0.03227
1330.77074 0.03196
1329.48497 0.03159
1328.19920 0.03119
1326.91343 0.03079
1325.62766 0.03045
1324.34189 0.03016
1323.05612 0.02993
1321.77035 0.02970
1320.48459 0.02946
1319.19882 0.02920
1317.91305 0.02894
1316.62728 0.02869
1315.34151 0.02845
1314.05574 0.02822
1312.76997 0.02799
1311.48420 0.02777
1310.19843 0.02756
1308.91267 0.02735
1307.62690 0.02710
1306.34113 0.02683
1305.05536 0.02653
1303.76959 0.02622
1302.48382 0.02593
1301.19805 0.02569
1299.91228 0.02548
1298.62652 0.02526
1297.34075 0.02500
1296.05498 0.02473
1294.76921 0.02451
1293.48344 0.02436
1292.19767 0.02427
1290.91190 0.02421
1289.62613 0.02413
1288.34036 0.02398
1287.05460 0.02377
1285.76883 0.02357
1284.48306 0.02343
1283.19729 0.02337
1281.91152 0.02337
1280.62575 0.02335
1279.33998 0.02328
1278.05421 0.02316
1276.76845 0.02300
1275.48268 0.02284
1274.19691 0.02271
1272.91114 0.02261
1271.62537 0.02251
1270.33960 0.02241
1269.05383 0.02231
1267.76806 0.02225
1266.48229 0.02224
1265.19653 0.02223
1263.91076 0.02220
1262.62499 0.02212
1261.33922 0.02203
1260.05345 0.02193
1258.76768 0.02185
1257.48191 0.02179
1256.19614 0.02176
1254.91037 0.02176
1253.62461 0.02176
1252.33884 0.02175
1251.05307 0.02172
1249.76730 0.02168
1248.48153 0.02162
1247.19576 0.02153
1245.90999 0.02144
1244.62422 0.02139
1243.33846 0.02138
1242.05269 0.02139
1240.76692 0.02140
1239.48115 0.02138
1238.19538 0.02132
1236.90961 0.02122
1235.62384 0.02108
1234.33807 0.02092
1233.05230 0.02078
1231.76654 0.02068
1230.48077 0.02059
1229.19500 0.02046
1227.90923 0.02027
1226.62346 0.02007
1225.33769 0.01990
1224.05192 0.01974
1222.76615 0.01954
1221.48039 0.01931
1220.19462 0.01906
1218.90885 0.01883
1217.62308 0.01863
1216.33731 0.01844
1215.05154 0.01825
1213.76577 0.01812
1212.48000 0.01809
1211.19423 0.01813
1209.90847 0.01820
1208.62270 0.01826
1207.33693 0.01828
1206.05116 0.01826
1204.76539 0.01823
1203.47962 0.01818
1202.19385 0.01807
1200.90808 0.01781
1199.62232 0.01763
1198.33655 0.01755
1197.05078 0.01746
1195.76501 0.01735
1194.47924 0.01727
1193.19347 0.01720
1191.90770 0.01712
1190.62193 0.01704
1189.33616 0.01696
1188.05040 0.01690
1186.76463 0.01686
1185.47886 0.01679
1184.19309 0.01666
1182.90732 0.01649
1181.62155 0.01637
1180.33578 0.01633
1179.05001 0.01637
1177.76425 0.01644
1176.47848 0.01650
1175.19271 0.01657
1173.90694 0.01662
1172.62117 0.01665
1171.33540 0.01666
1170.04963 0.01672
1168.76386 0.01683
1167.47809 0.01701
1166.19233 0.01720
1164.90656 0.01736
1163.62079 0.01749
1162.33502 0.01757
1161.04925 0.01760
1159.76348 0.01759
1158.47771 0.01766
1157.19194 0.01787
1155.90618 0.01823
1154.62041 0.01859
1153.33464 0.01887
1152.04887 0.01904
1150.76310 0.01918
1149.47733 0.01932
1148.19156 0.01951
1146.90579 0.01979
1145.62002 0.02020
1144.33426 0.02074
1143.04849 0.02141
1141.76272 0.02216
1140.47695 0.02300
1139.19118 0.02388
1137.90541 0.02480
1136.61964 0.02580
1135.33387 0.02693
1134.04811 0.02823
1132.76234 0.02967
1131.47657 0.03124
1130.19080 0.03296
1128.90503 0.03489
1127.61926 0.03708
1126.33349 0.03950
1125.04772 0.04207
1123.76195 0.04474
1122.47619 0.04751
1121.19042 0.05042
1119.90465 0.05346
1118.61888 0.05660
1117.33311 0.05979
1116.04734 0.06300
1114.76157 0.06620
1113.47580 0.06937
1112.19004 0.07247
1110.90427 0.07550
1109.61850 0.07845
1108.33273 0.08133
1107.04696 0.08418
1105.76119 0.08702
1104.47542 0.08986
1103.18965 0.09264
1101.90388 0.09526
1100.61812 0.09765
1099.33235 0.09990
1098.04658 0.10215
1096.76081 0.10449
1095.47504 0.10689
1094.18927 0.10920
1092.90350 0.11126
1091.61773 0.11310
1090.33197 0.11482
1089.04620 0.11653
1087.76043 0.11824
1086.47466 0.11993
1085.18889 0.12159
1083.90312 0.12326
1082.61735 0.12500
1081.33158 0.12687
1080.04581 0.12889
1078.76005 0.13107
1077.47428 0.13340
1076.18851 0.13584
1074.90274 0.13836
1073.61697 0.14094
1072.33120 0.14360
1071.04543 0.14638
1069.75966 0.14929
1068.47390 0.15230
1067.18813 0.15542
1065.90236 0.15859
1064.61659 0.16175
1063.33082 0.16486
1062.04505 0.16799
1060.75928 0.17122
1059.47351 0.17451
1058.18774 0.17777
1056.90198 0.18088
1055.61621 0.18386
1054.33044 0.18673
1053.04467 0.18957
1051.75890 0.19245
1050.47313 0.19546
1049.18736 0.19863
1047.90159 0.20191
1046.61583 0.20518
1045.33006 0.20838
1044.04429 0.21153
1042.75852 0.21471
1041.47275 0.21794
1040.18698 0.22124
1038.90121 0.22457
1037.61544 0.22791
1036.32967 0.23123
1035.04391 0.23451
1033.75814 0.23770
1032.47237 0.24074
1031.18660 0.24357
1029.90083 0.24618
1028.61506 0.24859
1027.32929 0.25085
1026.04352 0.25295
1024.75775 0.25482
1023.47199 0.25640
1022.18622 0.25769
1020.90045 0.25867
1019.61468 0.25933
1018.32891 0.25959
1017.04314 0.25946
1015.75737 0.25899
1014.47160 0.25825
1013.18584 0.25725
1011.90007 0.25590
1010.61430 0.25415
1009.32853 0.25193
1008.04276 0.24927
1006.75699 0.24619
1005.47122 0.24276
1004.18545 0.23901
1002.89968 0.23491
1001.61392 0.23048
1000.32815 0.22571
999.04238 0.22062
997.75661 0.21519
996.47084 0.20946
995.18507 0.20351
993.89930 0.19741
992.61353 0.19118
991.32777 0.18485
990.04200 0.17852
988.75623 0.17230
987.47046 0.16625
986.18469 0.16034
984.89892 0.15454
983.61315 0.14887
982.32738 0.14341
981.04161 0.13819
979.75585 0.13323
978.47008 0.12856
977.18431 0.12421
975.89854 0.12026
974.61277 0.11676
973.32700 0.11383
972.04123 0.11151
970.75546 0.10981
969.46970 0.10870
968.18393 0.10819
966.89816 0.10828
965.61239 0.10890
964.32662 0.10978
963.04085 0.11060
961.75508 0.11104
960.46931 0.11092
959.18354 0.11018
957.89778 0.10881
956.61201 0.10689
955.32624 0.10458
954.04047 0.10207
952.75470 0.09948
951.46893 0.09685
950.18316 0.09418
948.89739 0.09148
947.61163 0.08882
946.32586 0.08622
945.04009 0.08371
943.75432 0.08132
942.46855 0.07904
941.18278 0.07687
939.89701 0.07481
938.61124 0.07287
937.32547 0.07104
936.03971 0.06925
934.75394 0.06752
933.46817 0.06594
932.18240 0.06455
930.89663 0.06332
929.61086 0.06216
928.32509 0.06103
927.03932 0.05992
925.75356 0.05886
924.46779 0.05788
923.18202 0.05700
921.89625 0.05617
920.61048 0.05534
919.32471 0.05448
918.03894 0.05357
916.75317 0.05269
915.46740 0.05191
914.18164 0.05128
912.89587 0.05075
911.61010 0.05022
910.32433 0.04963
909.03856 0.04900
907.75279 0.04839
906.46702 0.04784
905.18125 0.04736
903.89549 0.04693
902.60972 0.04653
901.32395 0.04612
900.03818 0.04568
898.75241 0.04520
897.46664 0.04474
896.18087 0.04431
894.89510 0.04392
893.60933 0.04358
892.32357 0.04334
891.03780 0.04324
889.75203 0.04330
888.46626 0.04356
887.18049 0.04409
885.89472 0.04505
884.60895 0.04668
883.32318 0.04912
882.03742 0.05222
880.75165 0.05547
879.46588 0.05831
878.18011 0.06045
876.89434 0.06208
875.60857 0.06360
874.32280 0.06522
873.03703 0.06677
871.75126 0.06778
870.46550 0.06791
869.17973 0.06711
867.89396 0.06557
866.60819 0.06354
865.32242 0.06122
864.03665 0.05874
862.75088 0.05619
861.46511 0.05368
860.17935 0.05139
858.89358 0.04948
857.60781 0.04800
856.32204 0.04684
855.03627 0.04583
853.75050 0.04489
852.46473 0.04404
851.17896 0.04332
849.89319 0.04271
848.60743 0.04217
847.32166 0.04165
846.03589 0.04116
844.75012 0.04074
843.46435 0.04037
842.17858 0.04001
840.89281 0.03965
839.60704 0.03929
838.32128 0.03892
837.03551 0.03853
835.74974 0.03813
834.46397 0.03776
833.17820 0.03741
831.89243 0.03708
830.60666 0.03675
829.32089 0.03643
828.03512 0.03620
826.74936 0.03611
825.46359 0.03613
824.17782 0.03617
822.89205 0.03618
821.60628 0.03615
820.32051 0.03609
819.03474 0.03600
817.74897 0.03586
816.46321 0.03568
815.17744 0.03548
813.89167 0.03530
812.60590 0.03516
811.32013 0.03505
810.03436 0.03494
808.74859 0.03478
807.46282 0.03462
806.17705 0.03449
804.89129 0.03440
803.60552 0.03431
802.31975 0.03421
801.03398 0.03411
799.74821 0.03404
798.46244 0.03398
797.17667 0.03392
795.89090 0.03387
794.60513 0.03384
793.31937 0.03380
792.03360 0.03376
790.74783 0.03372
789.46206 0.03373
788.17629 0.03378
786.89052 0.03380
785.60475 0.03376
784.31898 0.03363
783.03322 0.03343
781.74745 0.03321
780.46168 0.03307
779.17591 0.03305
777.89014 0.03312
776.60437 0.03316
775.31860 0.03310
774.03283 0.03296
772.74706 0.03284
771.46130 0.03280
770.17553 0.03286
768.88976 0.03297
767.60399 0.03304
766.31822 0.03307
765.03245 0.03309
763.74668 0.03316
762.46091 0.03322
761.17515 0.03322
759.88938 0.03312
758.60361 0.03300
757.31784 0.03297
756.03207 0.03303
754.74630 0.03316
753.46053 0.03328
752.17476 0.03330
750.88899 0.03320
749.60323 0.03301
748.31746 0.03289
747.03169 0.03292
745.74592 0.03303
744.46015 0.03310
743.17438 0.03303
741.88861 0.03284
740.60284 0.03263
739.31708 0.03250
738.03131 0.03248
736.74554 0.03254
735.45977 0.03265
734.17400 0.03278
732.88823 0.03286
731.60246 0.03287
730.31669 0.03283
729.03092 0.03278
727.74516 0.03271
726.45939 0.03261
725.17362 0.03251
723.88785 0.03270
722.60208 0.03258
721.31631 0.03258
720.03054 0.03271
718.74477 0.03280
717.45901 0.03283
716.17324 0.03280
714.88747 0.03275
713.60170 0.03270
712.31593 0.03267
711.03016 0.03265
709.74439 0.03262
708.45862 0.03256
707.17285 0.03249
705.88709 0.03247
704.60132 0.03250
703.31555 0.03255
702.02978 0.03256
700.74401 0.03251
699.45824 0.03244
698.17247 0.03238
696.88670 0.03236
695.60094 0.03238
694.31517 0.03239
693.02940 0.03240
691.74363 0.03241
690.45786 0.03242
689.17209 0.03241
687.88632 0.03236
686.60055 0.03224
685.31478 0.03204
684.02902 0.03178
682.74325 0.03153
681.45748 0.03136
680.17171 0.03127
678.88594 0.03121
677.60017 0.03114
676.31440 0.03109
675.02863 0.03112
673.74287 0.03124
672.45710 0.03143
671.17133 0.03163
669.88556 0.03179
668.59979 0.03181
667.31402 0.03178
666.02825 0.03184
664.74248 0.03175
663.45671 0.03160
662.17095 0.03142
660.88518 0.03122
659.59941 0.03105
658.31364 0.03089
657.02787 0.03072
655.74210 0.03051
654.45633 0.03028
653.17056 0.03008
651.88480 0.02994
650.59903 0.02986
649.31326 0.02981
648.02749 0.02975
646.74172 0.02964
645.45595 0.02952
644.17018 0.02941
642.88441 0.02936
641.59864 0.02934
640.31288 0.02936
639.02711 0.02942
637.74134 0.02951
636.45557 0.02962
635.16980 0.02976
633.88403 0.02998
632.59826 0.03015
631.31249 0.02985
630.02673 0.02986
628.74096 0.03251
627.45519 0.03392
626.16942 0.03853
624.88365 0.04524
623.59788 0.05141
622.31211 0.05585
621.02634 0.05841
619.74057 0.05947
618.45481 0.05949
617.16904 0.05894
615.88327 0.05873
614.59750 0.06037
613.31173 0.06505
612.02596 0.07237
610.74019 0.08022
609.45442 0.08672
608.16866 0.09210
606.88289 0.09756
605.59712 0.10321
604.31135 0.10776
603.02558 0.10992
601.73981 0.10955
600.45404 0.10743
599.16827 0.10448
597.88250 0.10119
596.59674 0.09765
595.31097 0.09400
594.02520 0.09053
592.73943 0.08763
591.45366 0.08551
590.16789 0.08417
588.88212 0.08356
587.59635 0.08366
586.31059 0.08449
585.02482 0.08603
583.73905 0.08813
582.45328 0.09065
581.16751 0.09342
579.88174 0.09632
578.59597 0.09916
577.31020 0.10178
576.02443 0.10413
574.73867 0.10631
573.45290 0.10858
572.16713 0.11126
570.88136 0.11455
569.59559 0.11846
568.30982 0.12267
567.02405 0.12673
565.73828 0.13027
564.45251 0.13311
563.16675 0.13509
561.88098 0.13599
560.59521 0.13554
559.30944 0.13363
558.02367 0.13036
556.73790 0.12589
555.45213 0.12047
554.16636 0.11441
552.88060 0.10811
551.59483 0.10192
550.30906 0.09608
549.02329 0.09072
547.73752 0.08585
546.45175 0.08145
545.16598 0.07749
543.88021 0.07398
542.59444 0.07090
541.30868 0.06821
540.02291 0.06580
538.73714 0.06354
537.45137 0.06140
536.16560 0.05939
534.87983 0.05757
533.59406 0.05599
532.30829 0.05461
531.02253 0.05333
529.73676 0.05203
528.45099 0.05065
527.16522 0.04921
525.87945 0.04782
524.59368 0.04657
523.30791 0.04554
522.02214 0.04469
520.73637 0.04392
519.45061 0.04311
518.16484 0.04220
516.87907 0.04121
515.59330 0.04023
514.30753 0.03933
513.02176 0.03859
511.73599 0.03805
510.45022 0.03768
509.16446 0.03735
507.87869 0.03692
506.59292 0.03632
505.30715 0.03563
504.02138 0.03498
502.73561 0.03448
501.44984 0.03408
500.16407 0.03371
498.87830 0.03330
497.59254 0.03287
496.30677 0.03243
495.02100 0.03197
493.73523 0.03153
492.44946 0.03119
491.16369 0.03103
489.87792 0.03098
488.59215 0.03092
487.30639 0.03076
486.02062 0.03053
484.73485 0.03029
483.44908 0.03011
482.16331 0.02997
480.87754 0.02988
479.59177 0.02989
478.30600 0.03005
477.02023 0.03033
475.73447 0.03064
474.44870 0.03090
473.16293 0.03107
471.87716 0.03115
470.59139 0.03117
469.30562 0.03115
468.01985 0.03113
466.73408 0.03106
465.44832 0.03087
464.16255 0.03052
462.87678 0.03005
461.59101 0.02953
460.30524 0.02901
459.01947 0.02852
457.73370 0.02812
456.44793 0.02777
455.16216 0.02744
453.87640 0.02706
452.59063 0.02669
451.30486 0.02636
450.01909 0.02610
448.73332 0.02585
447.44755 0.02557
446.16178 0.02527
444.87601 0.02501
443.59025 0.02483
442.30448 0.02475
441.01871 0.02470
439.73294 0.02462
438.44717 0.02449
437.16140 0.02432
435.87563 0.02416
434.58986 0.02403
433.30409 0.02394
432.01833 0.02389
430.73256 0.02384
429.44679 0.02372
428.16102 0.02352
426.87525 0.02330
425.58948 0.02311
424.30371 0.02295
423.01794 0.02284
421.73218 0.02275
420.44641 0.02268
419.16064 0.02263
417.87487 0.02256
416.58910 0.02244
415.30333 0.02224
414.01756 0.02203
412.73179 0.02187
411.44602 0.02177
410.16026 0.02170
408.87449 0.02164
407.58872 0.02161
406.30295 0.02163
405.01718 0.02173
403.73141 0.02187
402.44564 0.02200
401.15987 0.02208
399.87411 0.02212
