3997.45528	0.04407
3996.16951	0.04460
3994.88374	0.04468
3993.59798	0.04417
3992.31221	0.04323
3991.02644	0.04225
3989.74067	0.04158
3988.45490	0.04140
3987.16913	0.04167
3985.88336	0.04225
3984.59759	0.04293
3983.31183	0.04354
3982.02606	0.04407
3980.74029	0.04458
3979.45452	0.04509
3978.16875	0.04548
3976.88298	0.04557
3975.59721	0.04521
3974.31144	0.04446
3973.02567	0.04348
3971.73991	0.04256
3970.45414	0.04191
3969.16837	0.04168
3967.88260	0.04195
3966.59683	0.04267
3965.31106	0.04365
3964.02529	0.04462
3962.73952	0.04536
3961.45376	0.04591
3960.16799	0.04629
3958.88222	0.04634
3957.59645	0.04585
3956.31068	0.04489
3955.02491	0.04392
3953.73914	0.04339
3952.45337	0.04350
3951.16760	0.04413
3949.88184	0.04506
3948.59607	0.04602
3947.31030	0.04672
3946.02453	0.04699
3944.73876	0.04686
3943.45299	0.04656
3942.16722	0.04636
3940.88145	0.04629
3939.59569	0.04617
3938.30992	0.04578
3937.02415	0.04509
3935.73838	0.04425
3934.45261	0.04346
3933.16684	0.04284
3931.88107	0.04246
3930.59530	0.04232
3929.30953	0.04240
3928.02377	0.04266
3926.73800	0.04317
3925.45223	0.04397
3924.16646	0.04499
3922.88069	0.04596
3921.59492	0.04656
3920.30915	0.04650
3919.02338	0.04575
3917.73762	0.04458
3916.45185	0.04351
3915.16608	0.04285
3913.88031	0.04257
3912.59454	0.04251
3911.30877	0.04274
3910.02300	0.04333
3908.73723	0.04405
3907.45146	0.04448
3906.16570	0.04443
3904.87993	0.04408
3903.59416	0.04372
3902.30839	0.04343
3901.02262	0.04318
3899.73685	0.04305
3898.45108	0.04310
3897.16531	0.04314
3895.87955	0.04293
3894.59378	0.04243
3893.30801	0.04195
3892.02224	0.04194
3890.73647	0.04254
3889.45070	0.04339
3888.16493	0.04391
3886.87916	0.04383
3885.59339	0.04335
3884.30763	0.04279
3883.02186	0.04233
3881.73609	0.04201
3880.45032	0.04174
3879.16455	0.04144
3877.87878	0.04122
3876.59301	0.04133
3875.30724	0.04192
3874.02148	0.04266
3872.73571	0.04301
3871.44994	0.04278
3870.16417	0.04246
3868.87840	0.04251
3867.59263	0.04278
3866.30686	0.04281
3865.02109	0.04250
3863.73532	0.04202
3862.44956	0.04147
3861.16379	0.04096
3859.87802	0.04070
3858.59225	0.04079
3857.30648	0.04098
3856.02071	0.04098
3854.73494	0.04081
3853.44917	0.04081
3852.16341	0.04108
3850.87764	0.04135
3849.59187	0.04143
3848.30610	0.04146
3847.02033	0.04165
3845.73456	0.04198
3844.44879	0.04226
3843.16302	0.04232
3841.87725	0.04216
3840.59149	0.04191
3839.30572	0.04173
3838.01995	0.04168
3836.73418	0.04166
3835.44841	0.04147
3834.16264	0.04110
3832.87687	0.04083
3831.59110	0.04094
3830.30534	0.04148
3829.01957	0.04227
3827.73380	0.04303
3826.44803	0.04348
3825.16226	0.04343
3823.87649	0.04297
3822.59072	0.04245
3821.30495	0.04219
3820.01918	0.04211
3818.73342	0.04175
3817.44765	0.04095
3816.16188	0.04019
3814.87611	0.03994
3813.59034	0.04008
3812.30457	0.04022
3811.01880	0.04015
3809.73303	0.03993
3808.44726	0.03980
3807.16150	0.04007
3805.87573	0.04082
3804.58996	0.04167
3803.30419	0.04214
3802.01842	0.04212
3800.73265	0.04193
3799.44688	0.04174
3798.16111	0.04163
3796.87535	0.04169
3795.58958	0.04195
3794.30381	0.04209
3793.01804	0.04182
3791.73227	0.04124
3790.44650	0.04076
3789.16073	0.04052
3787.87496	0.04031
3786.58919	0.03985
3785.30343	0.03921
3784.01766	0.03874
3782.73189	0.03868
3781.44612	0.03896
3780.16035	0.03930
3778.87458	0.03941
3777.58881	0.03921
3776.30304	0.03883
3775.01728	0.03843
3773.73151	0.03812
3772.44574	0.03795
3771.15997	0.03807
3769.87420	0.03856
3768.58843	0.03928
3767.30266	0.03997
3766.01689	0.04060
3764.73112	0.04123
3763.44536	0.04169
3762.15959	0.04155
3760.87382	0.04061
3759.58805	0.03915
3758.30228	0.03787
3757.01651	0.03739
3755.73074	0.03777
3754.44497	0.03851
3753.15921	0.03908
3751.87344	0.03935
3750.58767	0.03944
3749.30190	0.03954
3748.01613	0.03974
3746.73036	0.03990
3745.44459	0.03986
3744.15882	0.03963
3742.87305	0.03928
3741.58729	0.03884
3740.30152	0.03857
3739.01575	0.03866
3737.72998	0.03899
3736.44421	0.03933
3735.15844	0.03954
3733.87267	0.03948
3732.58690	0.03901
3731.30114	0.03816
3730.01537	0.03719
3728.72960	0.03651
3727.44383	0.03647
3726.15806	0.03707
3724.87229	0.03803
3723.58652	0.03895
3722.30075	0.03966
3721.01498	0.04016
3719.72922	0.04048
3718.44345	0.04056
3717.15768	0.04032
3715.87191	0.03983
3714.58614	0.03934
3713.30037	0.03917
3712.01460	0.03947
3710.72883	0.04007
3709.44307	0.04059
3708.15730	0.04062
3706.87153	0.04001
3705.58576	0.03893
3704.29999	0.03781
3703.01422	0.03707
3701.72845	0.03696
3700.44268	0.03741
3699.15691	0.03810
3697.87115	0.03863
3696.58538	0.03887
3695.29961	0.03899
3694.01384	0.03917
3692.72807	0.03939
3691.44230	0.03942
3690.15653	0.03915
3688.87076	0.03883
3687.58500	0.03895
3686.29923	0.03963
3685.01346	0.04048
3683.72769	0.04091
3682.44192	0.04058
3681.15615	0.03964
3679.87038	0.03843
3678.58461	0.03718
3677.29884	0.03595
3676.01308	0.03513
3674.72731	0.03526
3673.44154	0.03650
3672.15577	0.03830
3670.87000	0.03984
3669.58423	0.04049
3668.29846	0.04000
3667.01269	0.03875
3665.72693	0.03760
3664.44116	0.03722
3663.15539	0.03762
3661.86962	0.03839
3660.58385	0.03916
3659.29808	0.03973
3658.01231	0.03998
3656.72654	0.03986
3655.44077	0.03950
3654.15501	0.03922
3652.86924	0.03933
3651.58347	0.03991
3650.29770	0.04080
3649.01193	0.04167
3647.72616	0.04227
3646.44039	0.04247
3645.15462	0.04226
3643.86886	0.04184
3642.58309	0.04159
3641.29732	0.04179
3640.01155	0.04234
3638.72578	0.04291
3637.44001	0.04335
3636.15424	0.04376
3634.86847	0.04439
3633.58270	0.04523
3632.29694	0.04595
3631.01117	0.04612
3629.72540	0.04571
3628.43963	0.04519
3627.15386	0.04502
3625.86809	0.04537
3624.58232	0.04613
3623.29655	0.04701
3622.01079	0.04763
3620.72502	0.04779
3619.43925	0.04761
3618.15348	0.04726
3616.86771	0.04680
3615.58194	0.04633
3614.29617	0.04617
3613.01040	0.04667
3611.72463	0.04775
3610.43887	0.04890
3609.15310	0.04959
3607.86733	0.04970
3606.58156	0.04942
3605.29579	0.04904
3604.01002	0.04873
3602.72425	0.04852
3601.43848	0.04840
3600.15272	0.04844
3598.86695	0.04871
3597.58118	0.04922
3596.29541	0.04979
3595.00964	0.05022
3593.72387	0.05049
3592.43810	0.05079
3591.15233	0.05130
3589.86656	0.05196
3588.58080	0.05254
3587.29503	0.05282
3586.00926	0.05280
3584.72349	0.05275
3583.43772	0.05298
3582.15195	0.05357
3580.86618	0.05430
3579.58041	0.05482
3578.29464	0.05482
3577.00888	0.05429
3575.72311	0.05354
3574.43734	0.05301
3573.15157	0.05299
3571.86580	0.05343
3570.58003	0.05419
3569.29426	0.05512
3568.00849	0.05604
3566.72273	0.05665
3565.43696	0.05678
3564.15119	0.05663
3562.86542	0.05666
3561.57965	0.05713
3560.29388	0.05782
3559.00811	0.05825
3557.72234	0.05823
3556.43657	0.05797
3555.15081	0.05780
3553.86504	0.05784
3552.57927	0.05812
3551.29350	0.05874
3550.00773	0.05982
3548.72196	0.06115
3547.43619	0.06218
3546.15042	0.06241
3544.86466	0.06186
3543.57889	0.06108
3542.29312	0.06057
3541.00735	0.06043
3539.72158	0.06042
3538.43581	0.06040
3537.15004	0.06052
3535.86427	0.06097
3534.57850	0.06171
3533.29274	0.06240
3532.00697	0.06270
3530.72120	0.06264
3529.43543	0.06248
3528.14966	0.06251
3526.86389	0.06281
3525.57812	0.06335
3524.29235	0.06405
3523.00659	0.06468
3521.72082	0.06495
3520.43505	0.06473
3519.14928	0.06427
3517.86351	0.06400
3516.57774	0.06422
3515.29197	0.06483
3514.00620	0.06550
3512.72043	0.06596
3511.43467	0.06616
3510.14890	0.06622
3508.86313	0.06631
3507.57736	0.06645
3506.29159	0.06656
3505.00582	0.06660
3503.72005	0.06663
3502.43428	0.06678
3501.14852	0.06707
3499.86275	0.06743
3498.57698	0.06774
3497.29121	0.06805
3496.00544	0.06849
3494.71967	0.06906
3493.43390	0.06956
3492.14813	0.06976
3490.86236	0.06970
3489.57660	0.06958
3488.29083	0.06947
3487.00506	0.06935
3485.71929	0.06923
3484.43352	0.06918
3483.14775	0.06920
3481.86198	0.06919
3480.57621	0.06925
3479.29045	0.06965
3478.00468	0.07050
3476.71891	0.07151
3475.43314	0.07225
3474.14737	0.07258
3472.86160	0.07267
3471.57583	0.07268
3470.29006	0.07263
3469.00429	0.07256
3467.71853	0.07252
3466.43276	0.07249
3465.14699	0.07232
3463.86122	0.07202
3462.57545	0.07176
3461.28968	0.07183
3460.00391	0.07234
3458.71814	0.07316
3457.43238	0.07389
3456.14661	0.07424
3454.86084	0.07424
3453.57507	0.07423
3452.28930	0.07447
3451.00353	0.07500
3449.71776	0.07563
3448.43199	0.07611
3447.14622	0.07621
3445.86046	0.07588
3444.57469	0.07534
3443.28892	0.07496
3442.00315	0.07494
3440.71738	0.07519
3439.43161	0.07550
3438.14584	0.07575
3436.86007	0.07594
3435.57431	0.07614
3434.28854	0.07646
3433.00277	0.07705
3431.71700	0.07780
3430.43123	0.07834
3429.14546	0.07837
3427.85969	0.07801
3426.57392	0.07771
3425.28815	0.07781
3424.00239	0.07822
3422.71662	0.07852
3421.43085	0.07835
3420.14508	0.07770
3418.85931	0.07700
3417.57354	0.07677
3416.28777	0.07725
3415.00200	0.07824
3413.71624	0.07935
3412.43047	0.08022
3411.14470	0.08068
3409.85893	0.08066
3408.57316	0.08029
3407.28739	0.07984
3406.00162	0.07953
3404.71585	0.07937
3403.43008	0.07917
3402.14432	0.07888
3400.85855	0.07871
3399.57278	0.07893
3398.28701	0.07961
3397.00124	0.08048
3395.71547	0.08116
3394.42970	0.08142
3393.14393	0.08130
3391.85817	0.08105
3390.57240	0.08079
3389.28663	0.08051
3388.00086	0.08018
3386.71509	0.07994
3385.42932	0.07994
3384.14355	0.08020
3382.85778	0.08066
3381.57201	0.08129
3380.28625	0.08204
3379.00048	0.08272
3377.71471	0.08313
3376.42894	0.08327
3375.14317	0.08332
3373.85740	0.08349
3372.57163	0.08377
3371.28586	0.08401
3370.00010	0.08405
3368.71433	0.08383
3367.42856	0.08347
3366.14279	0.08312
3364.85702	0.08285
3363.57125	0.08273
3362.28548	0.08277
3360.99971	0.08289
3359.71394	0.08291
3358.42818	0.08266
3357.14241	0.08222
3355.85664	0.08191
3354.57087	0.08206
3353.28510	0.08262
3351.99933	0.08313
3350.71356	0.08315
3349.42779	0.08272
3348.14202	0.08225
3346.85626	0.08208
3345.57049	0.08220
3344.28472	0.08245
3342.99895	0.08268
3341.71318	0.08270
3340.42741	0.08233
3339.14164	0.08167
3337.85587	0.08109
3336.57011	0.08095
3335.28434	0.08131
3333.99857	0.08184
3332.71280	0.08219
3331.42703	0.08220
3330.14126	0.08200
3328.85549	0.08182
3327.56972	0.08177
3326.28395	0.08179
3324.99819	0.08179
3323.71242	0.08163
3322.42665	0.08123
3321.14088	0.08067
3319.85511	0.08030
3318.56934	0.08041
3317.28357	0.08101
3315.99780	0.08169
3314.71204	0.08208
3313.42627	0.08210
3312.14050	0.08191
3310.85473	0.08164
3309.56896	0.08136
3308.28319	0.08115
3306.99742	0.08111
3305.71165	0.08124
3304.42588	0.08136
3303.14012	0.08132
3301.85435	0.08115
3300.56858	0.08108
3299.28281	0.08127
3297.99704	0.08166
3296.71127	0.08194
3295.42550	0.08187
3294.13973	0.08150
3292.85397	0.08115
3291.56820	0.08105
3290.28243	0.08116
3288.99666	0.08129
3287.71089	0.08130
3286.42512	0.08115
3285.13935	0.08083
3283.85358	0.08028
3282.56781	0.07955
3281.28205	0.07885
3279.99628	0.07844
3278.71051	0.07843
3277.42474	0.07878
3276.13897	0.07933
3274.85320	0.07992
3273.56743	0.08035
3272.28166	0.08049
3270.99590	0.08037
3269.71013	0.08017
3268.42436	0.08008
3267.13859	0.08022
3265.85282	0.08053
3264.56705	0.08082
3263.28128	0.08081
3261.99551	0.08039
3260.70974	0.07968
3259.42398	0.07904
3258.13821	0.07874
3256.85244	0.07874
3255.56667	0.07880
3254.28090	0.07876
3252.99513	0.07863
3251.70936	0.07854
3250.42359	0.07858
3249.13783	0.07876
3247.85206	0.07904
3246.56629	0.07926
3245.28052	0.07928
3243.99475	0.07909
3242.70898	0.07877
3241.42321	0.07842
3240.13744	0.07804
3238.85167	0.07766
3237.56591	0.07730
3236.28014	0.07694
3234.99437	0.07650
3233.70860	0.07602
3232.42283	0.07567
3231.13706	0.07561
3229.85129	0.07571
3228.56552	0.07574
3227.27976	0.07568
3225.99399	0.07575
3224.70822	0.07612
3223.42245	0.07664
3222.13668	0.07699
3220.85091	0.07710
3219.56514	0.07714
3218.27937	0.07730
3216.99360	0.07755
3215.70784	0.07767
3214.42207	0.07747
3213.13630	0.07698
3211.85053	0.07646
3210.56476	0.07621
3209.27899	0.07635
3207.99322	0.07670
3206.70745	0.07698
3205.42169	0.07700
3204.13592	0.07679
3202.85015	0.07648
3201.56438	0.07620
3200.27861	0.07597
3198.99284	0.07577
3197.70707	0.07553
3196.42130	0.07523
3195.13553	0.07487
3193.84977	0.07450
3192.56400	0.07417
3191.27823	0.07384
3189.99246	0.07343
3188.70669	0.07299
3187.42092	0.07268
3186.13515	0.07264
3184.84938	0.07288
3183.56362	0.07325
3182.27785	0.07365
3180.99208	0.07405
3179.70631	0.07433
3178.42054	0.07433
3177.13477	0.07401
3175.84900	0.07361
3174.56323	0.07345
3173.27746	0.07358
3171.99170	0.07365
3170.70593	0.07334
3169.42016	0.07272
3168.13439	0.07224
3166.84862	0.07219
3165.56285	0.07253
3164.27708	0.07295
3162.99131	0.07321
3161.70555	0.07331
3160.41978	0.07331
3159.13401	0.07328
3157.84824	0.07322
3156.56247	0.07317
3155.27670	0.07313
3153.99093	0.07298
3152.70516	0.07258
3151.41939	0.07191
3150.13363	0.07116
3148.84786	0.07054
3147.56209	0.07016
3146.27632	0.06994
3144.99055	0.06978
3143.70478	0.06964
3142.41901	0.06962
3141.13324	0.06979
3139.84748	0.07013
3138.56171	0.07044
3137.27594	0.07042
3135.99017	0.06991
3134.70440	0.06911
3133.41863	0.06845
3132.13286	0.06823
3130.84709	0.06844
3129.56132	0.06875
3128.27556	0.06886
3126.98979	0.06874
3125.70402	0.06853
3124.41825	0.06838
3123.13248	0.06829
3121.84671	0.06820
3120.56094	0.06813
3119.27517	0.06818
3117.98940	0.06835
3116.70364	0.06850
3115.41787	0.06849
3114.13210	0.06831
3112.84633	0.06809
3111.56056	0.06799
3110.27479	0.06811
3108.98902	0.06840
3107.70325	0.06865
3106.41749	0.06871
3105.13172	0.06858
3103.84595	0.06833
3102.56018	0.06793
3101.27441	0.06734
3099.98864	0.06663
3098.70287	0.06606
3097.41710	0.06577
3096.13133	0.06574
3094.84557	0.06584
3093.55980	0.06596
3092.27403	0.06613
3090.98826	0.06639
3089.70249	0.06669
3088.41672	0.06688
3087.13095	0.06683
3085.84518	0.06650
3084.55942	0.06599
3083.27365	0.06542
3081.98788	0.06490
3080.70211	0.06461
3079.41634	0.06462
3078.13057	0.06481
3076.84480	0.06492
3075.55903	0.06473
3074.27326	0.06429
3072.98750	0.06387
3071.70173	0.06363
3070.41596	0.06362
3069.13019	0.06375
3067.84442	0.06397
3066.55865	0.06417
3065.27288	0.06425
3063.98711	0.06411
3062.70135	0.06372
3061.41558	0.06318
3060.12981	0.06266
3058.84404	0.06233
3057.55827	0.06231
3056.27250	0.06263
3054.98673	0.06318
3053.70096	0.06375
3052.41519	0.06409
3051.12943	0.06406
3049.84366	0.06376
3048.55789	0.06334
3047.27212	0.06293
3045.98635	0.06255
3044.70058	0.06220
3043.41481	0.06191
3042.12904	0.06166
3040.84328	0.06142
3039.55751	0.06116
3038.27174	0.06093
3036.98597	0.06081
3035.70020	0.06084
3034.41443	0.06100
3033.12866	0.06121
3031.84289	0.06132
3030.55712	0.06124
3029.27136	0.06101
3027.98559	0.06072
3026.69982	0.06040
3025.41405	0.05997
3024.12828	0.05942
3022.84251	0.05893
3021.55674	0.05871
3020.27097	0.05884
3018.98521	0.05921
3017.69944	0.05964
3016.41367	0.05993
3015.12790	0.06003
3013.84213	0.06000
3012.55636	0.05994
3011.27059	0.05987
3009.98482	0.05978
3008.69905	0.05959
3007.41329	0.05926
3006.12752	0.05882
3004.84175	0.05841
3003.55598	0.05822
3002.27021	0.05823
3000.98444	0.05829
2999.69867	0.05819
2998.41290	0.05785
2997.12714	0.05746
2995.84137	0.05725
2994.55560	0.05732
2993.26983	0.05756
2991.98406	0.05780
2990.69829	0.05794
2989.41252	0.05803
2988.12675	0.05814
2986.84098	0.05828
2985.55522	0.05842
2984.26945	0.05853
2982.98368	0.05860
2981.69791	0.05869
2980.41214	0.05893
2979.12637	0.05935
2977.84060	0.05989
2976.55483	0.06043
2975.26907	0.06089
2973.98330	0.06123
2972.69753	0.06140
2971.41176	0.06142
2970.12599	0.06145
2968.84022	0.06168
2967.55445	0.06219
2966.26868	0.06285
2964.98291	0.06343
2963.69715	0.06382
2962.41138	0.06406
2961.12561	0.06431
2959.83984	0.06467
2958.55407	0.06512
2957.26830	0.06553
2955.98253	0.06574
2954.69676	0.06572
2953.41100	0.06560
2952.12523	0.06553
2950.83946	0.06553
2949.55369	0.06555
2948.26792	0.06551
2946.98215	0.06544
2945.69638	0.06538
2944.41061	0.06538
2943.12484	0.06545
2941.83908	0.06554
2940.55331	0.06557
2939.26754	0.06549
2937.98177	0.06540
2936.69600	0.06550
2935.41023	0.06590
2934.12446	0.06650
2932.83869	0.06706
2931.55293	0.06743
2930.26716	0.06763
2928.98139	0.06775
2927.69562	0.06787
2926.40985	0.06802
2925.12408	0.06820
2923.83831	0.06833
2922.55254	0.06832
2921.26677	0.06807
2919.98101	0.06761
2918.69524	0.06706
2917.40947	0.06652
2916.12370	0.06601
2914.83793	0.06546
2913.55216	0.06479
2912.26639	0.06403
2910.98062	0.06328
2909.69486	0.06266
2908.40909	0.06222
2907.12332	0.06190
2905.83755	0.06164
2904.55178	0.06141
2903.26601	0.06125
2901.98024	0.06114
2900.69447	0.06103
2899.40870	0.06085
2898.12294	0.06060
2896.83717	0.06029
2895.55140	0.05996
2894.26563	0.05958
2892.97986	0.05914
2891.69409	0.05863
2890.40832	0.05808
2889.12255	0.05755
2887.83678	0.05713
2886.55102	0.05692
2885.26525	0.05690
2883.97948	0.05699
2882.69371	0.05717
2881.40794	0.05751
2880.12217	0.05796
2878.83640	0.05832
2877.55063	0.05837
2876.26487	0.05811
2874.97910	0.05769
2873.69333	0.05727
2872.40756	0.05695
2871.12179	0.05681
2869.83602	0.05686
2868.55025	0.05706
2867.26448	0.05727
2865.97871	0.05739
2864.69295	0.05736
2863.40718	0.05721
2862.12141	0.05701
2860.83564	0.05680
2859.54987	0.05662
2858.26410	0.05654
2856.97833	0.05658
2855.69256	0.05659
2854.40680	0.05633
2853.12103	0.05576
2851.83526	0.05511
2850.54949	0.05463
2849.26372	0.05431
2847.97795	0.05393
2846.69218	0.05339
2845.40641	0.05280
2844.12064	0.05233
2842.83488	0.05200
2841.54911	0.05173
2840.26334	0.05142
2838.97757	0.05104
2837.69180	0.05058
2836.40603	0.05008
2835.12026	0.04957
2833.83449	0.04904
2832.54873	0.04850
2831.26296	0.04798
2829.97719	0.04756
2828.69142	0.04726
2827.40565	0.04706
2826.11988	0.04686
2824.83411	0.04667
2823.54834	0.04648
2822.26257	0.04630
2820.97681	0.04619
2819.69104	0.04623
2818.40527	0.04641
2817.11950	0.04655
2815.83373	0.04642
2814.54796	0.04603
2813.26219	0.04562
2811.97642	0.04546
2810.69066	0.04557
2809.40489	0.04574
2808.11912	0.04575
2806.83335	0.04555
2805.54758	0.04534
2804.26181	0.04534
2802.97604	0.04558
2801.69027	0.04585
2800.40450	0.04586
2799.11874	0.04552
2797.83297	0.04501
2796.54720	0.04458
2795.26143	0.04435
2793.97566	0.04426
2792.68989	0.04425
2791.40412	0.04431
2790.11835	0.04443
2788.83259	0.04454
2787.54682	0.04456
2786.26105	0.04443
2784.97528	0.04415
2783.68951	0.04380
2782.40374	0.04351
2781.11797	0.04336
2779.83220	0.04332
2778.54643	0.04332
2777.26067	0.04331
2775.97490	0.04324
2774.68913	0.04313
2773.40336	0.04304
2772.11759	0.04302
2770.83182	0.04305
2769.54605	0.04300
2768.26028	0.04288
2766.97452	0.04277
2765.68875	0.04272
2764.40298	0.04267
2763.11721	0.04258
2761.83144	0.04243
2760.54567	0.04223
2759.25990	0.04199
2757.97413	0.04173
2756.68836	0.04154
2755.40260	0.04149
2754.11683	0.04155
2752.83106	0.04166
2751.54529	0.04179
2750.25952	0.04191
2748.97375	0.04199
2747.68798	0.04195
2746.40221	0.04182
2745.11645	0.04166
2743.83068	0.04151
2742.54491	0.04136
2741.25914	0.04123
2739.97337	0.04123
2738.68760	0.04138
2737.40183	0.04160
2736.11606	0.04171
2734.83029	0.04165
2733.54453	0.04145
2732.25876	0.04121
2730.97299	0.04102
2729.68722	0.04098
2728.40145	0.04108
2727.11568	0.04124
2725.82991	0.04130
2724.54414	0.04109
2723.25838	0.04067
2721.97261	0.04019
2720.68684	0.03983
2719.40107	0.03965
2718.11530	0.03967
2716.82953	0.03983
2715.54376	0.04006
2714.25799	0.04021
2712.97222	0.04018
2711.68646	0.03996
2710.40069	0.03965
2709.11492	0.03939
2707.82915	0.03931
2706.54338	0.03939
2705.25761	0.03952
2703.97184	0.03959
2702.68607	0.03956
2701.40031	0.03950
2700.11454	0.03944
2698.82877	0.03936
2697.54300	0.03921
2696.25723	0.03901
2694.97146	0.03885
2693.68569	0.03878
2692.39992	0.03871
2691.11415	0.03852
2689.82839	0.03824
2688.54262	0.03804
2687.25685	0.03807
2685.97108	0.03829
2684.68531	0.03851
2683.39954	0.03858
2682.11377	0.03850
2680.82800	0.03837
2679.54224	0.03832
2678.25647	0.03837
2676.97070	0.03850
2675.68493	0.03863
2674.39916	0.03869
2673.11339	0.03858
2671.82762	0.03831
2670.54185	0.03800
2669.25608	0.03775
2667.97032	0.03762
2666.68455	0.03760
2665.39878	0.03768
2664.11301	0.03781
2662.82724	0.03784
2661.54147	0.03775
2660.25570	0.03756
2658.96993	0.03740
2657.68417	0.03730
2656.39840	0.03727
2655.11263	0.03730
2653.82686	0.03736
2652.54109	0.03734
2651.25532	0.03716
2649.96955	0.03682
2648.68378	0.03646
2647.39801	0.03619
2646.11225	0.03601
2644.82648	0.03585
2643.54071	0.03569
2642.25494	0.03553
2640.96917	0.03536
2639.68340	0.03517
2638.39763	0.03500
2637.11186	0.03487
2635.82609	0.03477
2634.54033	0.03468
2633.25456	0.03458
2631.96879	0.03447
2630.68302	0.03432
2629.39725	0.03418
2628.11148	0.03412
2626.82571	0.03412
2625.53994	0.03408
2624.25418	0.03394
2622.96841	0.03371
2621.68264	0.03347
2620.39687	0.03325
2619.11110	0.03298
2617.82533	0.03265
2616.53956	0.03241
2615.25379	0.03247
2613.96802	0.03280
2612.68226	0.03311
2611.39649	0.03313
2610.11072	0.03283
2608.82495	0.03244
2607.53918	0.03218
2606.25341	0.03210
2604.96764	0.03209
2603.68187	0.03205
2602.39611	0.03203
2601.11034	0.03211
2599.82457	0.03219
2598.53880	0.03200
2597.25303	0.03146
2595.96726	0.03084
2594.68149	0.03051
2593.39572	0.03056
2592.10995	0.03078
2590.82419	0.03086
2589.53842	0.03068
2588.25265	0.03031
2586.96688	0.02987
2585.68111	0.02949
2584.39534	0.02923
2583.10957	0.02915
2581.82380	0.02922
2580.53804	0.02935
2579.25227	0.02947
2577.96650	0.02955
2576.68073	0.02968
2575.39496	0.02990
2574.10919	0.03013
2572.82342	0.03023
2571.53765	0.03012
2570.25188	0.02986
2568.96612	0.02953
2567.68035	0.02920
2566.39458	0.02898
2565.10881	0.02906
2563.82304	0.02947
2562.53727	0.02997
2561.25150	0.03025
2559.96573	0.03018
2558.67997	0.02979
2557.39420	0.02916
2556.10843	0.02848
2554.82266	0.02801
2553.53689	0.02797
2552.25112	0.02829
2550.96535	0.02873
2549.67958	0.02903
2548.39381	0.02907
2547.10805	0.02887
2545.82228	0.02859
2544.53651	0.02842
2543.25074	0.02845
2541.96497	0.02862
2540.67920	0.02882
2539.39343	0.02890
2538.10766	0.02879
2536.82190	0.02845
2535.53613	0.02798
2534.25036	0.02756
2532.96459	0.02742
2531.67882	0.02762
2530.39305	0.02805
2529.10728	0.02856
2527.82151	0.02894
2526.53574	0.02899
2525.24998	0.02859
2523.96421	0.02795
2522.67844	0.02751
2521.39267	0.02751
2520.10690	0.02783
2518.82113	0.02818
2517.53536	0.02832
2516.24959	0.02822
2514.96383	0.02799
2513.67806	0.02785
2512.39229	0.02795
2511.10652	0.02817
2509.82075	0.02823
2508.53498	0.02798
2507.24921	0.02754
2505.96344	0.02720
2504.67767	0.02719
2503.39191	0.02753
2502.10614	0.02799
2500.82037	0.02825
2499.53460	0.02818
2498.24883	0.02790
2496.96306	0.02765
2495.67729	0.02758
2494.39152	0.02756
2493.10576	0.02739
2491.81999	0.02705
2490.53422	0.02671
2489.24845	0.02648
2487.96268	0.02639
2486.67691	0.02640
2485.39114	0.02646
2484.10537	0.02651
2482.81960	0.02645
2481.53384	0.02629
2480.24807	0.02615
2478.96230	0.02618
2477.67653	0.02649
2476.39076	0.02695
2475.10499	0.02733
2473.81922	0.02744
2472.53345	0.02736
2471.24769	0.02726
2469.96192	0.02723
2468.67615	0.02711
2467.39038	0.02671
2466.10461	0.02619
2464.81884	0.02591
2463.53307	0.02602
2462.24730	0.02625
2460.96153	0.02629
2459.67577	0.02623
2458.39000	0.02637
2457.10423	0.02679
2455.81846	0.02715
2454.53269	0.02715
2453.24692	0.02683
2451.96115	0.02646
2450.67538	0.02629
2449.38962	0.02638
2448.10385	0.02666
2446.81808	0.02698
2445.53231	0.02717
2444.24654	0.02717
2442.96077	0.02701
2441.67500	0.02679
2440.38923	0.02653
2439.10346	0.02618
2437.81770	0.02576
2436.53193	0.02535
2435.24616	0.02498
2433.96039	0.02473
2432.67462	0.02465
2431.38885	0.02479
2430.10308	0.02510
2428.81731	0.02542
2427.53155	0.02559
2426.24578	0.02550
2424.96001	0.02518
2423.67424	0.02483
2422.38847	0.02467
2421.10270	0.02479
2419.81693	0.02504
2418.53116	0.02519
2417.24539	0.02516
2415.95963	0.02501
2414.67386	0.02485
2413.38809	0.02470
2412.10232	0.02457
2410.81655	0.02453
2409.53078	0.02470
2408.24501	0.02504
2406.95924	0.02534
2405.67347	0.02538
2404.38771	0.02517
2403.10194	0.02491
2401.81617	0.02478
2400.53040	0.02477
2399.24463	0.02465
2397.95886	0.02452
2396.67309	0.02438
2395.38732	0.02425
2394.10156	0.02426
2392.81579	0.02442
2391.53002	0.02463
2390.24425	0.02475
2388.95848	0.02476
2387.67271	0.02476
2386.38694	0.02482
2385.10117	0.02493
2383.81540	0.02508
2382.52964	0.02531
2381.24387	0.02568
2379.95810	0.02617
2378.67233	0.02668
2377.38656	0.02707
2376.10079	0.02733
2374.81502	0.02748
2373.52925	0.02755
2372.24349	0.02755
2370.95772	0.02753
2369.67195	0.02756
2368.38618	0.02778
2367.10041	0.02823
2365.81464	0.02881
2364.52887	0.02931
2363.24310	0.02958
2361.95733	0.02959
2360.67157	0.02950
2359.38580	0.02945
2358.10003	0.02953
2356.81426	0.02970
2355.52849	0.02985
2354.24272	0.02990
2352.95695	0.02989
2351.67118	0.02991
2350.38542	0.03000
2349.09965	0.03004
2347.81388	0.02992
2346.52811	0.02961
2345.24234	0.02921
2343.95657	0.02880
2342.67080	0.02847
2341.38503	0.02827
2340.09926	0.02823
2338.81350	0.02837
2337.52773	0.02869
2336.24196	0.02912
2334.95619	0.02956
2333.67042	0.02993
2332.38465	0.03023
2331.09888	0.03048
2329.81311	0.03075
2328.52735	0.03106
2327.24158	0.03136
2325.95581	0.03145
2324.67004	0.03106
2323.38427	0.03009
2322.09850	0.02881
2320.81273	0.02765
2319.52696	0.02690
2318.24119	0.02651
2316.95543	0.02617
2315.66966	0.02569
2314.38389	0.02510
2313.09812	0.02460
2311.81235	0.02442
2310.52658	0.02460
2309.24081	0.02502
2307.95504	0.02547
2306.66928	0.02579
2305.38351	0.02589
2304.09774	0.02574
2302.81197	0.02541
2301.52620	0.02511
2300.24043	0.02495
2298.95466	0.02492
2297.66889	0.02492
2296.38312	0.02493
2295.09736	0.02494
2293.81159	0.02492
2292.52582	0.02482
2291.24005	0.02468
2289.95428	0.02451
2288.66851	0.02422
2287.38274	0.02376
2286.09697	0.02322
2284.81121	0.02284
2283.52544	0.02272
2282.23967	0.02265
2280.95390	0.02223
2279.66813	0.02137
2278.38236	0.02045
2277.09659	0.02006
2275.81082	0.02044
2274.52505	0.02125
2273.23929	0.02195
2271.95352	0.02222
2270.66775	0.02211
2269.38198	0.02176
2268.09621	0.02125
2266.81044	0.02052
2265.52467	0.01950
2264.23890	0.01826
2262.95314	0.01720
2261.66737	0.01676
2260.38160	0.01718
2259.09583	0.01821
2257.81006	0.01936
2256.52429	0.02025
2255.23852	0.02074
2253.95275	0.02091
2252.66698	0.02095
2251.38122	0.02084
2250.09545	0.02014
2248.80968	0.01864
2247.52391	0.01782
2246.23814	0.01722
2244.95237	0.01697
2243.66660	0.01713
2242.38083	0.01767
2241.09507	0.01853
2239.80930	0.01936
2238.52353	0.01965
2237.23776	0.01913
2235.95199	0.01807
2234.66622	0.01701
2233.38045	0.01642
2232.09468	0.01653
2230.80891	0.01723
2229.52315	0.01808
2228.23738	0.01848
2226.95161	0.01811
2225.66584	0.01718
2224.38007	0.01626
2223.09430	0.01584
2221.80853	0.01608
2220.52276	0.01675
2219.23700	0.01738
2217.95123	0.01761
2216.66546	0.01733
2215.37969	0.01670
2214.09392	0.01590
2212.80815	0.01505
2211.52238	0.01418
2210.23661	0.01328
2208.95084	0.01239
2207.66508	0.01174
2206.37931	0.01167
2205.09354	0.01237
2203.80777	0.01353
2202.52200	0.01451
2201.23623	0.01497
2199.95046	0.01509
2198.66469	0.01522
2197.37893	0.01530
2196.09316	0.01503
2194.80739	0.01449
2193.52162	0.01420
2192.23585	0.01455
2190.95008	0.01524
2189.66431	0.01549
2188.37854	0.01485
2187.09277	0.01357
2185.80701	0.01240
2184.52124	0.01186
2183.23547	0.01189
2181.94970	0.01205
2180.66393	0.01195
2179.37816	0.01151
2178.09239	0.01096
2176.80662	0.01067
2175.52085	0.01082
2174.23509	0.01116
2172.94932	0.01128
2171.66355	0.01101
2170.37778	0.01064
2169.09201	0.01059
2167.80624	0.01095
2166.52047	0.01151
2165.23470	0.01204
2163.94894	0.01231
2162.66317	0.01203
2161.37740	0.01084
2160.09163	0.00888
2158.80586	0.00698
2157.52009	0.00604
2156.23432	0.00615
2154.94855	0.00675
2153.66278	0.00734
2152.37702	0.00774
2151.09125	0.00780
2149.80548	0.00737
2148.51971	0.00654
2147.23394	0.00569
2145.94817	0.00522
2144.66240	0.00533
2143.37663	0.00598
2142.09087	0.00707
2140.80510	0.00838
2139.51933	0.00957
2138.23356	0.01035
2136.94779	0.01059
2135.66202	0.01039
2134.37625	0.01002
2133.09048	0.00983
2131.80471	0.01003
2130.51895	0.01061
2129.23318	0.01128
2127.94741	0.01169
2126.66164	0.01176
2125.37587	0.01164
2124.09010	0.01158
2122.80433	0.01171
2121.51856	0.01211
2120.23280	0.01269
2118.94703	0.01314
2117.66126	0.01308
2116.37549	0.01251
2115.08972	0.01183
2113.80395	0.01152
2112.51818	0.01171
2111.23241	0.01220
2109.94664	0.01264
2108.66088	0.01281
2107.37511	0.01281
2106.08934	0.01276
2104.80357	0.01263
2103.51780	0.01226
2102.23203	0.01172
2100.94626	0.01136
2099.66049	0.01086
2098.37473	0.01081
2097.08896	0.01089
2095.80319	0.01082
2094.51742	0.01082
2093.23165	0.01120
2091.94588	0.01188
2090.66011	0.01243
2089.37434	0.01245
2088.08857	0.01196
2086.80281	0.01128
2085.51704	0.01059
2084.23127	0.00986
2082.94550	0.00914
2081.65973	0.00873
2080.37396	0.00885
2079.08819	0.00936
2077.80242	0.00986
2076.51666	0.01011
2075.23089	0.01019
2073.94512	0.01024
2072.65935	0.01029
2071.37358	0.01029
2070.08781	0.01026
2068.80204	0.01009
2067.51627	0.00958
2066.23050	0.00870
2064.94474	0.00785
2063.65897	0.00750
2062.37320	0.00772
2061.08743	0.00813
2059.80166	0.00843
2058.51589	0.00860
2057.23012	0.00873
2055.94435	0.00877
2054.65859	0.00867
2053.37282	0.00840
2052.08705	0.00791
2050.80128	0.00706
2049.51551	0.00587
2048.22974	0.00463
2046.94397	0.00369
2045.65820	0.00317
2044.37243	0.00288
2043.08667	0.00256
2041.80090	0.00214
2040.51513	0.00181
2039.22936	0.00175
2037.94359	0.00186
2036.65782	0.00182
2035.37205	0.00151
2034.08628	0.00128
2032.80052	0.00150
2031.51475	0.00196
2030.22898	0.00214
2028.94321	0.00179
2027.65744	0.00123
2026.37167	0.00090
2025.08590	0.00096
2023.80013	0.00113
2022.51436	0.00111
2021.22860	0.00095
2019.94283	0.00103
2018.65706	0.00166
2017.37129	0.00265
2016.08552	0.00351
2014.79975	0.00382
2013.51398	0.00353
2012.22821	0.00289
2010.94245	0.00220
2009.65668	0.00177
2008.37091	0.00188
2007.08514	0.00273
2005.79937	0.00421
2004.51360	0.00582
2003.22783	0.00701
2001.94206	0.00751
2000.65629	0.00739
1999.37053	0.00694
1998.08476	0.00650
1996.79899	0.00642
1995.51322	0.00690
1994.22745	0.00792
1992.94168	0.00918
1991.65591	0.01019
1990.37014	0.01057
1989.08438	0.01017
1987.79861	0.00920
1986.51284	0.00807
1985.22707	0.00728
1983.94130	0.00721
1982.65553	0.00774
1981.36976	0.00822
1980.08399	0.00807
1978.79822	0.00725
1977.51246	0.00624
1976.22669	0.00557
1974.94092	0.00555
1973.65515	0.00624
1972.36938	0.00742
1971.08361	0.00849
1969.79784	0.00873
1968.51207	0.00787
1967.22631	0.00640
1965.94054	0.00531
1964.65477	0.00534
1963.36900	0.00643
1962.08323	0.00784
1960.79746	0.00890
1959.51169	0.00945
1958.22592	0.00976
1956.94015	0.01005
1955.65439	0.01023
1954.36862	0.01013
1953.08285	0.00995
1951.79708	0.01011
1950.51131	0.01076
1949.22554	0.01163
1947.93977	0.01233
1946.65400	0.01271
1945.36823	0.01279
1944.08247	0.01264
1942.79670	0.01236
1941.51093	0.01205
1940.22516	0.01166
1938.93939	0.01103
1937.65362	0.01010
1936.36785	0.00914
1935.08208	0.00862
1933.79632	0.00897
1932.51055	0.01019
1931.22478	0.01169
1929.93901	0.01270
1928.65324	0.01275
1927.36747	0.01203
1926.08170	0.01104
1924.79593	0.01032
1923.51016	0.01016
1922.22440	0.01055
1920.93863	0.01118
1919.65286	0.01167
1918.36709	0.01182
1917.08132	0.01167
1915.79555	0.01143
1914.50978	0.01127
1913.22401	0.01127
1911.93825	0.01147
1910.65248	0.01184
1909.36671	0.01225
1908.08094	0.01258
1906.79517	0.01276
1905.50940	0.01285
1904.22363	0.01287
1902.93786	0.01279
1901.65209	0.01262
1900.36633	0.01245
1899.08056	0.01244
1897.79479	0.01258
1896.50902	0.01268
1895.22325	0.01263
1893.93748	0.01245
1892.65171	0.01227
1891.36594	0.01220
1890.08018	0.01228
1888.79441	0.01252
1887.50864	0.01279
1886.22287	0.01294
1884.93710	0.01286
1883.65133	0.01265
1882.36556	0.01253
1881.07979	0.01260
1879.79402	0.01273
1878.50826	0.01273
1877.22249	0.01255
1875.93672	0.01235
1874.65095	0.01234
1873.36518	0.01255
1872.07941	0.01287
1870.79364	0.01317
1869.50787	0.01347
1868.22211	0.01377
1866.93634	0.01403
1865.65057	0.01414
1864.36480	0.01414
1863.07903	0.01409
1861.79326	0.01396
1860.50749	0.01374
1859.22172	0.01344
1857.93595	0.01320
1856.65019	0.01306
1855.36442	0.01299
1854.07865	0.01294
1852.79288	0.01294
1851.50711	0.01305
1850.22134	0.01328
1848.93557	0.01351
1847.64980	0.01361
1846.36404	0.01352
1845.07827	0.01330
1843.79250	0.01307
1842.50673	0.01293
1841.22096	0.01291
1839.93519	0.01300
1838.64942	0.01319
1837.36365	0.01345
1836.07788	0.01372
1834.79212	0.01394
1833.50635	0.01404
1832.22058	0.01404
1830.93481	0.01403
1829.64904	0.01406
1828.36327	0.01408
1827.07750	0.01396
1825.79173	0.01369
1824.50597	0.01341
1823.22020	0.01322
1821.93443	0.01311
1820.64866	0.01304
1819.36289	0.01303
1818.07712	0.01316
1816.79135	0.01345
1815.50558	0.01380
1814.21981	0.01409
1812.93405	0.01430
1811.64828	0.01443
1810.36251	0.01451
1809.07674	0.01450
1807.79097	0.01442
1806.50520	0.01432
1805.21943	0.01428
1803.93366	0.01431
1802.64790	0.01434
1801.36213	0.01435
1800.07636	0.01436
1798.79059	0.01441
1797.50482	0.01450
1796.21905	0.01457
1794.93328	0.01456
1793.64751	0.01444
1792.36174	0.01429
1791.07598	0.01424
1789.79021	0.01430
1788.50444	0.01446
1787.21867	0.01466
1785.93290	0.01485
1784.64713	0.01501
1783.36136	0.01514
1782.07559	0.01524
1780.78983	0.01531
1779.50406	0.01534
1778.21829	0.01534
1776.93252	0.01533
1775.64675	0.01536
1774.36098	0.01544
1773.07521	0.01561
1771.78944	0.01585
1770.50367	0.01610
1769.21791	0.01624
1767.93214	0.01632
1766.64637	0.01639
1765.36060	0.01645
1764.07483	0.01645
1762.78906	0.01639
1761.50329	0.01638
1760.21752	0.01645
1758.93176	0.01654
1757.64599	0.01658
1756.36022	0.01657
1755.07445	0.01658
1753.78868	0.01660
1752.50291	0.01663
1751.21714	0.01669
1749.93137	0.01678
1748.64560	0.01688
1747.35984	0.01698
1746.07407	0.01709
1744.78830	0.01720
1743.50253	0.01729
1742.21676	0.01733
1740.93099	0.01736
1739.64522	0.01745
1738.35945	0.01759
1737.07369	0.01771
1735.78792	0.01777
1734.50215	0.01785
1733.21638	0.01807
1731.93061	0.01837
1730.64484	0.01860
1729.35907	0.01874
1728.07330	0.01889
1726.78753	0.01911
1725.50177	0.01938
1724.21600	0.01963
1722.93023	0.01981
1721.64446	0.01990
1720.35869	0.01991
1719.07292	0.01992
1717.78715	0.02005
1716.50138	0.02038
1715.21561	0.02084
1713.92985	0.02130
1712.64408	0.02169
1711.35831	0.02199
1710.07254	0.02221
1708.78677	0.02244
1707.50100	0.02276
1706.21523	0.02324
1704.92946	0.02382
1703.64370	0.02436
1702.35793	0.02474
1701.07216	0.02507
1699.78639	0.02555
1698.50062	0.02615
1697.21485	0.02671
1695.92908	0.02718
1694.64331	0.02769
1693.35754	0.02823
1692.07178	0.02869
1690.78601	0.02908
1689.50024	0.02946
1688.21447	0.02986
1686.92870	0.03025
1685.64293	0.03064
1684.35716	0.03117
1683.07139	0.03184
1681.78563	0.03250
1680.49986	0.03302
1679.21409	0.03343
1677.92832	0.03381
1676.64255	0.03423
1675.35678	0.03473
1674.07101	0.03531
1672.78524	0.03584
1671.49947	0.03626
1670.21371	0.03665
1668.92794	0.03711
1667.64217	0.03765
1666.35640	0.03817
1665.07063	0.03863
1663.78486	0.03906
1662.49909	0.03951
1661.21332	0.03998
1659.92756	0.04040
1658.64179	0.04075
1657.35602	0.04104
1656.07025	0.04122
1654.78448	0.04127
1653.49871	0.04137
1652.21294	0.04171
1650.92717	0.04223
1649.64140	0.04264
1648.35564	0.04281
1647.06987	0.04285
1645.78410	0.04290
1644.49833	0.04298
1643.21256	0.04307
1641.92679	0.04316
1640.64102	0.04328
1639.35525	0.04343
1638.06949	0.04353
1636.78372	0.04357
1635.49795	0.04360
1634.21218	0.04366
1632.92641	0.04368
1631.64064	0.04361
1630.35487	0.04350
1629.06910	0.04347
1627.78333	0.04355
1626.49757	0.04369
1625.21180	0.04380
1623.92603	0.04385
1622.64026	0.04389
1621.35449	0.04397
1620.06872	0.04404
1618.78295	0.04404
1617.49718	0.04404
1616.21142	0.04415
1614.92565	0.04436
1613.63988	0.04458
1612.35411	0.04476
1611.06834	0.04493
1609.78257	0.04512
1608.49680	0.04530
1607.21103	0.04544
1605.92526	0.04556
1604.63950	0.04571
1603.35373	0.04592
1602.06796	0.04620
1600.78219	0.04648
1599.49642	0.04675
1598.21065	0.04697
1596.92488	0.04716
1595.63911	0.04730
1594.35335	0.04744
1593.06758	0.04757
1591.78181	0.04772
1590.49604	0.04790
1589.21027	0.04812
1587.92450	0.04841
1586.63873	0.04874
1585.35296	0.04905
1584.06719	0.04930
1582.78143	0.04951
1581.49566	0.04977
1580.20989	0.05009
1578.92412	0.05044
1577.63835	0.05074
1576.35258	0.05102
1575.06681	0.05138
1573.78104	0.05177
1572.49528	0.05209
1571.20951	0.05231
1569.92374	0.05251
1568.63797	0.05278
1567.35220	0.05307
1566.06643	0.05333
1564.78066	0.05356
1563.49489	0.05375
1562.20912	0.05384
1560.92336	0.05382
1559.63759	0.05379
1558.35182	0.05392
1557.06605	0.05417
1555.78028	0.05440
1554.49451	0.05456
1553.20874	0.05469
1551.92297	0.05482
1550.63721	0.05494
1549.35144	0.05507
1548.06567	0.05521
1546.77990	0.05527
1545.49413	0.05523
1544.20836	0.05509
1542.92259	0.05490
1541.63682	0.05466
1540.35105	0.05442
1539.06529	0.05430
1537.77952	0.05429
1536.49375	0.05429
1535.20798	0.05423
1533.92221	0.05416
1532.63644	0.05423
1531.35067	0.05447
1530.06490	0.05484
1528.77914	0.05531
1527.49337	0.05584
1526.20760	0.05644
1524.92183	0.05713
1523.63606	0.05787
1522.35029	0.05861
1521.06452	0.05941
1519.77875	0.06030
1518.49298	0.06130
1517.20722	0.06241
1515.92145	0.06366
1514.63568	0.06501
1513.34991	0.06641
1512.06414	0.06788
1510.77837	0.06941
1509.49260	0.07090
1508.20683	0.07230
1506.92107	0.07364
1505.63530	0.07502
1504.34953	0.07643
1503.06376	0.07777
1501.77799	0.07902
1500.49222	0.08019
1499.20645	0.08128
1497.92068	0.08226
1496.63491	0.08318
1495.34915	0.08409
1494.06338	0.08504
1492.77761	0.08597
1491.49184	0.08687
1490.20607	0.08779
1488.92030	0.08877
1487.63453	0.08984
1486.34876	0.09104
1485.06299	0.09235
1483.77723	0.09373
1482.49146	0.09516
1481.20569	0.09661
1479.91992	0.09806
1478.63415	0.09948
1477.34838	0.10084
1476.06261	0.10210
1474.77684	0.10320
1473.49108	0.10416
1472.20531	0.10500
1470.91954	0.10575
1469.63377	0.10638
1468.34800	0.10684
1467.06223	0.10713
1465.77646	0.10734
1464.49069	0.10757
1463.20492	0.10791
1461.91916	0.10837
1460.63339	0.10889
1459.34762	0.10941
1458.06185	0.10993
1456.77608	0.11046
1455.49031	0.11098
1454.20454	0.11142
1452.91877	0.11178
1451.63301	0.11211
1450.34724	0.11247
1449.06147	0.11279
1447.77570	0.11300
1446.48993	0.11307
1445.20416	0.11300
1443.91839	0.11276
1442.63262	0.11241
1441.34685	0.11201
1440.06109	0.11161
1438.77532	0.11126
1437.48955	0.11105
1436.20378	0.11110
1434.91801	0.11148
1433.63224	0.11217
1432.34647	0.11312
1431.06070	0.11432
1429.77494	0.11576
1428.48917	0.11743
1427.20340	0.11928
1425.91763	0.12123
1424.63186	0.12318
1423.34609	0.12506
1422.06032	0.12679
1420.77455	0.12837
1419.48878	0.12982
1418.20302	0.13112
1416.91725	0.13222
1415.63148	0.13301
1414.34571	0.13347
1413.05994	0.13362
1411.77417	0.13349
1410.48840	0.13311
1409.20263	0.13248
1407.91687	0.13160
1406.63110	0.13043
1405.34533	0.12895
1404.05956	0.12721
1402.77379	0.12522
1401.48802	0.12303
1400.20225	0.12062
1398.91648	0.11803
1397.63071	0.11530
1396.34495	0.11248
1395.05918	0.10964
1393.77341	0.10684
1392.48764	0.10409
1391.20187	0.10137
1389.91610	0.09869
1388.63033	0.09604
1387.34456	0.09342
1386.05880	0.09082
1384.77303	0.08822
1383.48726	0.08562
1382.20149	0.08303
1380.91572	0.08047
1379.62995	0.07793
1378.34418	0.07541
1377.05841	0.07288
1375.77264	0.07036
1374.48688	0.06785
1373.20111	0.06536
1371.91534	0.06293
1370.62957	0.06060
1369.34380	0.05843
1368.05803	0.05645
1366.77226	0.05464
1365.48649	0.05292
1364.20073	0.05125
1362.91496	0.04965
1361.62919	0.04814
1360.34342	0.04678
1359.05765	0.04554
1357.77188	0.04439
1356.48611	0.04328
1355.20034	0.04220
1353.91457	0.04118
1352.62881	0.04025
1351.34304	0.03939
1350.05727	0.03859
1348.77150	0.03784
1347.48573	0.03712
1346.19996	0.03644
1344.91419	0.03576
1343.62842	0.03510
1342.34266	0.03448
1341.05689	0.03389
1339.77112	0.03335
1338.48535	0.03285
1337.19958	0.03240
1335.91381	0.03197
1334.62804	0.03155
1333.34227	0.03113
1332.05650	0.03071
1330.77074	0.03033
1329.48497	0.02997
1328.19920	0.02964
1326.91343	0.02931
1325.62766	0.02898
1324.34189	0.02864
1323.05612	0.02833
1321.77035	0.02808
1320.48459	0.02787
1319.19882	0.02766
1317.91305	0.02739
1316.62728	0.02709
1315.34151	0.02681
1314.05574	0.02658
1312.76997	0.02641
1311.48420	0.02625
1310.19843	0.02607
1308.91267	0.02586
1307.62690	0.02564
1306.34113	0.02542
1305.05536	0.02523
1303.76959	0.02508
1302.48382	0.02493
1301.19805	0.02477
1299.91228	0.02460
1298.62652	0.02445
1297.34075	0.02429
1296.05498	0.02411
1294.76921	0.02392
1293.48344	0.02378
1292.19767	0.02373
1290.91190	0.02370
1289.62613	0.02364
1288.34036	0.02350
1287.05460	0.02333
1285.76883	0.02315
1284.48306	0.02301
1283.19729	0.02292
1281.91152	0.02289
1280.62575	0.02289
1279.33998	0.02287
1278.05421	0.02279
1276.76845	0.02265
1275.48268	0.02246
1274.19691	0.02228
1272.91114	0.02214
1271.62537	0.02206
1270.33960	0.02203
1269.05383	0.02200
1267.76806	0.02193
1266.48229	0.02180
1265.19653	0.02163
1263.91076	0.02145
1262.62499	0.02128
1261.33922	0.02116
1260.05345	0.02110
1258.76768	0.02110
1257.48191	0.02111
1256.19614	0.02111
1254.91037	0.02106
1253.62461	0.02099
1252.33884	0.02090
1251.05307	0.02082
1249.76730	0.02073
1248.48153	0.02066
1247.19576	0.02060
1245.90999	0.02056
1244.62422	0.02051
1243.33846	0.02045
1242.05269	0.02039
1240.76692	0.02033
1239.48115	0.02027
1238.19538	0.02022
1236.90961	0.02017
1235.62384	0.02010
1234.33807	0.02001
1233.05230	0.01992
1231.76654	0.01983
1230.48077	0.01976
1229.19500	0.01970
1227.90923	0.01964
1226.62346	0.01957
1225.33769	0.01948
1224.05192	0.01939
1222.76615	0.01929
1221.48039	0.01921
1220.19462	0.01914
1218.90885	0.01908
1217.62308	0.01904
1216.33731	0.01899
1215.05154	0.01894
1213.76577	0.01887
1212.48000	0.01882
1211.19423	0.01879
1209.90847	0.01879
1208.62270	0.01880
1207.33693	0.01882
1206.05116	0.01884
1204.76539	0.01885
1203.47962	0.01883
1202.19385	0.01879
1200.90808	0.01876
1199.62232	0.01880
1198.33655	0.01878
1197.05078	0.01880
1195.76501	0.01887
1194.47924	0.01896
1193.19347	0.01904
1191.90770	0.01908
1190.62193	0.01908
1189.33616	0.01903
1188.05040	0.01894
1186.76463	0.01885
1185.47886	0.01880
1184.19309	0.01882
1182.90732	0.01887
1181.62155	0.01892
1180.33578	0.01896
1179.05001	0.01903
1177.76425	0.01915
1176.47848	0.01934
1175.19271	0.01958
1173.90694	0.01985
1172.62117	0.02013
1171.33540	0.02039
1170.04963	0.02062
1168.76386	0.02079
1167.47809	0.02091
1166.19233	0.02102
1164.90656	0.02118
1163.62079	0.02145
1162.33502	0.02182
1161.04925	0.02225
1159.76348	0.02265
1158.47771	0.02298
1157.19194	0.02327
1155.90618	0.02363
1154.62041	0.02412
1153.33464	0.02469
1152.04887	0.02528
1150.76310	0.02588
1149.47733	0.02651
1148.19156	0.02720
1146.90579	0.02796
1145.62002	0.02882
1144.33426	0.02981
1143.04849	0.03095
1141.76272	0.03221
1140.47695	0.03353
1139.19118	0.03491
1137.90541	0.03636
1136.61964	0.03794
1135.33387	0.03972
1134.04811	0.04174
1132.76234	0.04401
1131.47657	0.04654
1130.19080	0.04936
1128.90503	0.05248
1127.61926	0.05592
1126.33349	0.05962
1125.04772	0.06348
1123.76195	0.06744
1122.47619	0.07148
1121.19042	0.07561
1119.90465	0.07982
1118.61888	0.08411
1117.33311	0.08847
1116.04734	0.09292
1114.76157	0.09742
1113.47580	0.10190
1112.19004	0.10629
1110.90427	0.11054
1109.61850	0.11466
1108.33273	0.11871
1107.04696	0.12268
1105.76119	0.12657
1104.47542	0.13039
1103.18965	0.13418
1101.90388	0.13794
1100.61812	0.14164
1099.33235	0.14517
1098.04658	0.14852
1096.76081	0.15175
1095.47504	0.15493
1094.18927	0.15806
1092.90350	0.16111
1091.61773	0.16401
1090.33197	0.16676
1089.04620	0.16938
1087.76043	0.17194
1086.47466	0.17452
1085.18889	0.17716
1083.90312	0.17987
1082.61735	0.18267
1081.33158	0.18565
1080.04581	0.18888
1078.76005	0.19236
1077.47428	0.19605
1076.18851	0.19990
1074.90274	0.20384
1073.61697	0.20788
1072.33120	0.21204
1071.04543	0.21639
1069.75966	0.22094
1068.47390	0.22563
1067.18813	0.23041
1065.90236	0.23529
1064.61659	0.24032
1063.33082	0.24551
1062.04505	0.25081
1060.75928	0.25616
1059.47351	0.26150
1058.18774	0.26678
1056.90198	0.27193
1055.61621	0.27697
1054.33044	0.28193
1053.04467	0.28688
1051.75890	0.29191
1050.47313	0.29714
1049.18736	0.30259
1047.90159	0.30824
1046.61583	0.31406
1045.33006	0.32001
1044.04429	0.32612
1042.75852	0.33242
1041.47275	0.33888
1040.18698	0.34548
1038.90121	0.35216
1037.61544	0.35891
1036.32967	0.36570
1035.04391	0.37247
1033.75814	0.37913
1032.47237	0.38559
1031.18660	0.39171
1029.90083	0.39734
1028.61506	0.40239
1027.32929	0.40687
1026.04352	0.41076
1024.75775	0.41406
1023.47199	0.41675
1022.18622	0.41885
1020.90045	0.42034
1019.61468	0.42107
1018.32891	0.42085
1017.04314	0.41959
1015.75737	0.41733
1014.47160	0.41416
1013.18584	0.41011
1011.90007	0.40513
1010.61430	0.39914
1009.32853	0.39205
1008.04276	0.38386
1006.75699	0.37470
1005.47122	0.36471
1004.18545	0.35393
1002.89968	0.34241
1001.61392	0.33020
1000.32815	0.31747
999.04238	0.30439
997.75661	0.29114
996.47084	0.27782
995.18507	0.26454
993.89930	0.25139
992.61353	0.23851
991.32777	0.22606
990.04200	0.21420
988.75623	0.20296
987.47046	0.19231
986.18469	0.18226
984.89892	0.17285
983.61315	0.16411
982.32738	0.15605
981.04161	0.14863
979.75585	0.14181
978.47008	0.13561
977.18431	0.13006
975.89854	0.12523
974.61277	0.12123
973.32700	0.11813
972.04123	0.11593
970.75546	0.11460
969.46970	0.11411
968.18393	0.11441
966.89816	0.11539
965.61239	0.11686
964.32662	0.11851
963.04085	0.11999
961.75508	0.12093
960.46931	0.12101
959.18354	0.12011
957.89778	0.11822
956.61201	0.11548
955.32624	0.11209
954.04047	0.10828
952.75470	0.10429
951.46893	0.10035
950.18316	0.09660
948.89739	0.09304
947.61163	0.08963
946.32586	0.08630
945.04009	0.08307
943.75432	0.07999
942.46855	0.07714
941.18278	0.07456
939.89701	0.07223
938.61124	0.07005
937.32547	0.06794
936.03971	0.06593
934.75394	0.06411
933.46817	0.06253
932.18240	0.06113
930.89663	0.05985
929.61086	0.05869
928.32509	0.05770
927.03932	0.05687
925.75356	0.05610
924.46779	0.05530
923.18202	0.05445
921.89625	0.05362
920.61048	0.05285
919.32471	0.05218
918.03894	0.05158
916.75317	0.05102
915.46740	0.05045
914.18164	0.04989
912.89587	0.04937
911.61010	0.04895
910.32433	0.04862
909.03856	0.04833
907.75279	0.04805
906.46702	0.04773
905.18125	0.04737
903.89549	0.04696
902.60972	0.04653
901.32395	0.04613
900.03818	0.04576
898.75241	0.04541
897.46664	0.04506
896.18087	0.04478
894.89510	0.04462
893.60933	0.04462
892.32357	0.04480
891.03780	0.04519
889.75203	0.04577
888.46626	0.04649
887.18049	0.04745
885.89472	0.04892
884.60895	0.05128
883.32318	0.05470
882.03742	0.05890
880.75165	0.06315
879.46588	0.06669
878.18011	0.06923
876.89434	0.07116
875.60857	0.07302
874.32280	0.07494
873.03703	0.07654
871.75126	0.07725
870.46550	0.07677
869.17973	0.07515
867.89396	0.07263
866.60819	0.06951
865.32242	0.06610
864.03665	0.06271
862.75088	0.05958
861.46511	0.05679
860.17935	0.05433
858.89358	0.05218
857.60781	0.05038
856.32204	0.04895
855.03627	0.04786
853.75050	0.04701
852.46473	0.04632
851.17896	0.04577
849.89319	0.04530
848.60743	0.04490
847.32166	0.04451
846.03589	0.04411
844.75012	0.04370
843.46435	0.04327
842.17858	0.04290
840.89281	0.04262
839.60704	0.04239
838.32128	0.04217
837.03551	0.04195
835.74974	0.04173
834.46397	0.04151
833.17820	0.04126
831.89243	0.04099
830.60666	0.04075
829.32089	0.04052
828.03512	0.04031
826.74936	0.04015
825.46359	0.04007
824.17782	0.04005
822.89205	0.04003
821.60628	0.03996
820.32051	0.03985
819.03474	0.03976
817.74897	0.03968
816.46321	0.03957
815.17744	0.03945
813.89167	0.03933
812.60590	0.03920
811.32013	0.03905
810.03436	0.03892
808.74859	0.03886
807.46282	0.03888
806.17705	0.03893
804.89129	0.03895
803.60552	0.03892
802.31975	0.03888
801.03398	0.03889
799.74821	0.03893
798.46244	0.03894
797.17667	0.03889
795.89090	0.03880
794.60513	0.03871
793.31937	0.03864
792.03360	0.03859
790.74783	0.03860
789.46206	0.03865
788.17629	0.03872
786.89052	0.03876
785.60475	0.03876
784.31898	0.03868
783.03322	0.03855
781.74745	0.03840
780.46168	0.03831
779.17591	0.03829
777.89014	0.03833
776.60437	0.03836
775.31860	0.03836
774.03283	0.03833
772.74706	0.03831
771.46130	0.03831
770.17553	0.03835
768.88976	0.03841
767.60399	0.03851
766.31822	0.03866
765.03245	0.03882
763.74668	0.03894
762.46091	0.03899
761.17515	0.03902
759.88938	0.03903
758.60361	0.03902
757.31784	0.03902
756.03207	0.03906
754.74630	0.03916
753.46053	0.03924
752.17476	0.03924
750.88899	0.03916
749.60323	0.03906
748.31746	0.03900
747.03169	0.03899
745.74592	0.03902
744.46015	0.03908
743.17438	0.03914
741.88861	0.03916
740.60284	0.03908
739.31708	0.03894
738.03131	0.03882
736.74554	0.03880
735.45977	0.03886
734.17400	0.03896
732.88823	0.03905
731.60246	0.03912
730.31669	0.03914
729.03092	0.03914
727.74516	0.03915
726.45939	0.03918
725.17362	0.03923
723.88785	0.03948
722.60208	0.03920
721.31631	0.03866
720.03054	0.03822
718.74477	0.03796
717.45901	0.03790
716.17324	0.03800
714.88747	0.03820
713.60170	0.03846
712.31593	0.03875
711.03016	0.03901
709.74439	0.03922
708.45862	0.03935
707.17285	0.03942
705.88709	0.03943
704.60132	0.03937
703.31555	0.03925
702.02978	0.03909
700.74401	0.03891
699.45824	0.03874
698.17247	0.03858
696.88670	0.03846
695.60094	0.03841
694.31517	0.03845
693.02940	0.03856
691.74363	0.03867
690.45786	0.03872
689.17209	0.03867
687.88632	0.03857
686.60055	0.03850
685.31478	0.03850
684.02902	0.03855
682.74325	0.03857
681.45748	0.03855
680.17171	0.03850
678.88594	0.03849
677.60017	0.03854
676.31440	0.03862
675.02863	0.03874
673.74287	0.03889
672.45710	0.03908
671.17133	0.03925
669.88556	0.03938
668.59979	0.03946
667.31402	0.03946
666.02825	0.03931
664.74248	0.03904
663.45671	0.03872
662.17095	0.03843
660.88518	0.03822
659.59941	0.03808
658.31364	0.03798
657.02787	0.03791
655.74210	0.03791
654.45633	0.03797
653.17056	0.03805
651.88480	0.03809
650.59903	0.03808
649.31326	0.03803
648.02749	0.03798
646.74172	0.03795
645.45595	0.03796
644.17018	0.03799
642.88441	0.03806
641.59864	0.03820
640.31288	0.03846
639.02711	0.03885
637.74134	0.03935
636.45557	0.03992
635.16980	0.04056
633.88403	0.04129
632.59826	0.04211
631.31249	0.04288
630.02673	0.04323
628.74096	0.04333
627.45519	0.04443
626.16942	0.04447
624.88365	0.04403
623.59788	0.04430
622.31211	0.04612
621.02634	0.04996
619.74057	0.05548
618.45481	0.06156
617.16904	0.06716
615.88327	0.07196
614.59750	0.07628
613.31173	0.08066
612.02596	0.08557
610.74019	0.09140
609.45442	0.09824
608.16866	0.10576
606.88289	0.11346
605.59712	0.12083
604.31135	0.12733
603.02558	0.13219
601.73981	0.13455
600.45404	0.13406
599.16827	0.13115
597.88250	0.12689
596.59674	0.12234
595.31097	0.11819
594.02520	0.11470
592.73943	0.11189
591.45366	0.10975
590.16789	0.10834
588.88212	0.10778
587.59635	0.10814
586.31059	0.10936
585.02482	0.11132
583.73905	0.11392
582.45328	0.11714
581.16751	0.12091
579.88174	0.12509
578.59597	0.12944
577.31020	0.13376
576.02443	0.13791
574.73867	0.14182
573.45290	0.14547
572.16713	0.14903
570.88136	0.15282
569.59559	0.15725
568.30982	0.16259
567.02405	0.16873
565.73828	0.17520
564.45251	0.18125
563.16675	0.18600
561.88098	0.18862
560.59521	0.18854
559.30944	0.18549
558.02367	0.17958
556.73790	0.17132
555.45213	0.16153
554.16636	0.15110
552.88060	0.14077
551.59483	0.13100
550.30906	0.12199
549.02329	0.11390
547.73752	0.10683
546.45175	0.10075
545.16598	0.09542
543.88021	0.09061
542.59444	0.08619
541.30868	0.08221
540.02291	0.07873
538.73714	0.07571
537.45137	0.07300
536.16560	0.07043
534.87983	0.06790
533.59406	0.06547
532.30829	0.06326
531.02253	0.06131
529.73676	0.05960
528.45099	0.05804
527.16522	0.05657
525.87945	0.05515
524.59368	0.05379
523.30791	0.05251
522.02214	0.05131
520.73637	0.05014
519.45061	0.04896
518.16484	0.04780
516.87907	0.04673
515.59330	0.04579
514.30753	0.04491
513.02176	0.04404
511.73599	0.04323
510.45022	0.04256
509.16446	0.04207
507.87869	0.04168
506.59292	0.04123
505.30715	0.04061
504.02138	0.03987
502.73561	0.03916
501.44984	0.03862
500.16407	0.03825
498.87830	0.03793
497.59254	0.03756
496.30677	0.03713
495.02100	0.03669
493.73523	0.03629
492.44946	0.03596
491.16369	0.03569
489.87792	0.03550
488.59215	0.03540
487.30639	0.03544
486.02062	0.03561
484.73485	0.03584
483.44908	0.03605
482.16331	0.03620
480.87754	0.03630
479.59177	0.03640
478.30600	0.03658
477.02023	0.03685
475.73447	0.03719
474.44870	0.03756
473.16293	0.03791
471.87716	0.03820
470.59139	0.03833
469.30562	0.03822
468.01985	0.03790
466.73408	0.03747
465.44832	0.03707
464.16255	0.03673
462.87678	0.03639
461.59101	0.03600
460.30524	0.03557
459.01947	0.03514
457.73370	0.03477
456.44793	0.03444
455.16216	0.03413
453.87640	0.03383
452.59063	0.03356
451.30486	0.03329
450.01909	0.03301
448.73332	0.03273
447.44755	0.03252
446.16178	0.03239
444.87601	0.03233
443.59025	0.03226
442.30448	0.03212
441.01871	0.03189
439.73294	0.03164
438.44717	0.03144
437.16140	0.03135
435.87563	0.03137
434.58986	0.03139
433.30409	0.03138
432.01833	0.03131
430.73256	0.03123
429.44679	0.03116
428.16102	0.03110
426.87525	0.03101
425.58948	0.03087
424.30371	0.03071
423.01794	0.03056
421.73218	0.03046
420.44641	0.03038
419.16064	0.03030
417.87487	0.03022
416.58910	0.03016
415.30333	0.03011
414.01756	0.03007
412.73179	0.03005
411.44602	0.03004
410.16026	0.03002
408.87449	0.03002
407.58872	0.03008
406.30295	0.03021
405.01718	0.03040
403.73141	0.03060
402.44564	0.03077
401.15987	0.03090
399.87411	0.03102
