3997.45528	0.04470
3996.16951	0.04516
3994.88374	0.04540
3993.59798	0.04540
3992.31221	0.04523
3991.02644	0.04501
3989.74067	0.04482
3988.45490	0.04468
3987.16913	0.04451
3985.88336	0.04423
3984.59759	0.04397
3983.31183	0.04391
3982.02606	0.04408
3980.74029	0.04425
3979.45452	0.04428
3978.16875	0.04421
3976.88298	0.04413
3975.59721	0.04393
3974.31144	0.04363
3973.02567	0.04346
3971.73991	0.04366
3970.45414	0.04411
3969.16837	0.04446
3967.88260	0.04464
3966.59683	0.04489
3965.31106	0.04538
3964.02529	0.04589
3962.73952	0.04597
3961.45376	0.04533
3960.16799	0.04417
3958.88222	0.04306
3957.59645	0.04262
3956.31068	0.04298
3955.02491	0.04374
3953.73914	0.04438
3952.45337	0.04472
3951.16760	0.04487
3949.88184	0.04492
3948.59607	0.04481
3947.31030	0.04449
3946.02453	0.04397
3944.73876	0.04334
3943.45299	0.04277
3942.16722	0.04250
3940.88145	0.04266
3939.59569	0.04313
3938.30992	0.04361
3937.02415	0.04380
3935.73838	0.04359
3934.45261	0.04315
3933.16684	0.04285
3931.88107	0.04296
3930.59530	0.04337
3929.30953	0.04370
3928.02377	0.04376
3926.73800	0.04368
3925.45223	0.04365
3924.16646	0.04369
3922.88069	0.04360
3921.59492	0.04328
3920.30915	0.04290
3919.02338	0.04279
3917.73762	0.04306
3916.45185	0.04354
3915.16608	0.04381
3913.88031	0.04358
3912.59454	0.04303
3911.30877	0.04260
3910.02300	0.04256
3908.73723	0.04286
3907.45146	0.04323
3906.16570	0.04346
3904.87993	0.04341
3903.59416	0.04297
3902.30839	0.04209
3901.02262	0.04107
3899.73685	0.04048
3898.45108	0.04071
3897.16531	0.04153
3895.87955	0.04247
3894.59378	0.04325
3893.30801	0.04383
3892.02224	0.04418
3890.73647	0.04421
3889.45070	0.04377
3888.16493	0.04281
3886.87916	0.04169
3885.59339	0.04097
3884.30763	0.04069
3883.02186	0.04043
3881.73609	0.04014
3880.45032	0.04032
3879.16455	0.04126
3877.87878	0.04253
3876.59301	0.04346
3875.30724	0.04378
3874.02148	0.04359
3872.73571	0.04298
3871.44994	0.04216
3870.16417	0.04162
3868.87840	0.04159
3867.59263	0.04157
3866.30686	0.04100
3865.02109	0.04012
3863.73532	0.03954
3862.44956	0.03960
3861.16379	0.04013
3859.87802	0.04069
3858.59225	0.04077
3857.30648	0.04018
3856.02071	0.03930
3854.73494	0.03892
3853.44917	0.03951
3852.16341	0.04052
3850.87764	0.04099
3849.59187	0.04074
3848.30610	0.04047
3847.02033	0.04081
3845.73456	0.04173
3844.44879	0.04269
3843.16302	0.04302
3841.87725	0.04245
3840.59149	0.04120
3839.30572	0.03997
3838.01995	0.03943
3836.73418	0.03961
3835.44841	0.03992
3834.16264	0.03991
3832.87687	0.03970
3831.59110	0.03968
3830.30534	0.03995
3829.01957	0.04032
3827.73380	0.04054
3826.44803	0.04057
3825.16226	0.04045
3823.87649	0.04012
3822.59072	0.03978
3821.30495	0.03982
3820.01918	0.04032
3818.73342	0.04074
3817.44765	0.04068
3816.16188	0.04047
3814.87611	0.04046
3813.59034	0.04046
3812.30457	0.04029
3811.01880	0.04023
3809.73303	0.04042
3808.44726	0.04066
3807.16150	0.04083
3805.87573	0.04100
3804.58996	0.04100
3803.30419	0.04067
3802.01842	0.04033
3800.73265	0.04045
3799.44688	0.04092
3798.16111	0.04126
3796.87535	0.04129
3795.58958	0.04110
3794.30381	0.04071
3793.01804	0.04016
3791.73227	0.03969
3790.44650	0.03951
3789.16073	0.03947
3787.87496	0.03931
3786.58919	0.03894
3785.30343	0.03860
3784.01766	0.03855
3782.73189	0.03878
3781.44612	0.03903
3780.16035	0.03907
3778.87458	0.03878
3777.58881	0.03819
3776.30304	0.03754
3775.01728	0.03720
3773.73151	0.03731
3772.44574	0.03767
3771.15997	0.03810
3769.87420	0.03867
3768.58843	0.03939
3767.30266	0.04006
3766.01689	0.04054
3764.73112	0.04082
3763.44536	0.04083
3762.15959	0.04035
3760.87382	0.03942
3759.58805	0.03835
3758.30228	0.03746
3757.01651	0.03707
3755.73074	0.03723
3754.44497	0.03769
3753.15921	0.03801
3751.87344	0.03794
3750.58767	0.03753
3749.30190	0.03718
3748.01613	0.03721
3746.73036	0.03735
3745.44459	0.03736
3744.15882	0.03758
3742.87305	0.03812
3741.58729	0.03852
3740.30152	0.03846
3739.01575	0.03795
3737.72998	0.03715
3736.44421	0.03649
3735.15844	0.03637
3733.87267	0.03659
3732.58690	0.03667
3731.30114	0.03649
3730.01537	0.03634
3728.72960	0.03657
3727.44383	0.03733
3726.15806	0.03838
3724.87229	0.03912
3723.58652	0.03900
3722.30075	0.03809
3721.01498	0.03695
3719.72922	0.03614
3718.44345	0.03612
3717.15768	0.03695
3715.87191	0.03814
3714.58614	0.03891
3713.30037	0.03888
3712.01460	0.03837
3710.72883	0.03794
3709.44307	0.03770
3708.15730	0.03754
3706.87153	0.03738
3705.58576	0.03715
3704.29999	0.03672
3703.01422	0.03625
3701.72845	0.03628
3700.44268	0.03706
3699.15691	0.03802
3697.87115	0.03849
3696.58538	0.03844
3695.29961	0.03806
3694.01384	0.03757
3692.72807	0.03739
3691.44230	0.03747
3690.15653	0.03748
3688.87076	0.03754
3687.58500	0.03776
3686.29923	0.03772
3685.01346	0.03733
3683.72769	0.03694
3682.44192	0.03693
3681.15615	0.03749
3679.87038	0.03844
3678.58461	0.03935
3677.29884	0.03994
3676.01308	0.04010
3674.72731	0.03980
3673.44154	0.03891
3672.15577	0.03753
3670.87000	0.03648
3669.58423	0.03634
3668.29846	0.03665
3667.01269	0.03668
3665.72693	0.03630
3664.44116	0.03590
3663.15539	0.03575
3661.86962	0.03593
3660.58385	0.03647
3659.29808	0.03724
3658.01231	0.03798
3656.72654	0.03852
3655.44077	0.03886
3654.15501	0.03889
3652.86924	0.03838
3651.58347	0.03749
3650.29770	0.03681
3649.01193	0.03684
3647.72616	0.03745
3646.44039	0.03809
3645.15462	0.03833
3643.86886	0.03827
3642.58309	0.03824
3641.29732	0.03841
3640.01155	0.03874
3638.72578	0.03909
3637.44001	0.03946
3636.15424	0.03990
3634.86847	0.04036
3633.58270	0.04067
3632.29694	0.04050
3631.01117	0.03981
3629.72540	0.03924
3628.43963	0.03947
3627.15386	0.04036
3625.86809	0.04112
3624.58232	0.04150
3623.29655	0.04181
3622.01079	0.04239
3620.72502	0.04306
3619.43925	0.04347
3618.15348	0.04340
3616.86771	0.04298
3615.58194	0.04259
3614.29617	0.04259
3613.01040	0.04306
3611.72463	0.04369
3610.43887	0.04411
3609.15310	0.04425
3607.86733	0.04434
3606.58156	0.04454
3605.29579	0.04479
3604.01002	0.04506
3602.72425	0.04539
3601.43848	0.04591
3600.15272	0.04653
3598.86695	0.04706
3597.58118	0.04740
3596.29541	0.04777
3595.00964	0.04825
3593.72387	0.04864
3592.43810	0.04891
3591.15233	0.04920
3589.86656	0.04948
3588.58080	0.04974
3587.29503	0.05000
3586.00926	0.05013
3584.72349	0.05003
3583.43772	0.04995
3582.15195	0.05005
3580.86618	0.05013
3579.58041	0.05007
3578.29464	0.04996
3577.00888	0.05001
3575.72311	0.05038
3574.43734	0.05088
3573.15157	0.05122
3571.86580	0.05137
3570.58003	0.05142
3569.29426	0.05155
3568.00849	0.05183
3566.72273	0.05227
3565.43696	0.05280
3564.15119	0.05327
3562.86542	0.05364
3561.57965	0.05401
3560.29388	0.05444
3559.00811	0.05487
3557.72234	0.05514
3556.43657	0.05514
3555.15081	0.05494
3553.86504	0.05463
3552.57927	0.05438
3551.29350	0.05431
3550.00773	0.05451
3548.72196	0.05499
3547.43619	0.05573
3546.15042	0.05670
3544.86466	0.05771
3543.57889	0.05847
3542.29312	0.05888
3541.00735	0.05912
3539.72158	0.05952
3538.43581	0.06017
3537.15004	0.06085
3535.86427	0.06126
3534.57850	0.06134
3533.29274	0.06131
3532.00697	0.06133
3530.72120	0.06130
3529.43543	0.06100
3528.14966	0.06047
3526.86389	0.06002
3525.57812	0.05989
3524.29235	0.06005
3523.00659	0.06029
3521.72082	0.06058
3520.43505	0.06101
3519.14928	0.06162
3517.86351	0.06234
3516.57774	0.06304
3515.29197	0.06354
3514.00620	0.06374
3512.72043	0.06360
3511.43467	0.06316
3510.14890	0.06259
3508.86313	0.06221
3507.57736	0.06232
3506.29159	0.06299
3505.00582	0.06390
3503.72005	0.06466
3502.43428	0.06512
3501.14852	0.06537
3499.86275	0.06560
3498.57698	0.06579
3497.29121	0.06576
3496.00544	0.06540
3494.71967	0.06487
3493.43390	0.06451
3492.14813	0.06456
3490.86236	0.06497
3489.57660	0.06550
3488.29083	0.06592
3487.00506	0.06613
3485.71929	0.06623
3484.43352	0.06642
3483.14775	0.06684
3481.86198	0.06744
3480.57621	0.06814
3479.29045	0.06889
3478.00468	0.06960
3476.71891	0.07013
3475.43314	0.07036
3474.14737	0.07036
3472.86160	0.07027
3471.57583	0.07023
3470.29006	0.07029
3469.00429	0.07047
3467.71853	0.07066
3466.43276	0.07072
3465.14699	0.07061
3463.86122	0.07050
3462.57545	0.07057
3461.28968	0.07085
3460.00391	0.07114
3458.71814	0.07118
3457.43238	0.07091
3456.14661	0.07051
3454.86084	0.07027
3453.57507	0.07042
3452.28930	0.07095
3451.00353	0.07165
3449.71776	0.07222
3448.43199	0.07257
3447.14622	0.07282
3445.86046	0.07310
3444.57469	0.07336
3443.28892	0.07345
3442.00315	0.07335
3440.71738	0.07317
3439.43161	0.07305
3438.14584	0.07312
3436.86007	0.07353
3435.57431	0.07422
3434.28854	0.07489
3433.00277	0.07519
3431.71700	0.07504
3430.43123	0.07472
3429.14546	0.07454
3427.85969	0.07453
3426.57392	0.07457
3425.28815	0.07465
3424.00239	0.07489
3422.71662	0.07528
3421.43085	0.07558
3420.14508	0.07559
3418.85931	0.07537
3417.57354	0.07524
3416.28777	0.07534
3415.00200	0.07559
3413.71624	0.07576
3412.43047	0.07576
3411.14470	0.07573
3409.85893	0.07598
3408.57316	0.07667
3407.28739	0.07761
3406.00162	0.07843
3404.71585	0.07889
3403.43008	0.07902
3402.14432	0.07897
3400.85855	0.07884
3399.57278	0.07869
3398.28701	0.07843
3397.00124	0.07805
3395.71547	0.07778
3394.42970	0.07793
3393.14393	0.07850
3391.85817	0.07916
3390.57240	0.07945
3389.28663	0.07923
3388.00086	0.07882
3386.71509	0.07857
3385.42932	0.07854
3384.14355	0.07852
3382.85778	0.07846
3381.57201	0.07857
3380.28625	0.07906
3379.00048	0.07987
3377.71471	0.08063
3376.42894	0.08102
3375.14317	0.08093
3373.85740	0.08049
3372.57163	0.07994
3371.28586	0.07957
3370.00010	0.07959
3368.71433	0.08000
3367.42856	0.08062
3366.14279	0.08118
3364.85702	0.08145
3363.57125	0.08137
3362.28548	0.08101
3360.99971	0.08051
3359.71394	0.08002
3358.42818	0.07968
3357.14241	0.07961
3355.85664	0.07979
3354.57087	0.08010
3353.28510	0.08040
3351.99933	0.08070
3350.71356	0.08109
3349.42779	0.08161
3348.14202	0.08207
3346.85626	0.08220
3345.57049	0.08186
3344.28472	0.08124
3342.99895	0.08068
3341.71318	0.08048
3340.42741	0.08062
3339.14164	0.08081
3337.85587	0.08079
3336.57011	0.08065
3335.28434	0.08061
3333.99857	0.08070
3332.71280	0.08079
3331.42703	0.08082
3330.14126	0.08091
3328.85549	0.08117
3327.56972	0.08153
3326.28395	0.08173
3324.99819	0.08162
3323.71242	0.08128
3322.42665	0.08097
3321.14088	0.08086
3319.85511	0.08092
3318.56934	0.08102
3317.28357	0.08113
3315.99780	0.08129
3314.71204	0.08153
3313.42627	0.08184
3312.14050	0.08209
3310.85473	0.08217
3309.56896	0.08205
3308.28319	0.08188
3306.99742	0.08185
3305.71165	0.08200
3304.42588	0.08227
3303.14012	0.08255
3301.85435	0.08278
3300.56858	0.08291
3299.28281	0.08283
3297.99704	0.08245
3296.71127	0.08180
3295.42550	0.08118
3294.13973	0.08085
3292.85397	0.08089
3291.56820	0.08118
3290.28243	0.08156
3288.99666	0.08187
3287.71089	0.08188
3286.42512	0.08155
3285.13935	0.08110
3283.85358	0.08091
3282.56781	0.08117
3281.28205	0.08172
3279.99628	0.08221
3278.71051	0.08240
3277.42474	0.08222
3276.13897	0.08170
3274.85320	0.08095
3273.56743	0.08022
3272.28166	0.07984
3270.99590	0.07997
3269.71013	0.08045
3268.42436	0.08092
3267.13859	0.08114
3265.85282	0.08112
3264.56705	0.08105
3263.28128	0.08104
3261.99551	0.08104
3260.70974	0.08093
3259.42398	0.08067
3258.13821	0.08029
3256.85244	0.07987
3255.56667	0.07950
3254.28090	0.07919
3252.99513	0.07889
3251.70936	0.07859
3250.42359	0.07839
3249.13783	0.07841
3247.85206	0.07863
3246.56629	0.07885
3245.28052	0.07891
3243.99475	0.07881
3242.70898	0.07867
3241.42321	0.07861
3240.13744	0.07869
3238.85167	0.07882
3237.56591	0.07885
3236.28014	0.07867
3234.99437	0.07823
3233.70860	0.07758
3232.42283	0.07691
3231.13706	0.07649
3229.85129	0.07648
3228.56552	0.07679
3227.27976	0.07714
3225.99399	0.07723
3224.70822	0.07697
3223.42245	0.07643
3222.13668	0.07584
3220.85091	0.07543
3219.56514	0.07525
3218.27937	0.07513
3216.99360	0.07495
3215.70784	0.07477
3214.42207	0.07471
3213.13630	0.07472
3211.85053	0.07460
3210.56476	0.07425
3209.27899	0.07385
3207.99322	0.07379
3206.70745	0.07426
3205.42169	0.07501
3204.13592	0.07551
3202.85015	0.07543
3201.56438	0.07485
3200.27861	0.07418
3198.99284	0.07375
3197.70707	0.07369
3196.42130	0.07388
3195.13553	0.07414
3193.84977	0.07429
3192.56400	0.07423
3191.27823	0.07388
3189.99246	0.07320
3188.70669	0.07231
3187.42092	0.07154
3186.13515	0.07117
3184.84938	0.07122
3183.56362	0.07147
3182.27785	0.07169
3180.99208	0.07175
3179.70631	0.07158
3178.42054	0.07120
3177.13477	0.07073
3175.84900	0.07037
3174.56323	0.07019
3173.27746	0.07012
3171.99170	0.07001
3170.70593	0.06983
3169.42016	0.06963
3168.13439	0.06944
3166.84862	0.06923
3165.56285	0.06905
3164.27708	0.06901
3162.99131	0.06917
3161.70555	0.06937
3160.41978	0.06932
3159.13401	0.06891
3157.84824	0.06830
3156.56247	0.06779
3155.27670	0.06750
3153.99093	0.06732
3152.70516	0.06705
3151.41939	0.06666
3150.13363	0.06639
3148.84786	0.06648
3147.56209	0.06692
3146.27632	0.06741
3144.99055	0.06764
3143.70478	0.06754
3142.41901	0.06719
3141.13324	0.06672
3139.84748	0.06625
3138.56171	0.06585
3137.27594	0.06549
3135.99017	0.06514
3134.70440	0.06484
3133.41863	0.06467
3132.13286	0.06463
3130.84709	0.06456
3129.56132	0.06434
3128.27556	0.06406
3126.98979	0.06392
3125.70402	0.06406
3124.41825	0.06438
3123.13248	0.06464
3121.84671	0.06458
3120.56094	0.06416
3119.27517	0.06350
3117.98940	0.06282
3116.70364	0.06238
3115.41787	0.06230
3114.13210	0.06260
3112.84633	0.06309
3111.56056	0.06347
3110.27479	0.06346
3108.98902	0.06296
3107.70325	0.06215
3106.41749	0.06142
3105.13172	0.06114
3103.84595	0.06143
3102.56018	0.06204
3101.27441	0.06264
3099.98864	0.06301
3098.70287	0.06312
3097.41710	0.06306
3096.13133	0.06293
3094.84557	0.06281
3093.55980	0.06275
3092.27403	0.06273
3090.98826	0.06271
3089.70249	0.06266
3088.41672	0.06260
3087.13095	0.06253
3085.84518	0.06245
3084.55942	0.06236
3083.27365	0.06227
3081.98788	0.06222
3080.70211	0.06220
3079.41634	0.06215
3078.13057	0.06197
3076.84480	0.06166
3075.55903	0.06136
3074.27326	0.06121
3072.98750	0.06125
3071.70173	0.06143
3070.41596	0.06161
3069.13019	0.06170
3067.84442	0.06167
3066.55865	0.06154
3065.27288	0.06141
3063.98711	0.06138
3062.70135	0.06144
3061.41558	0.06152
3060.12981	0.06152
3058.84404	0.06137
3057.55827	0.06113
3056.27250	0.06090
3054.98673	0.06073
3053.70096	0.06058
3052.41519	0.06033
3051.12943	0.05989
3049.84366	0.05926
3048.55789	0.05860
3047.27212	0.05816
3045.98635	0.05809
3044.70058	0.05830
3043.41481	0.05849
3042.12904	0.05846
3040.84328	0.05825
3039.55751	0.05814
3038.27174	0.05837
3036.98597	0.05890
3035.70020	0.05943
3034.41443	0.05965
3033.12866	0.05939
3031.84289	0.05877
3030.55712	0.05802
3029.27136	0.05734
3027.98559	0.05685
3026.69982	0.05659
3025.41405	0.05653
3024.12828	0.05661
3022.84251	0.05670
3021.55674	0.05669
3020.27097	0.05654
3018.98521	0.05632
3017.69944	0.05611
3016.41367	0.05595
3015.12790	0.05576
3013.84213	0.05546
3012.55636	0.05502
3011.27059	0.05460
3009.98482	0.05432
3008.69905	0.05426
3007.41329	0.05444
3006.12752	0.05485
3004.84175	0.05539
3003.55598	0.05581
3002.27021	0.05592
3000.98444	0.05576
2999.69867	0.05559
2998.41290	0.05547
2997.12714	0.05545
2995.84137	0.05549
2994.55560	0.05553
2993.26983	0.05542
2991.98406	0.05511
2990.69829	0.05470
2989.41252	0.05444
2988.12675	0.05451
2986.84098	0.05478
2985.55522	0.05502
2984.26945	0.05506
2982.98368	0.05495
2981.69791	0.05477
2980.41214	0.05456
2979.12637	0.05434
2977.84060	0.05411
2976.55483	0.05385
2975.26907	0.05354
2973.98330	0.05316
2972.69753	0.05281
2971.41176	0.05259
2970.12599	0.05256
2968.84022	0.05264
2967.55445	0.05271
2966.26868	0.05273
2964.98291	0.05278
2963.69715	0.05285
2962.41138	0.05286
2961.12561	0.05271
2959.83984	0.05245
2958.55407	0.05215
2957.26830	0.05190
2955.98253	0.05178
2954.69676	0.05182
2953.41100	0.05198
2952.12523	0.05211
2950.83946	0.05209
2949.55369	0.05188
2948.26792	0.05161
2946.98215	0.05145
2945.69638	0.05142
2944.41061	0.05142
2943.12484	0.05133
2941.83908	0.05113
2940.55331	0.05087
2939.26754	0.05061
2937.98177	0.05041
2936.69600	0.05026
2935.41023	0.05004
2934.12446	0.04960
2932.83869	0.04890
2931.55293	0.04800
2930.26716	0.04696
2928.98139	0.04588
2927.69562	0.04490
2926.40985	0.04407
2925.12408	0.04323
2923.83831	0.04214
2922.55254	0.04073
2921.26677	0.03920
2919.98101	0.03793
2918.69524	0.03718
2917.40947	0.03706
2916.12370	0.03759
2914.83793	0.03871
2913.55216	0.04019
2912.26639	0.04177
2910.98062	0.04324
2909.69486	0.04448
2908.40909	0.04538
2907.12332	0.04590
2905.83755	0.04614
2904.55178	0.04623
2903.26601	0.04636
2901.98024	0.04662
2900.69447	0.04695
2899.40870	0.04720
2898.12294	0.04728
2896.83717	0.04723
2895.55140	0.04724
2894.26563	0.04738
2892.97986	0.04761
2891.69409	0.04781
2890.40832	0.04793
2889.12255	0.04799
2887.83678	0.04806
2886.55102	0.04817
2885.26525	0.04831
2883.97948	0.04847
2882.69371	0.04859
2881.40794	0.04860
2880.12217	0.04846
2878.83640	0.04823
2877.55063	0.04810
2876.26487	0.04819
2874.97910	0.04840
2873.69333	0.04853
2872.40756	0.04847
2871.12179	0.04825
2869.83602	0.04795
2868.55025	0.04758
2867.26448	0.04717
2865.97871	0.04673
2864.69295	0.04626
2863.40718	0.04576
2862.12141	0.04526
2860.83564	0.04484
2859.54987	0.04446
2858.26410	0.04391
2856.97833	0.04300
2855.69256	0.04180
2854.40680	0.04052
2853.12103	0.03934
2851.83526	0.03831
2850.54949	0.03762
2849.26372	0.03757
2847.97795	0.03833
2846.69218	0.03969
2845.40641	0.04121
2844.12064	0.04253
2842.83488	0.04351
2841.54911	0.04416
2840.26334	0.04455
2838.97757	0.04471
2837.69180	0.04473
2836.40603	0.04476
2835.12026	0.04487
2833.83449	0.04503
2832.54873	0.04507
2831.26296	0.04491
2829.97719	0.04467
2828.69142	0.04455
2827.40565	0.04462
2826.11988	0.04477
2824.83411	0.04483
2823.54834	0.04470
2822.26257	0.04443
2820.97681	0.04409
2819.69104	0.04382
2818.40527	0.04368
2817.11950	0.04363
2815.83373	0.04361
2814.54796	0.04360
2813.26219	0.04357
2811.97642	0.04355
2810.69066	0.04353
2809.40489	0.04355
2808.11912	0.04360
2806.83335	0.04360
2805.54758	0.04347
2804.26181	0.04317
2802.97604	0.04278
2801.69027	0.04250
2800.40450	0.04246
2799.11874	0.04263
2797.83297	0.04282
2796.54720	0.04287
2795.26143	0.04283
2793.97566	0.04288
2792.68989	0.04310
2791.40412	0.04335
2790.11835	0.04339
2788.83259	0.04316
2787.54682	0.04277
2786.26105	0.04237
2784.97528	0.04200
2783.68951	0.04168
2782.40374	0.04148
2781.11797	0.04152
2779.83220	0.04178
2778.54643	0.04215
2777.26067	0.04248
2775.97490	0.04269
2774.68913	0.04272
2773.40336	0.04257
2772.11759	0.04229
2770.83182	0.04200
2769.54605	0.04176
2768.26028	0.04159
2766.97452	0.04150
2765.68875	0.04154
2764.40298	0.04171
2763.11721	0.04192
2761.83144	0.04201
2760.54567	0.04192
2759.25990	0.04167
2757.97413	0.04136
2756.68836	0.04109
2755.40260	0.04097
2754.11683	0.04103
2752.83106	0.04114
2751.54529	0.04109
2750.25952	0.04077
2748.97375	0.04031
2747.68798	0.03997
2746.40221	0.03991
2745.11645	0.04010
2743.83068	0.04038
2742.54491	0.04058
2741.25914	0.04059
2739.97337	0.04039
2738.68760	0.04002
2737.40183	0.03963
2736.11606	0.03936
2734.83029	0.03927
2733.54453	0.03935
2732.25876	0.03954
2730.97299	0.03974
2729.68722	0.03988
2728.40145	0.03996
2727.11568	0.03998
2725.82991	0.03996
2724.54414	0.03984
2723.25838	0.03961
2721.97261	0.03933
2720.68684	0.03910
2719.40107	0.03898
2718.11530	0.03896
2716.82953	0.03896
2715.54376	0.03897
2714.25799	0.03907
2712.97222	0.03930
2711.68646	0.03959
2710.40069	0.03978
2709.11492	0.03975
2707.82915	0.03947
2706.54338	0.03911
2705.25761	0.03884
2703.97184	0.03872
2702.68607	0.03868
2701.40031	0.03861
2700.11454	0.03847
2698.82877	0.03832
2697.54300	0.03818
2696.25723	0.03803
2694.97146	0.03788
2693.68569	0.03778
2692.39992	0.03784
2691.11415	0.03810
2689.82839	0.03846
2688.54262	0.03873
2687.25685	0.03871
2685.97108	0.03842
2684.68531	0.03805
2683.39954	0.03781
2682.11377	0.03774
2680.82800	0.03772
2679.54224	0.03760
2678.25647	0.03742
2676.97070	0.03733
2675.68493	0.03741
2674.39916	0.03762
2673.11339	0.03781
2671.82762	0.03788
2670.54185	0.03782
2669.25608	0.03774
2667.97032	0.03771
2666.68455	0.03771
2665.39878	0.03774
2664.11301	0.03775
2662.82724	0.03771
2661.54147	0.03757
2660.25570	0.03738
2658.96993	0.03719
2657.68417	0.03701
2656.39840	0.03682
2655.11263	0.03665
2653.82686	0.03654
2652.54109	0.03639
2651.25532	0.03611
2649.96955	0.03574
2648.68378	0.03548
2647.39801	0.03540
2646.11225	0.03540
2644.82648	0.03533
2643.54071	0.03519
2642.25494	0.03500
2640.96917	0.03477
2639.68340	0.03456
2638.39763	0.03445
2637.11186	0.03448
2635.82609	0.03457
2634.54033	0.03461
2633.25456	0.03454
2631.96879	0.03440
2630.68302	0.03422
2629.39725	0.03400
2628.11148	0.03368
2626.82571	0.03331
2625.53994	0.03303
2624.25418	0.03294
2622.96841	0.03306
2621.68264	0.03330
2620.39687	0.03349
2619.11110	0.03345
2617.82533	0.03313
2616.53956	0.03269
2615.25379	0.03234
2613.96802	0.03215
2612.68226	0.03203
2611.39649	0.03191
2610.11072	0.03175
2608.82495	0.03161
2607.53918	0.03157
2606.25341	0.03174
2604.96764	0.03210
2603.68187	0.03241
2602.39611	0.03246
2601.11034	0.03222
2599.82457	0.03183
2598.53880	0.03150
2597.25303	0.03136
2595.96726	0.03139
2594.68149	0.03147
2593.39572	0.03150
2592.10995	0.03153
2590.82419	0.03165
2589.53842	0.03181
2588.25265	0.03178
2586.96688	0.03146
2585.68111	0.03099
2584.39534	0.03067
2583.10957	0.03062
2581.82380	0.03069
2580.53804	0.03066
2579.25227	0.03056
2577.96650	0.03062
2576.68073	0.03088
2575.39496	0.03113
2574.10919	0.03116
2572.82342	0.03101
2571.53765	0.03092
2570.25188	0.03100
2568.96612	0.03113
2567.68035	0.03107
2566.39458	0.03073
2565.10881	0.03025
2563.82304	0.02983
2562.53727	0.02963
2561.25150	0.02968
2559.96573	0.02985
2558.67997	0.03005
2557.39420	0.03023
2556.10843	0.03035
2554.82266	0.03041
2553.53689	0.03046
2552.25112	0.03050
2550.96535	0.03038
2549.67958	0.02997
2548.39381	0.02930
2547.10805	0.02865
2545.82228	0.02831
2544.53651	0.02836
2543.25074	0.02863
2541.96497	0.02895
2540.67920	0.02922
2539.39343	0.02947
2538.10766	0.02970
2536.82190	0.02982
2535.53613	0.02977
2534.25036	0.02950
2532.96459	0.02905
2531.67882	0.02857
2530.39305	0.02831
2529.10728	0.02844
2527.82151	0.02893
2526.53574	0.02942
2525.24998	0.02955
2523.96421	0.02923
2522.67844	0.02873
2521.39267	0.02836
2520.10690	0.02822
2518.82113	0.02814
2517.53536	0.02799
2516.24959	0.02784
2514.96383	0.02783
2513.67806	0.02800
2512.39229	0.02823
2511.10652	0.02843
2509.82075	0.02862
2508.53498	0.02888
2507.24921	0.02917
2505.96344	0.02933
2504.67767	0.02921
2503.39191	0.02882
2502.10614	0.02845
2500.82037	0.02839
2499.53460	0.02861
2498.24883	0.02877
2496.96306	0.02856
2495.67729	0.02809
2494.39152	0.02777
2493.10576	0.02784
2491.81999	0.02820
2490.53422	0.02862
2489.24845	0.02886
2487.96268	0.02878
2486.67691	0.02837
2485.39114	0.02785
2484.10537	0.02751
2482.81960	0.02743
2481.53384	0.02750
2480.24807	0.02756
2478.96230	0.02749
2477.67653	0.02731
2476.39076	0.02716
2475.10499	0.02722
2473.81922	0.02751
2472.53345	0.02789
2471.24769	0.02817
2469.96192	0.02822
2468.67615	0.02803
2467.39038	0.02777
2466.10461	0.02759
2464.81884	0.02750
2463.53307	0.02743
2462.24730	0.02729
2460.96153	0.02713
2459.67577	0.02703
2458.39000	0.02701
2457.10423	0.02708
2455.81846	0.02720
2454.53269	0.02735
2453.24692	0.02744
2451.96115	0.02747
2450.67538	0.02752
2449.38962	0.02763
2448.10385	0.02768
2446.81808	0.02750
2445.53231	0.02712
2444.24654	0.02683
2442.96077	0.02683
2441.67500	0.02706
2440.38923	0.02724
2439.10346	0.02716
2437.81770	0.02684
2436.53193	0.02648
2435.24616	0.02628
2433.96039	0.02625
2432.67462	0.02625
2431.38885	0.02619
2430.10308	0.02617
2428.81731	0.02627
2427.53155	0.02650
2426.24578	0.02677
2424.96001	0.02690
2423.67424	0.02679
2422.38847	0.02651
2421.10270	0.02628
2419.81693	0.02626
2418.53116	0.02634
2417.24539	0.02631
2415.95963	0.02612
2414.67386	0.02585
2413.38809	0.02565
2412.10232	0.02555
2410.81655	0.02557
2409.53078	0.02567
2408.24501	0.02577
2406.95924	0.02590
2405.67347	0.02612
2404.38771	0.02646
2403.10194	0.02674
2401.81617	0.02678
2400.53040	0.02656
2399.24463	0.02621
2397.95886	0.02618
2396.67309	0.02622
2395.38732	0.02611
2394.10156	0.02590
2392.81579	0.02581
2391.53002	0.02600
2390.24425	0.02640
2388.95848	0.02679
2387.67271	0.02701
2386.38694	0.02704
2385.10117	0.02693
2383.81540	0.02672
2382.52964	0.02654
2381.24387	0.02656
2379.95810	0.02687
2378.67233	0.02736
2377.38656	0.02785
2376.10079	0.02821
2374.81502	0.02831
2373.52925	0.02849
2372.24349	0.02878
2370.95772	0.02948
2369.67195	0.02995
2368.38618	0.03026
2367.10041	0.03065
2365.81464	0.03142
2364.52887	0.03165
2363.24310	0.03163
2361.95733	0.03185
2360.67157	0.03277
2359.38580	0.03316
2358.10003	0.03318
2356.81426	0.03303
2355.52849	0.03271
2354.24272	0.03221
2352.95695	0.03126
2351.67118	0.03066
2350.38542	0.03063
2349.09965	0.03010
2347.81388	0.02867
2346.52811	0.02843
2345.24234	0.02954
2343.95657	0.03022
2342.67080	0.02953
2341.38503	0.02995
2340.09926	0.03199
2338.81350	0.03224
2337.52773	0.03042
2336.24196	0.03061
2334.95619	0.03240
2333.67042	0.03163
2332.38465	0.02884
2331.09888	0.02988
2329.81311	0.03149
2328.52735	0.02916
2327.24158	0.03000
2325.95581	0.03241
2324.67004	0.03074
2323.38427	0.02998
2322.09850	0.03113
2320.81273	0.02889
2319.52696	0.02823
2318.24119	0.02874
2316.95543	0.02700
2315.66966	0.02655
2314.38389	0.02654
2313.09812	0.02539
2311.81235	0.02548
2310.52658	0.02525
2309.24081	0.02520
2307.95504	0.02585
2306.66928	0.02559
2305.38351	0.02541
2304.09774	0.02504
2302.81197	0.02453
2301.52620	0.02445
2300.24043	0.02431
2298.95466	0.02444
2297.66889	0.02461
2296.38312	0.02475
2295.09736	0.02485
2293.81159	0.02471
2292.52582	0.02456
2291.24005	0.02430
2289.95428	0.02401
2288.66851	0.02363
2287.38274	0.02324
2286.09697	0.02302
2284.81121	0.02305
2283.52544	0.02324
2282.23967	0.02338
2280.95390	0.02335
2279.66813	0.02312
2278.38236	0.02271
2277.09659	0.02217
2275.81082	0.02169
2274.52505	0.02142
2273.23929	0.02138
2271.95352	0.02143
2270.66775	0.02140
2269.38198	0.02111
2268.09621	0.02054
2266.81044	0.02000
2265.52467	0.01993
2264.23890	0.02049
2262.95314	0.02146
2261.66737	0.02225
2260.38160	0.02228
2259.09583	0.02158
2257.81006	0.02077
2256.52429	0.02035
2255.23852	0.02030
2253.95275	0.02040
2252.66698	0.02042
2251.38122	0.02029
2250.09545	0.01996
2248.80968	0.01919
2247.52391	0.01847
2246.23814	0.01780
2244.95237	0.01749
2243.66660	0.01768
2242.38083	0.01815
2241.09507	0.01847
2239.80930	0.01837
2238.52353	0.01791
2237.23776	0.01739
2235.95199	0.01715
2234.66622	0.01736
2233.38045	0.01783
2232.09468	0.01796
2230.80891	0.01713
2229.52315	0.01538
2228.23738	0.01362
2226.95161	0.01283
2225.66584	0.01309
2224.38007	0.01353
2223.09430	0.01343
2221.80853	0.01302
2220.52276	0.01296
2219.23700	0.01345
2217.95123	0.01405
2216.66546	0.01446
2215.37969	0.01494
2214.09392	0.01570
2212.80815	0.01642
2211.52238	0.01662
2210.23661	0.01640
2208.95084	0.01637
2207.66508	0.01670
2206.37931	0.01689
2205.09354	0.01640
2203.80777	0.01548
2202.52200	0.01487
2201.23623	0.01487
2199.95046	0.01501
2198.66469	0.01465
2197.37893	0.01369
2196.09316	0.01262
2194.80739	0.01195
2193.52162	0.01196
2192.23585	0.01263
2190.95008	0.01362
2189.66431	0.01438
2188.37854	0.01448
2187.09277	0.01408
2185.80701	0.01368
2184.52124	0.01354
2183.23547	0.01352
2181.94970	0.01357
2180.66393	0.01381
2179.37816	0.01412
2178.09239	0.01411
2176.80662	0.01363
2175.52085	0.01304
2174.23509	0.01280
2172.94932	0.01287
2171.66355	0.01288
2170.37778	0.01257
2169.09201	0.01197
2167.80624	0.01116
2166.52047	0.01017
2165.23470	0.00920
2163.94894	0.00860
2162.66317	0.00846
2161.37740	0.00854
2160.09163	0.00859
2158.80586	0.00872
2157.52009	0.00902
2156.23432	0.00926
2154.94855	0.00911
2153.66278	0.00862
2152.37702	0.00828
2151.09125	0.00863
2149.80548	0.00973
2148.51971	0.01106
2147.23394	0.01202
2145.94817	0.01249
2144.66240	0.01277
2143.37663	0.01306
2142.09087	0.01323
2140.80510	0.01323
2139.51933	0.01320
2138.23356	0.01331
2136.94779	0.01354
2135.66202	0.01378
2134.37625	0.01396
2133.09048	0.01407
2131.80471	0.01417
2130.51895	0.01435
2129.23318	0.01460
2127.94741	0.01471
2126.66164	0.01444
2125.37587	0.01394
2124.09010	0.01363
2122.80433	0.01383
2121.51856	0.01437
2120.23280	0.01484
2118.94703	0.01495
2117.66126	0.01483
2116.37549	0.01473
2115.08972	0.01479
2113.80395	0.01490
2112.51818	0.01488
2111.23241	0.01468
2109.94664	0.01444
2108.66088	0.01435
2107.37511	0.01451
2106.08934	0.01481
2104.80357	0.01500
2103.51780	0.01487
2102.23203	0.01434
2100.94626	0.01352
2099.66049	0.01285
2098.37473	0.01230
2097.08896	0.01212
2095.80319	0.01233
2094.51742	0.01272
2093.23165	0.01315
2091.94588	0.01355
2090.66011	0.01384
2089.37434	0.01395
2088.08857	0.01387
2086.80281	0.01366
2085.51704	0.01339
2084.23127	0.01306
2082.94550	0.01264
2081.65973	0.01210
2080.37396	0.01149
2079.08819	0.01101
2077.80242	0.01089
2076.51666	0.01115
2075.23089	0.01159
2073.94512	0.01196
2072.65935	0.01209
2071.37358	0.01193
2070.08781	0.01155
2068.80204	0.01105
2067.51627	0.01062
2066.23050	0.01047
2064.94474	0.01067
2063.65897	0.01110
2062.37320	0.01157
2061.08743	0.01198
2059.80166	0.01230
2058.51589	0.01239
2057.23012	0.01201
2055.94435	0.01115
2054.65859	0.01013
2053.37282	0.00927
2052.08705	0.00859
2050.80128	0.00779
2049.51551	0.00673
2048.22974	0.00567
2046.94397	0.00520
2045.65820	0.00568
2044.37243	0.00686
2043.08667	0.00785
2041.80090	0.00778
2040.51513	0.00645
2039.22936	0.00456
2037.94359	0.00313
2036.65782	0.00274
2035.37205	0.00327
2034.08628	0.00416
2032.80052	0.00482
2031.51475	0.00492
2030.22898	0.00472
2028.94321	0.00500
2027.65744	0.00637
2026.37167	0.00852
2025.08590	0.01033
2023.80013	0.01076
2022.51436	0.00965
2021.22860	0.00773
2019.94283	0.00598
2018.65706	0.00478
2017.37129	0.00394
2016.08552	0.00328
2014.79975	0.00313
2013.51398	0.00394
2012.22821	0.00559
2010.94245	0.00714
2009.65668	0.00760
2008.37091	0.00681
2007.08514	0.00564
2005.79937	0.00526
2004.51360	0.00608
2003.22783	0.00755
2001.94206	0.00889
2000.65629	0.00974
1999.37053	0.01017
1998.08476	0.01035
1996.79899	0.01041
1995.51322	0.01055
1994.22745	0.01097
1992.94168	0.01167
1991.65591	0.01233
1990.37014	0.01257
1989.08438	0.01227
1987.79861	0.01164
1986.51284	0.01101
1985.22707	0.01068
1983.94130	0.01076
1982.65553	0.01102
1981.36976	0.01098
1980.08399	0.01043
1978.79822	0.00972
1977.51246	0.00945
1976.22669	0.00976
1974.94092	0.01028
1973.65515	0.01057
1972.36938	0.01054
1971.08361	0.01038
1969.79784	0.01026
1968.51207	0.01022
1967.22631	0.01023
1965.94054	0.01021
1964.65477	0.01010
1963.36900	0.00984
1962.08323	0.00950
1960.79746	0.00923
1959.51169	0.00920
1958.22592	0.00948
1956.94015	0.01007
1955.65439	0.01091
1954.36862	0.01182
1953.08285	0.01245
1951.79708	0.01262
1950.51131	0.01245
1949.22554	0.01225
1947.93977	0.01215
1946.65400	0.01198
1945.36823	0.01160
1944.08247	0.01119
1942.79670	0.01110
1941.51093	0.01141
1940.22516	0.01185
1938.93939	0.01220
1937.65362	0.01247
1936.36785	0.01275
1935.08208	0.01291
1933.79632	0.01287
1932.51055	0.01276
1931.22478	0.01290
1929.93901	0.01342
1928.65324	0.01410
1927.36747	0.01451
1926.08170	0.01444
1924.79593	0.01407
1923.51016	0.01380
1922.22440	0.01386
1920.93863	0.01415
1919.65286	0.01437
1918.36709	0.01441
1917.08132	0.01439
1915.79555	0.01440
1914.50978	0.01447
1913.22401	0.01456
1911.93825	0.01462
1910.65248	0.01468
1909.36671	0.01473
1908.08094	0.01476
1906.79517	0.01470
1905.50940	0.01458
1904.22363	0.01447
1902.93786	0.01443
1901.65209	0.01444
1900.36633	0.01443
1899.08056	0.01440
1897.79479	0.01441
1896.50902	0.01450
1895.22325	0.01459
1893.93748	0.01456
1892.65171	0.01435
1891.36594	0.01405
1890.08018	0.01390
1888.79441	0.01402
1887.50864	0.01431
1886.22287	0.01451
1884.93710	0.01446
1883.65133	0.01423
1882.36556	0.01399
1881.07979	0.01384
1879.79402	0.01379
1878.50826	0.01376
1877.22249	0.01376
1875.93672	0.01380
1874.65095	0.01391
1873.36518	0.01407
1872.07941	0.01423
1870.79364	0.01433
1869.50787	0.01439
1868.22211	0.01443
1866.93634	0.01444
1865.65057	0.01444
1864.36480	0.01450
1863.07903	0.01461
1861.79326	0.01472
1860.50749	0.01477
1859.22172	0.01474
1857.93595	0.01467
1856.65019	0.01461
1855.36442	0.01461
1854.07865	0.01466
1852.79288	0.01470
1851.50711	0.01470
1850.22134	0.01471
1848.93557	0.01476
1847.64980	0.01480
1846.36404	0.01471
1845.07827	0.01453
1843.79250	0.01440
1842.50673	0.01444
1841.22096	0.01455
1839.93519	0.01460
1838.64942	0.01456
1837.36365	0.01444
1836.07788	0.01432
1834.79212	0.01427
1833.50635	0.01433
1832.22058	0.01449
1830.93481	0.01472
1829.64904	0.01497
1828.36327	0.01515
1827.07750	0.01515
1825.79173	0.01501
1824.50597	0.01490
1823.22020	0.01490
1821.93443	0.01498
1820.64866	0.01505
1819.36289	0.01508
1818.07712	0.01509
1816.79135	0.01511
1815.50558	0.01511
1814.21981	0.01508
1812.93405	0.01500
1811.64828	0.01490
1810.36251	0.01479
1809.07674	0.01470
1807.79097	0.01463
1806.50520	0.01465
1805.21943	0.01476
1803.93366	0.01490
1802.64790	0.01498
1801.36213	0.01495
1800.07636	0.01481
1798.79059	0.01461
1797.50482	0.01443
1796.21905	0.01433
1794.93328	0.01435
1793.64751	0.01446
1792.36174	0.01462
1791.07598	0.01477
1789.79021	0.01483
1788.50444	0.01479
1787.21867	0.01473
1785.93290	0.01470
1784.64713	0.01469
1783.36136	0.01468
1782.07559	0.01463
1780.78983	0.01457
1779.50406	0.01456
1778.21829	0.01462
1776.93252	0.01471
1775.64675	0.01479
1774.36098	0.01477
1773.07521	0.01472
1771.78944	0.01477
1770.50367	0.01489
1769.21791	0.01498
1767.93214	0.01502
1766.64637	0.01504
1765.36060	0.01501
1764.07483	0.01492
1762.78906	0.01484
1761.50329	0.01484
1760.21752	0.01485
1758.93176	0.01477
1757.64599	0.01460
1756.36022	0.01448
1755.07445	0.01444
1753.78868	0.01432
1752.50291	0.01405
1751.21714	0.01373
1749.93137	0.01345
1748.64560	0.01320
1747.35984	0.01290
1746.07407	0.01257
1744.78830	0.01223
1743.50253	0.01193
1742.21676	0.01170
1740.93099	0.01154
1739.64522	0.01152
1738.35945	0.01165
1737.07369	0.01183
1735.78792	0.01195
1734.50215	0.01214
1733.21638	0.01257
1731.93061	0.01310
1730.64484	0.01344
1729.35907	0.01352
1728.07330	0.01354
1726.78753	0.01365
1725.50177	0.01391
1724.21600	0.01429
1722.93023	0.01473
1721.64446	0.01512
1720.35869	0.01538
1719.07292	0.01555
1717.78715	0.01579
1716.50138	0.01622
1715.21561	0.01670
1713.92985	0.01712
1712.64408	0.01752
1711.35831	0.01803
1710.07254	0.01867
1708.78677	0.01937
1707.50100	0.02003
1706.21523	0.02069
1704.92946	0.02143
1703.64370	0.02227
1702.35793	0.02312
1701.07216	0.02408
1699.78639	0.02532
1698.50062	0.02669
1697.21485	0.02789
1695.92908	0.02893
1694.64331	0.03009
1693.35754	0.03128
1692.07178	0.03235
1690.78601	0.03337
1689.50024	0.03454
1688.21447	0.03583
1686.92870	0.03706
1685.64293	0.03823
1684.35716	0.03953
1683.07139	0.04100
1681.78563	0.04238
1680.49986	0.04355
1679.21409	0.04466
1677.92832	0.04579
1676.64255	0.04692
1675.35678	0.04805
1674.07101	0.04922
1672.78524	0.05040
1671.49947	0.05150
1670.21371	0.05254
1668.92794	0.05356
1667.64217	0.05456
1666.35640	0.05550
1665.07063	0.05640
1663.78486	0.05731
1662.49909	0.05829
1661.21332	0.05927
1659.92756	0.06016
1658.64179	0.06097
1657.35602	0.06176
1656.07025	0.06248
1654.78448	0.06306
1653.49871	0.06367
1652.21294	0.06448
1650.92717	0.06532
1649.64140	0.06583
1648.35564	0.06598
1647.06987	0.06605
1645.78410	0.06622
1644.49833	0.06641
1643.21256	0.06650
1641.92679	0.06646
1640.64102	0.06635
1639.35525	0.06617
1638.06949	0.06586
1636.78372	0.06542
1635.49795	0.06499
1634.21218	0.06462
1632.92641	0.06420
1631.64064	0.06360
1630.35487	0.06284
1629.06910	0.06203
1627.78333	0.06121
1626.49757	0.06040
1625.21180	0.05957
1623.92603	0.05876
1622.64026	0.05801
1621.35449	0.05727
1620.06872	0.05644
1618.78295	0.05548
1617.49718	0.05453
1616.21142	0.05378
1614.92565	0.05319
1613.63988	0.05254
1612.35411	0.05178
1611.06834	0.05106
1609.78257	0.05046
1608.49680	0.04997
1607.21103	0.04956
1605.92526	0.04917
1604.63950	0.04880
1603.35373	0.04841
1602.06796	0.04803
1600.78219	0.04771
1599.49642	0.04749
1598.21065	0.04740
1596.92488	0.04738
1595.63911	0.04740
1594.35335	0.04744
1593.06758	0.04753
1591.78181	0.04765
1590.49604	0.04780
1589.21027	0.04794
1587.92450	0.04812
1586.63873	0.04838
1585.35296	0.04872
1584.06719	0.04910
1582.78143	0.04949
1581.49566	0.04989
1580.20989	0.05030
1578.92412	0.05066
1577.63835	0.05096
1576.35258	0.05133
1575.06681	0.05192
1573.78104	0.05258
1572.49528	0.05309
1571.20951	0.05343
1569.92374	0.05378
1568.63797	0.05422
1567.35220	0.05469
1566.06643	0.05512
1564.78066	0.05554
1563.49489	0.05601
1562.20912	0.05641
1560.92336	0.05668
1559.63759	0.05697
1558.35182	0.05746
1557.06605	0.05802
1555.78028	0.05839
1554.49451	0.05856
1553.20874	0.05872
1551.92297	0.05893
1550.63721	0.05912
1549.35144	0.05930
1548.06567	0.05946
1546.77990	0.05955
1545.49413	0.05953
1544.20836	0.05942
1542.92259	0.05923
1541.63682	0.05896
1540.35105	0.05867
1539.06529	0.05849
1537.77952	0.05840
1536.49375	0.05821
1535.20798	0.05786
1533.92221	0.05749
1532.63644	0.05725
1531.35067	0.05708
1530.06490	0.05690
1528.77914	0.05672
1527.49337	0.05662
1526.20760	0.05662
1524.92183	0.05670
1523.63606	0.05675
1522.35029	0.05675
1521.06452	0.05681
1519.77875	0.05697
1518.49298	0.05713
1517.20722	0.05726
1515.92145	0.05747
1514.63568	0.05776
1513.34991	0.05807
1512.06414	0.05841
1510.77837	0.05881
1509.49260	0.05918
1508.20683	0.05950
1506.92107	0.05986
1505.63530	0.06042
1504.34953	0.06104
1503.06376	0.06149
1501.77799	0.06176
1500.49222	0.06201
1499.20645	0.06234
1497.92068	0.06268
1496.63491	0.06299
1495.34915	0.06329
1494.06338	0.06357
1492.77761	0.06381
1491.49184	0.06405
1490.20607	0.06440
1488.92030	0.06488
1487.63453	0.06545
1486.34876	0.06609
1485.06299	0.06682
1483.77723	0.06765
1482.49146	0.06854
1481.20569	0.06949
1479.91992	0.07048
1478.63415	0.07147
1477.34838	0.07245
1476.06261	0.07341
1474.77684	0.07431
1473.49108	0.07513
1472.20531	0.07589
1470.91954	0.07659
1469.63377	0.07719
1468.34800	0.07764
1467.06223	0.07799
1465.77646	0.07835
1464.49069	0.07880
1463.20492	0.07937
1461.91916	0.08006
1460.63339	0.08083
1459.34762	0.08162
1458.06185	0.08241
1456.77608	0.08326
1455.49031	0.08416
1454.20454	0.08490
1452.91877	0.08539
1451.63301	0.08567
1450.34724	0.08582
1449.06147	0.08584
1447.77570	0.08573
1446.48993	0.08556
1445.20416	0.08535
1443.91839	0.08514
1442.63262	0.08495
1441.34685	0.08482
1440.06109	0.08471
1438.77532	0.08457
1437.48955	0.08445
1436.20378	0.08449
1434.91801	0.08472
1433.63224	0.08508
1432.34647	0.08552
1431.06070	0.08611
1429.77494	0.08689
1428.48917	0.08785
1427.20340	0.08890
1425.91763	0.08999
1424.63186	0.09113
1423.34609	0.09233
1422.06032	0.09352
1420.77455	0.09461
1419.48878	0.09561
1418.20302	0.09653
1416.91725	0.09727
1415.63148	0.09777
1414.34571	0.09808
1413.05994	0.09827
1411.77417	0.09832
1410.48840	0.09817
1409.20263	0.09779
1407.91687	0.09718
1406.63110	0.09633
1405.34533	0.09526
1404.05956	0.09403
1402.77379	0.09268
1401.48802	0.09122
1400.20225	0.08965
1398.91648	0.08796
1397.63071	0.08616
1396.34495	0.08424
1395.05918	0.08227
1393.77341	0.08035
1392.48764	0.07846
1391.20187	0.07656
1389.91610	0.07465
1388.63033	0.07275
1387.34456	0.07091
1386.05880	0.06910
1384.77303	0.06729
1383.48726	0.06544
1382.20149	0.06354
1380.91572	0.06161
1379.62995	0.05970
1378.34418	0.05787
1377.05841	0.05615
1375.77264	0.05451
1374.48688	0.05295
1373.20111	0.05145
1371.91534	0.05002
1370.62957	0.04863
1369.34380	0.04730
1368.05803	0.04606
1366.77226	0.04491
1365.48649	0.04379
1364.20073	0.04272
1362.91496	0.04171
1361.62919	0.04078
1360.34342	0.03992
1359.05765	0.03912
1357.77188	0.03840
1356.48611	0.03777
1355.20034	0.03725
1353.91457	0.03680
1352.62881	0.03641
1351.34304	0.03606
1350.05727	0.03572
1348.77150	0.03540
1347.48573	0.03507
1346.19996	0.03476
1344.91419	0.03447
1343.62842	0.03423
1342.34266	0.03399
1341.05689	0.03371
1339.77112	0.03341
1338.48535	0.03313
1337.19958	0.03287
1335.91381	0.03263
1334.62804	0.03238
1333.34227	0.03211
1332.05650	0.03184
1330.77074	0.03158
1329.48497	0.03129
1328.19920	0.03096
1326.91343	0.03059
1325.62766	0.03022
1324.34189	0.02990
1323.05612	0.02961
1321.77035	0.02937
1320.48459	0.02915
1319.19882	0.02895
1317.91305	0.02875
1316.62728	0.02853
1315.34151	0.02829
1314.05574	0.02803
1312.76997	0.02776
1311.48420	0.02748
1310.19843	0.02721
1308.91267	0.02697
1307.62690	0.02677
1306.34113	0.02657
1305.05536	0.02633
1303.76959	0.02603
1302.48382	0.02570
1301.19805	0.02538
1299.91228	0.02511
1298.62652	0.02490
1297.34075	0.02474
1296.05498	0.02462
1294.76921	0.02453
1293.48344	0.02445
1292.19767	0.02436
1290.91190	0.02427
1289.62613	0.02418
1288.34036	0.02411
1287.05460	0.02407
1285.76883	0.02406
1284.48306	0.02406
1283.19729	0.02405
1281.91152	0.02403
1280.62575	0.02396
1279.33998	0.02383
1278.05421	0.02366
1276.76845	0.02352
1275.48268	0.02345
1274.19691	0.02343
1272.91114	0.02345
1271.62537	0.02345
1270.33960	0.02342
1269.05383	0.02339
1267.76806	0.02332
1266.48229	0.02323
1265.19653	0.02310
1263.91076	0.02295
1262.62499	0.02282
1261.33922	0.02272
1260.05345	0.02268
1258.76768	0.02273
1257.48191	0.02285
1256.19614	0.02303
1254.91037	0.02321
1253.62461	0.02337
1252.33884	0.02348
1251.05307	0.02357
1249.76730	0.02367
1248.48153	0.02379
1247.19576	0.02391
1245.90999	0.02402
1244.62422	0.02410
1243.33846	0.02416
1242.05269	0.02420
1240.76692	0.02421
1239.48115	0.02420
1238.19538	0.02417
1236.90961	0.02416
1235.62384	0.02418
1234.33807	0.02423
1233.05230	0.02428
1231.76654	0.02430
1230.48077	0.02429
1229.19500	0.02424
1227.90923	0.02417
1226.62346	0.02410
1225.33769	0.02402
1224.05192	0.02396
1222.76615	0.02393
1221.48039	0.02396
1220.19462	0.02402
1218.90885	0.02409
1217.62308	0.02414
1216.33731	0.02415
1215.05154	0.02417
1213.76577	0.02424
1212.48000	0.02437
1211.19423	0.02453
1209.90847	0.02468
1208.62270	0.02478
1207.33693	0.02489
1206.05116	0.02505
1204.76539	0.02529
1203.47962	0.02558
1202.19385	0.02584
1200.90808	0.02603
1199.62232	0.02607
1198.33655	0.02610
1197.05078	0.02613
1195.76501	0.02618
1194.47924	0.02628
1193.19347	0.02640
1191.90770	0.02650
1190.62193	0.02655
1189.33616	0.02652
1188.05040	0.02641
1186.76463	0.02625
1185.47886	0.02610
1184.19309	0.02598
1182.90732	0.02590
1181.62155	0.02587
1180.33578	0.02587
1179.05001	0.02589
1177.76425	0.02596
1176.47848	0.02604
1175.19271	0.02611
1173.90694	0.02618
1172.62117	0.02628
1171.33540	0.02642
1170.04963	0.02659
1168.76386	0.02678
1167.47809	0.02701
1166.19233	0.02727
1164.90656	0.02754
1163.62079	0.02780
1162.33502	0.02809
1161.04925	0.02839
1159.76348	0.02869
1158.47771	0.02896
1157.19194	0.02924
1155.90618	0.02955
1154.62041	0.02990
1153.33464	0.03025
1152.04887	0.03056
1150.76310	0.03088
1149.47733	0.03122
1148.19156	0.03162
1146.90579	0.03208
1145.62002	0.03262
1144.33426	0.03324
1143.04849	0.03392
1141.76272	0.03465
1140.47695	0.03542
1139.19118	0.03624
1137.90541	0.03713
1136.61964	0.03811
1135.33387	0.03921
1134.04811	0.04045
1132.76234	0.04186
1131.47657	0.04343
1130.19080	0.04515
1128.90503	0.04704
1127.61926	0.04913
1126.33349	0.05144
1125.04772	0.05392
1123.76195	0.05652
1122.47619	0.05920
1121.19042	0.06196
1119.90465	0.06482
1118.61888	0.06781
1117.33311	0.07085
1116.04734	0.07386
1114.76157	0.07682
1113.47580	0.07979
1112.19004	0.08281
1110.90427	0.08587
1109.61850	0.08884
1108.33273	0.09169
1107.04696	0.09445
1105.76119	0.09718
1104.47542	0.09992
1103.18965	0.10268
1101.90388	0.10543
1100.61812	0.10814
1099.33235	0.11080
1098.04658	0.11343
1096.76081	0.11600
1095.47504	0.11846
1094.18927	0.12077
1092.90350	0.12291
1091.61773	0.12489
1090.33197	0.12675
1089.04620	0.12851
1087.76043	0.13024
1086.47466	0.13204
1085.18889	0.13390
1083.90312	0.13580
1082.61735	0.13773
1081.33158	0.13975
1080.04581	0.14190
1078.76005	0.14417
1077.47428	0.14651
1076.18851	0.14892
1074.90274	0.15146
1073.61697	0.15418
1072.33120	0.15706
1071.04543	0.16003
1069.75966	0.16306
1068.47390	0.16614
1067.18813	0.16928
1065.90236	0.17246
1064.61659	0.17565
1063.33082	0.17886
1062.04505	0.18209
1060.75928	0.18534
1059.47351	0.18861
1058.18774	0.19186
1056.90198	0.19509
1055.61621	0.19828
1054.33044	0.20147
1053.04467	0.20470
1051.75890	0.20796
1050.47313	0.21124
1049.18736	0.21454
1047.90159	0.21787
1046.61583	0.22125
1045.33006	0.22467
1044.04429	0.22809
1042.75852	0.23150
1041.47275	0.23492
1040.18698	0.23841
1038.90121	0.24197
1037.61544	0.24558
1036.32967	0.24917
1035.04391	0.25267
1033.75814	0.25602
1032.47237	0.25917
1031.18660	0.26211
1029.90083	0.26486
1028.61506	0.26743
1027.32929	0.26973
1026.04352	0.27166
1024.75775	0.27316
1023.47199	0.27426
1022.18622	0.27500
1020.90045	0.27538
1019.61468	0.27535
1018.32891	0.27491
1017.04314	0.27405
1015.75737	0.27279
1014.47160	0.27115
1013.18584	0.26910
1011.90007	0.26660
1010.61430	0.26358
1009.32853	0.26001
1008.04276	0.25595
1006.75699	0.25147
1005.47122	0.24663
1004.18545	0.24143
1002.89968	0.23590
1001.61392	0.23005
1000.32815	0.22395
999.04238	0.21767
997.75661	0.21125
996.47084	0.20476
995.18507	0.19829
993.89930	0.19190
992.61353	0.18561
991.32777	0.17945
990.04200	0.17347
988.75623	0.16771
987.47046	0.16211
986.18469	0.15660
984.89892	0.15116
983.61315	0.14587
982.32738	0.14081
981.04161	0.13600
979.75585	0.13140
978.47008	0.12705
977.18431	0.12299
975.89854	0.11926
974.61277	0.11589
973.32700	0.11292
972.04123	0.11038
970.75546	0.10837
969.46970	0.10697
968.18393	0.10625
966.89816	0.10618
965.61239	0.10658
964.32662	0.10720
963.04085	0.10782
961.75508	0.10828
960.46931	0.10841
959.18354	0.10797
957.89778	0.10684
956.61201	0.10503
955.32624	0.10274
954.04047	0.10024
952.75470	0.09771
951.46893	0.09523
950.18316	0.09274
948.89739	0.09018
947.61163	0.08761
946.32586	0.08515
945.04009	0.08290
943.75432	0.08084
942.46855	0.07889
941.18278	0.07694
939.89701	0.07494
938.61124	0.07291
937.32547	0.07095
936.03971	0.06916
934.75394	0.06756
933.46817	0.06611
932.18240	0.06472
930.89663	0.06338
929.61086	0.06208
928.32509	0.06083
927.03932	0.05964
925.75356	0.05857
924.46779	0.05763
923.18202	0.05681
921.89625	0.05601
920.61048	0.05518
919.32471	0.05437
918.03894	0.05364
916.75317	0.05301
915.46740	0.05240
914.18164	0.05173
912.89587	0.05096
911.61010	0.05016
910.32433	0.04948
909.03856	0.04895
907.75279	0.04848
906.46702	0.04794
905.18125	0.04733
903.89549	0.04673
902.60972	0.04620
901.32395	0.04569
900.03818	0.04518
898.75241	0.04467
897.46664	0.04419
896.18087	0.04375
894.89510	0.04335
893.60933	0.04300
892.32357	0.04274
891.03780	0.04260
889.75203	0.04258
888.46626	0.04274
887.18049	0.04316
885.89472	0.04396
884.60895	0.04527
883.32318	0.04719
882.03742	0.04958
880.75165	0.05207
879.46588	0.05420
878.18011	0.05583
876.89434	0.05719
875.60857	0.05865
874.32280	0.06023
873.03703	0.06157
871.75126	0.06229
870.46550	0.06219
869.17973	0.06130
867.89396	0.05979
866.60819	0.05787
865.32242	0.05575
864.03665	0.05358
862.75088	0.05151
861.46511	0.04967
860.17935	0.04811
858.89358	0.04680
857.60781	0.04565
856.32204	0.04463
855.03627	0.04374
853.75050	0.04295
852.46473	0.04226
851.17896	0.04168
849.89319	0.04119
848.60743	0.04077
847.32166	0.04037
846.03589	0.03998
844.75012	0.03960
843.46435	0.03921
842.17858	0.03880
840.89281	0.03840
839.60704	0.03803
838.32128	0.03770
837.03551	0.03741
835.74974	0.03713
834.46397	0.03687
833.17820	0.03663
831.89243	0.03643
830.60666	0.03625
829.32089	0.03609
828.03512	0.03592
826.74936	0.03574
825.46359	0.03557
824.17782	0.03543
822.89205	0.03529
821.60628	0.03511
820.32051	0.03492
819.03474	0.03478
817.74897	0.03471
816.46321	0.03470
815.17744	0.03475
813.89167	0.03484
812.60590	0.03493
811.32013	0.03499
810.03436	0.03500
808.74859	0.03498
807.46282	0.03491
806.17705	0.03478
804.89129	0.03464
803.60552	0.03453
802.31975	0.03451
801.03398	0.03455
799.74821	0.03456
798.46244	0.03448
797.17667	0.03435
795.89090	0.03426
794.60513	0.03428
793.31937	0.03437
792.03360	0.03443
790.74783	0.03441
789.46206	0.03433
788.17629	0.03423
786.89052	0.03415
785.60475	0.03407
784.31898	0.03401
783.03322	0.03402
781.74745	0.03409
780.46168	0.03420
779.17591	0.03427
777.89014	0.03428
776.60437	0.03423
775.31860	0.03417
774.03283	0.03412
772.74706	0.03410
771.46130	0.03412
770.17553	0.03420
768.88976	0.03433
767.60399	0.03448
766.31822	0.03460
765.03245	0.03459
763.74668	0.03446
762.46091	0.03429
761.17515	0.03421
759.88938	0.03427
758.60361	0.03445
757.31784	0.03463
756.03207	0.03474
754.74630	0.03475
753.46053	0.03470
752.17476	0.03462
750.88899	0.03455
749.60323	0.03447
748.31746	0.03440
747.03169	0.03433
745.74592	0.03428
744.46015	0.03423
743.17438	0.03412
741.88861	0.03400
740.60284	0.03395
739.31708	0.03405
738.03131	0.03419
736.74554	0.03425
735.45977	0.03423
734.17400	0.03426
732.88823	0.03442
731.60246	0.03461
730.31669	0.03469
729.03092	0.03461
727.74516	0.03452
726.45939	0.03452
725.17362	0.03467
723.88785	0.03486
722.60208	0.03496
721.31631	0.03489
720.03054	0.03473
718.74477	0.03463
717.45901	0.03459
716.17324	0.03466
714.88747	0.03478
713.60170	0.03491
712.31593	0.03499
711.03016	0.03501
709.74439	0.03499
708.45862	0.03495
707.17285	0.03490
705.88709	0.03485
704.60132	0.03481
703.31555	0.03479
702.02978	0.03480
700.74401	0.03483
699.45824	0.03485
698.17247	0.03483
696.88670	0.03478
695.60094	0.03474
694.31517	0.03475
693.02940	0.03478
691.74363	0.03483
690.45786	0.03489
689.17209	0.03498
687.88632	0.03512
686.60055	0.03524
685.31478	0.03528
684.02902	0.03522
682.74325	0.03509
681.45748	0.03494
680.17171	0.03479
678.88594	0.03468
677.60017	0.03464
676.31440	0.03468
675.02863	0.03476
673.74287	0.03487
672.45710	0.03508
671.17133	0.03561
669.88556	0.03622
668.59979	0.03584
667.31402	0.03577
666.02825	0.03666
664.74248	0.03608
663.45671	0.03540
662.17095	0.03512
660.88518	0.03503
659.59941	0.03504
658.31364	0.03512
657.02787	0.03522
655.74210	0.03532
654.45633	0.03544
653.17056	0.03554
651.88480	0.03567
650.59903	0.03583
649.31326	0.03598
648.02749	0.03610
646.74172	0.03615
645.45595	0.03616
644.17018	0.03622
642.88441	0.03635
641.59864	0.03653
640.31288	0.03670
639.02711	0.03686
637.74134	0.03699
636.45557	0.03712
635.16980	0.03725
633.88403	0.03739
632.59826	0.03761
631.31249	0.03800
630.02673	0.03865
628.74096	0.03915
627.45519	0.03914
626.16942	0.03968
624.88365	0.04081
623.59788	0.04239
622.31211	0.04450
621.02634	0.04724
619.74057	0.05055
618.45481	0.05423
617.16904	0.05813
615.88327	0.06219
614.59750	0.06617
613.31173	0.06971
612.02596	0.07304
610.74019	0.07733
609.45442	0.08356
608.16866	0.09106
606.88289	0.09813
605.59712	0.10393
604.31135	0.10854
603.02558	0.11174
601.73981	0.11276
600.45404	0.11128
599.16827	0.10798
597.88250	0.10395
596.59674	0.09998
595.31097	0.09637
594.02520	0.09318
592.73943	0.09051
591.45366	0.08854
590.16789	0.08739
588.88212	0.08704
587.59635	0.08735
586.31059	0.08820
585.02482	0.08953
583.73905	0.09129
582.45328	0.09339
581.16751	0.09577
579.88174	0.09846
578.59597	0.10148
577.31020	0.10471
576.02443	0.10787
574.73867	0.11072
573.45290	0.11328
572.16713	0.11575
570.88136	0.11840
569.59559	0.12138
568.30982	0.12469
567.02405	0.12832
565.73828	0.13216
564.45251	0.13589
563.16675	0.13899
561.88098	0.14088
560.59521	0.14108
559.30944	0.13933
558.02367	0.13571
556.73790	0.13068
555.45213	0.12485
554.16636	0.11866
552.88060	0.11237
551.59483	0.10620
550.30906	0.10035
549.02329	0.09502
547.73752	0.09033
546.45175	0.08631
545.16598	0.08289
543.88021	0.07994
542.59444	0.07726
541.30868	0.07467
540.02291	0.07213
538.73714	0.06973
537.45137	0.06756
536.16560	0.06563
534.87983	0.06387
533.59406	0.06226
532.30829	0.06076
531.02253	0.05938
529.73676	0.05805
528.45099	0.05669
527.16522	0.05531
525.87945	0.05398
524.59368	0.05283
523.30791	0.05190
522.02214	0.05108
520.73637	0.05019
519.45061	0.04919
518.16484	0.04813
516.87907	0.04710
515.59330	0.04617
514.30753	0.04534
513.02176	0.04459
511.73599	0.04392
510.45022	0.04330
509.16446	0.04272
507.87869	0.04217
506.59292	0.04164
505.30715	0.04107
504.02138	0.04048
502.73561	0.03992
501.44984	0.03948
500.16407	0.03912
498.87830	0.03878
497.59254	0.03837
496.30677	0.03792
495.02100	0.03746
493.73523	0.03700
492.44946	0.03655
491.16369	0.03612
489.87792	0.03576
488.59215	0.03552
487.30639	0.03541
486.02062	0.03538
484.73485	0.03532
483.44908	0.03518
482.16331	0.03502
480.87754	0.03493
479.59177	0.03496
478.30600	0.03509
477.02023	0.03528
475.73447	0.03548
474.44870	0.03563
473.16293	0.03571
471.87716	0.03568
470.59139	0.03554
469.30562	0.03528
468.01985	0.03491
466.73408	0.03452
465.44832	0.03414
464.16255	0.03379
462.87678	0.03344
461.59101	0.03306
460.30524	0.03267
459.01947	0.03229
457.73370	0.03194
456.44793	0.03163
455.16216	0.03132
453.87640	0.03096
452.59063	0.03055
451.30486	0.03015
450.01909	0.02983
448.73332	0.02961
447.44755	0.02944
446.16178	0.02926
444.87601	0.02903
443.59025	0.02872
442.30448	0.02838
441.01871	0.02808
439.73294	0.02785
438.44717	0.02768
437.16140	0.02751
435.87563	0.02733
434.58986	0.02713
433.30409	0.02695
432.01833	0.02679
430.73256	0.02665
429.44679	0.02651
428.16102	0.02636
426.87525	0.02619
425.58948	0.02599
424.30371	0.02578
423.01794	0.02557
421.73218	0.02535
420.44641	0.02514
419.16064	0.02498
417.87487	0.02484
416.58910	0.02468
415.30333	0.02448
414.01756	0.02427
412.73179	0.02409
411.44602	0.02394
410.16026	0.02383
408.87449	0.02381
407.58872	0.02388
406.30295	0.02400
405.01718	0.02408
403.73141	0.02406
402.44564	0.02395
401.15987	0.02384
399.87411	0.02380
