3997.45528	0.05385
3996.16951	0.05352
3994.88374	0.05277
3993.59798	0.05175
3992.31221	0.05071
3991.02644	0.04988
3989.74067	0.04950
3988.45490	0.04971
3987.16913	0.05024
3985.88336	0.05056
3984.59759	0.05053
3983.31183	0.05055
3982.02606	0.05106
3980.74029	0.05197
3979.45452	0.05274
3978.16875	0.05300
3976.88298	0.05282
3975.59721	0.05252
3974.31144	0.05238
3973.02567	0.05240
3971.73991	0.05232
3970.45414	0.05180
3969.16837	0.05084
3967.88260	0.04986
3966.59683	0.04936
3965.31106	0.04942
3964.02529	0.04970
3962.73952	0.04994
3961.45376	0.05024
3960.16799	0.05073
3958.88222	0.05126
3957.59645	0.05150
3956.31068	0.05142
3955.02491	0.05137
3953.73914	0.05161
3952.45337	0.05200
3951.16760	0.05215
3949.88184	0.05196
3948.59607	0.05165
3947.31030	0.05151
3946.02453	0.05158
3944.73876	0.05172
3943.45299	0.05178
3942.16722	0.05174
3940.88145	0.05165
3939.59569	0.05154
3938.30992	0.05138
3937.02415	0.05111
3935.73838	0.05070
3934.45261	0.05018
3933.16684	0.04960
3931.88107	0.04895
3930.59530	0.04833
3929.30953	0.04805
3928.02377	0.04849
3926.73800	0.04970
3925.45223	0.05123
3924.16646	0.05244
3922.88069	0.05301
3921.59492	0.05312
3920.30915	0.05301
3919.02338	0.05260
3917.73762	0.05172
3916.45185	0.05068
3915.16608	0.05019
3913.88031	0.05068
3912.59454	0.05179
3911.30877	0.05260
3910.02300	0.05255
3908.73723	0.05184
3907.45146	0.05119
3906.16570	0.05108
3904.87993	0.05140
3903.59416	0.05163
3902.30839	0.05141
3901.02262	0.05082
3899.73685	0.05023
3898.45108	0.04982
3897.16531	0.04949
3895.87955	0.04907
3894.59378	0.04856
3893.30801	0.04814
3892.02224	0.04804
3890.73647	0.04837
3889.45070	0.04904
3888.16493	0.04982
3886.87916	0.05036
3885.59339	0.05038
3884.30763	0.04976
3883.02186	0.04874
3881.73609	0.04783
3880.45032	0.04744
3879.16455	0.04751
3877.87878	0.04767
3876.59301	0.04765
3875.30724	0.04750
3874.02148	0.04742
3872.73571	0.04754
3871.44994	0.04792
3870.16417	0.04865
3868.87840	0.04964
3867.59263	0.05047
3866.30686	0.05081
3865.02109	0.05072
3863.73532	0.05043
3862.44956	0.05011
3861.16379	0.04980
3859.87802	0.04950
3858.59225	0.04921
3857.30648	0.04897
3856.02071	0.04890
3854.73494	0.04910
3853.44917	0.04951
3852.16341	0.04977
3850.87764	0.04956
3849.59187	0.04905
3848.30610	0.04866
3847.02033	0.04855
3845.73456	0.04854
3844.44879	0.04843
3843.16302	0.04821
3841.87725	0.04799
3840.59149	0.04777
3839.30572	0.04754
3838.01995	0.04738
3836.73418	0.04737
3835.44841	0.04746
3834.16264	0.04764
3832.87687	0.04802
3831.59110	0.04860
3830.30534	0.04912
3829.01957	0.04925
3827.73380	0.04898
3826.44803	0.04873
3825.16226	0.04888
3823.87649	0.04939
3822.59072	0.04985
3821.30495	0.04999
3820.01918	0.04982
3818.73342	0.04940
3817.44765	0.04876
3816.16188	0.04805
3814.87611	0.04748
3813.59034	0.04709
3812.30457	0.04686
3811.01880	0.04687
3809.73303	0.04711
3808.44726	0.04746
3807.16150	0.04786
3805.87573	0.04823
3804.58996	0.04848
3803.30419	0.04858
3802.01842	0.04868
3800.73265	0.04886
3799.44688	0.04885
3798.16111	0.04844
3796.87535	0.04780
3795.58958	0.04729
3794.30381	0.04692
3793.01804	0.04644
3791.73227	0.04575
3790.44650	0.04500
3789.16073	0.04446
3787.87496	0.04418
3786.58919	0.04396
3785.30343	0.04366
3784.01766	0.04341
3782.73189	0.04351
3781.44612	0.04410
3780.16035	0.04501
3778.87458	0.04589
3777.58881	0.04646
3776.30304	0.04673
3775.01728	0.04685
3773.73151	0.04690
3772.44574	0.04690
3771.15997	0.04691
3769.87420	0.04703
3768.58843	0.04709
3767.30266	0.04679
3766.01689	0.04611
3764.73112	0.04540
3763.44536	0.04493
3762.15959	0.04463
3760.87382	0.04426
3759.58805	0.04377
3758.30228	0.04340
3757.01651	0.04355
3755.73074	0.04440
3754.44497	0.04560
3753.15921	0.04656
3751.87344	0.04684
3750.58767	0.04649
3749.30190	0.04597
3748.01613	0.04575
3746.73036	0.04582
3745.44459	0.04598
3744.15882	0.04617
3742.87305	0.04634
3741.58729	0.04633
3740.30152	0.04617
3739.01575	0.04597
3737.72998	0.04570
3736.44421	0.04541
3735.15844	0.04518
3733.87267	0.04488
3732.58690	0.04431
3731.30114	0.04352
3730.01537	0.04284
3728.72960	0.04252
3727.44383	0.04263
3726.15806	0.04308
3724.87229	0.04376
3723.58652	0.04469
3722.30075	0.04586
3721.01498	0.04707
3719.72922	0.04795
3718.44345	0.04820
3717.15768	0.04786
3715.87191	0.04726
3714.58614	0.04678
3713.30037	0.04662
3712.01460	0.04667
3710.72883	0.04668
3709.44307	0.04643
3708.15730	0.04595
3706.87153	0.04540
3705.58576	0.04487
3704.29999	0.04439
3703.01422	0.04400
3701.72845	0.04384
3700.44268	0.04399
3699.15691	0.04431
3697.87115	0.04454
3696.58538	0.04465
3695.29961	0.04493
3694.01384	0.04559
3692.72807	0.04637
3691.44230	0.04689
3690.15653	0.04696
3688.87076	0.04671
3687.58500	0.04643
3686.29923	0.04633
3685.01346	0.04632
3683.72769	0.04626
3682.44192	0.04613
3681.15615	0.04593
3679.87038	0.04574
3678.58461	0.04545
3677.29884	0.04486
3676.01308	0.04414
3674.72731	0.04385
3673.44154	0.04432
3672.15577	0.04529
3670.87000	0.04608
3669.58423	0.04601
3668.29846	0.04490
3667.01269	0.04326
3665.72693	0.04201
3664.44116	0.04170
3663.15539	0.04219
3661.86962	0.04302
3660.58385	0.04384
3659.29808	0.04459
3658.01231	0.04535
3656.72654	0.04617
3655.44077	0.04690
3654.15501	0.04731
3652.86924	0.04739
3651.58347	0.04735
3650.29770	0.04747
3649.01193	0.04769
3647.72616	0.04777
3646.44039	0.04758
3645.15462	0.04722
3643.86886	0.04694
3642.58309	0.04689
3641.29732	0.04700
3640.01155	0.04718
3638.72578	0.04748
3637.44001	0.04803
3636.15424	0.04880
3634.86847	0.04965
3633.58270	0.05041
3632.29694	0.05096
3631.01117	0.05122
3629.72540	0.05129
3628.43963	0.05147
3627.15386	0.05189
3625.86809	0.05239
3624.58232	0.05269
3623.29655	0.05263
3622.01079	0.05228
3620.72502	0.05197
3619.43925	0.05211
3618.15348	0.05272
3616.86771	0.05328
3615.58194	0.05333
3614.29617	0.05303
3613.01040	0.05294
3611.72463	0.05338
3610.43887	0.05407
3609.15310	0.05453
3607.86733	0.05454
3606.58156	0.05428
3605.29579	0.05405
3604.01002	0.05411
3602.72425	0.05441
3601.43848	0.05474
3600.15272	0.05501
3598.86695	0.05534
3597.58118	0.05582
3596.29541	0.05631
3595.00964	0.05665
3593.72387	0.05688
3592.43810	0.05721
3591.15233	0.05771
3589.86656	0.05824
3588.58080	0.05853
3587.29503	0.05843
3586.00926	0.05818
3584.72349	0.05821
3583.43772	0.05872
3582.15195	0.05952
3580.86618	0.06030
3579.58041	0.06078
3578.29464	0.06089
3577.00888	0.06071
3575.72311	0.06042
3574.43734	0.06025
3573.15157	0.06036
3571.86580	0.06072
3570.58003	0.06121
3569.29426	0.06171
3568.00849	0.06212
3566.72273	0.06230
3565.43696	0.06214
3564.15119	0.06172
3562.86542	0.06138
3561.57965	0.06143
3560.29388	0.06189
3559.00811	0.06253
3557.72234	0.06307
3556.43657	0.06331
3555.15081	0.06326
3553.86504	0.06308
3552.57927	0.06313
3551.29350	0.06376
3550.00773	0.06502
3548.72196	0.06650
3547.43619	0.06753
3546.15042	0.06768
3544.86466	0.06712
3543.57889	0.06639
3542.29312	0.06601
3541.00735	0.06611
3539.72158	0.06653
3538.43581	0.06704
3537.15004	0.06750
3535.86427	0.06791
3534.57850	0.06831
3533.29274	0.06862
3532.00697	0.06870
3530.72120	0.06858
3529.43543	0.06851
3528.14966	0.06873
3526.86389	0.06924
3525.57812	0.06982
3524.29235	0.07027
3523.00659	0.07058
3521.72082	0.07078
3520.43505	0.07079
3519.14928	0.07050
3517.86351	0.07000
3516.57774	0.06964
3515.29197	0.06977
3514.00620	0.07045
3512.72043	0.07135
3511.43467	0.07197
3510.14890	0.07210
3508.86313	0.07189
3507.57736	0.07159
3506.29159	0.07134
3505.00582	0.07118
3503.72005	0.07107
3502.43428	0.07104
3501.14852	0.07107
3499.86275	0.07125
3498.57698	0.07171
3497.29121	0.07262
3496.00544	0.07398
3494.71967	0.07558
3493.43390	0.07699
3492.14813	0.07782
3490.86236	0.07791
3489.57660	0.07741
3488.29083	0.07655
3487.00506	0.07562
3485.71929	0.07485
3484.43352	0.07440
3483.14775	0.07431
3481.86198	0.07452
3480.57621	0.07495
3479.29045	0.07556
3478.00468	0.07622
3476.71891	0.07668
3475.43314	0.07677
3474.14737	0.07663
3472.86160	0.07665
3471.57583	0.07708
3470.29006	0.07781
3469.00429	0.07852
3467.71853	0.07891
3466.43276	0.07884
3465.14699	0.07844
3463.86122	0.07800
3462.57545	0.07789
3461.28968	0.07822
3460.00391	0.07877
3458.71814	0.07918
3457.43238	0.07928
3456.14661	0.07919
3454.86084	0.07913
3453.57507	0.07921
3452.28930	0.07937
3451.00353	0.07960
3449.71776	0.08000
3448.43199	0.08052
3447.14622	0.08092
3445.86046	0.08100
3444.57469	0.08082
3443.28892	0.08070
3442.00315	0.08091
3440.71738	0.08137
3439.43161	0.08180
3438.14584	0.08201
3436.86007	0.08211
3435.57431	0.08234
3434.28854	0.08275
3433.00277	0.08316
3431.71700	0.08336
3430.43123	0.08326
3429.14546	0.08292
3427.85969	0.08258
3426.57392	0.08251
3425.28815	0.08288
3424.00239	0.08353
3422.71662	0.08405
3421.43085	0.08410
3420.14508	0.08370
3418.85931	0.08318
3417.57354	0.08293
3416.28777	0.08307
3415.00200	0.08347
3413.71624	0.08393
3412.43047	0.08433
3411.14470	0.08464
3409.85893	0.08488
3408.57316	0.08507
3407.28739	0.08519
3406.00162	0.08517
3404.71585	0.08502
3403.43008	0.08486
3402.14432	0.08489
3400.85855	0.08515
3399.57278	0.08550
3398.28701	0.08571
3397.00124	0.08568
3395.71547	0.08552
3394.42970	0.08536
3393.14393	0.08535
3391.85817	0.08557
3390.57240	0.08597
3389.28663	0.08632
3388.00086	0.08641
3386.71509	0.08625
3385.42932	0.08608
3384.14355	0.08609
3382.85778	0.08629
3381.57201	0.08664
3380.28625	0.08711
3379.00048	0.08762
3377.71471	0.08805
3376.42894	0.08830
3375.14317	0.08843
3373.85740	0.08850
3372.57163	0.08856
3371.28586	0.08861
3370.00010	0.08860
3368.71433	0.08854
3367.42856	0.08839
3366.14279	0.08813
3364.85702	0.08775
3363.57125	0.08737
3362.28548	0.08724
3360.99971	0.08750
3359.71394	0.08791
3358.42818	0.08804
3357.14241	0.08769
3355.85664	0.08716
3354.57087	0.08701
3353.28510	0.08748
3351.99933	0.08822
3350.71356	0.08869
3349.42779	0.08872
3348.14202	0.08853
3346.85626	0.08837
3345.57049	0.08823
3344.28472	0.08797
3342.99895	0.08757
3341.71318	0.08715
3340.42741	0.08686
3339.14164	0.08679
3337.85587	0.08696
3336.57011	0.08734
3335.28434	0.08788
3333.99857	0.08840
3332.71280	0.08865
3331.42703	0.08847
3330.14126	0.08796
3328.85549	0.08740
3327.56972	0.08704
3326.28395	0.08689
3324.99819	0.08680
3323.71242	0.08660
3322.42665	0.08622
3321.14088	0.08578
3319.85511	0.08556
3318.56934	0.08583
3317.28357	0.08662
3315.99780	0.08749
3314.71204	0.08792
3313.42627	0.08765
3312.14050	0.08698
3310.85473	0.08634
3309.56896	0.08601
3308.28319	0.08592
3306.99742	0.08586
3305.71165	0.08579
3304.42588	0.08577
3303.14012	0.08586
3301.85435	0.08600
3300.56858	0.08612
3299.28281	0.08628
3297.99704	0.08659
3296.71127	0.08698
3295.42550	0.08719
3294.13973	0.08713
3292.85397	0.08698
3291.56820	0.08704
3290.28243	0.08731
3288.99666	0.08757
3287.71089	0.08757
3286.42512	0.08726
3285.13935	0.08668
3283.85358	0.08598
3282.56781	0.08536
3281.28205	0.08497
3279.99628	0.08487
3278.71051	0.08498
3277.42474	0.08518
3276.13897	0.08544
3274.85320	0.08576
3273.56743	0.08604
3272.28166	0.08609
3270.99590	0.08589
3269.71013	0.08561
3268.42436	0.08559
3267.13859	0.08601
3265.85282	0.08672
3264.56705	0.08736
3263.28128	0.08759
3261.99551	0.08733
3260.70974	0.08679
3259.42398	0.08619
3258.13821	0.08559
3256.85244	0.08495
3255.56667	0.08431
3254.28090	0.08386
3252.99513	0.08374
3251.70936	0.08392
3250.42359	0.08421
3249.13783	0.08447
3247.85206	0.08465
3246.56629	0.08472
3245.28052	0.08463
3243.99475	0.08441
3242.70898	0.08419
3241.42321	0.08407
3240.13744	0.08403
3238.85167	0.08397
3237.56591	0.08378
3236.28014	0.08334
3234.99437	0.08258
3233.70860	0.08161
3232.42283	0.08083
3231.13706	0.08063
3229.85129	0.08099
3228.56552	0.08152
3227.27976	0.08184
3225.99399	0.08198
3224.70822	0.08221
3223.42245	0.08259
3222.13668	0.08293
3220.85091	0.08301
3219.56514	0.08288
3218.27937	0.08271
3216.99360	0.08263
3215.70784	0.08263
3214.42207	0.08268
3213.13630	0.08273
3211.85053	0.08278
3210.56476	0.08282
3209.27899	0.08298
3207.99322	0.08326
3206.70745	0.08346
3205.42169	0.08330
3204.13592	0.08276
3202.85015	0.08211
3201.56438	0.08157
3200.27861	0.08116
3198.99284	0.08088
3197.70707	0.08072
3196.42130	0.08067
3195.13553	0.08064
3193.84977	0.08060
3192.56400	0.08056
3191.27823	0.08049
3189.99246	0.08035
3188.70669	0.08014
3187.42092	0.07990
3186.13515	0.07966
3184.84938	0.07943
3183.56362	0.07924
3182.27785	0.07913
3180.99208	0.07907
3179.70631	0.07896
3178.42054	0.07873
3177.13477	0.07843
3175.84900	0.07820
3174.56323	0.07823
3173.27746	0.07853
3171.99170	0.07886
3170.70593	0.07890
3169.42016	0.07852
3168.13439	0.07799
3166.84862	0.07765
3165.56285	0.07758
3164.27708	0.07761
3162.99131	0.07761
3161.70555	0.07763
3160.41978	0.07778
3159.13401	0.07806
3157.84824	0.07840
3156.56247	0.07867
3155.27670	0.07879
3153.99093	0.07869
3152.70516	0.07834
3151.41939	0.07778
3150.13363	0.07717
3148.84786	0.07668
3147.56209	0.07642
3146.27632	0.07632
3144.99055	0.07627
3143.70478	0.07623
3142.41901	0.07624
3141.13324	0.07633
3139.84748	0.07645
3138.56171	0.07646
3137.27594	0.07624
3135.99017	0.07578
3134.70440	0.07523
3133.41863	0.07481
3132.13286	0.07463
3130.84709	0.07467
3129.56132	0.07476
3128.27556	0.07473
3126.98979	0.07451
3125.70402	0.07416
3124.41825	0.07383
3123.13248	0.07368
3121.84671	0.07378
3120.56094	0.07407
3119.27517	0.07441
3117.98940	0.07463
3116.70364	0.07452
3115.41787	0.07406
3114.13210	0.07341
3112.84633	0.07290
3111.56056	0.07273
3110.27479	0.07287
3108.98902	0.07312
3107.70325	0.07329
3106.41749	0.07334
3105.13172	0.07329
3103.84595	0.07313
3102.56018	0.07288
3101.27441	0.07258
3099.98864	0.07236
3098.70287	0.07228
3097.41710	0.07233
3096.13133	0.07241
3094.84557	0.07245
3093.55980	0.07242
3092.27403	0.07232
3090.98826	0.07214
3089.70249	0.07194
3088.41672	0.07184
3087.13095	0.07187
3085.84518	0.07189
3084.55942	0.07173
3083.27365	0.07130
3081.98788	0.07077
3080.70211	0.07039
3079.41634	0.07030
3078.13057	0.07040
3076.84480	0.07043
3075.55903	0.07020
3074.27326	0.06985
3072.98750	0.06960
3071.70173	0.06958
3070.41596	0.06969
3069.13019	0.06984
3067.84442	0.07004
3066.55865	0.07031
3065.27288	0.07059
3063.98711	0.07072
3062.70135	0.07057
3061.41558	0.07016
3060.12981	0.06966
3058.84404	0.06927
3057.55827	0.06911
3056.27250	0.06915
3054.98673	0.06931
3053.70096	0.06949
3052.41519	0.06958
3051.12943	0.06945
3049.84366	0.06907
3048.55789	0.06853
3047.27212	0.06801
3045.98635	0.06770
3044.70058	0.06764
3043.41481	0.06774
3042.12904	0.06783
3040.84328	0.06780
3039.55751	0.06762
3038.27174	0.06734
3036.98597	0.06702
3035.70020	0.06679
3034.41443	0.06672
3033.12866	0.06678
3031.84289	0.06687
3030.55712	0.06691
3029.27136	0.06692
3027.98559	0.06689
3026.69982	0.06676
3025.41405	0.06647
3024.12828	0.06605
3022.84251	0.06563
3021.55674	0.06537
3020.27097	0.06530
3018.98521	0.06535
3017.69944	0.06538
3016.41367	0.06533
3015.12790	0.06525
3013.84213	0.06519
3012.55636	0.06515
3011.27059	0.06504
3009.98482	0.06483
3008.69905	0.06457
3007.41329	0.06426
3006.12752	0.06391
3004.84175	0.06359
3003.55598	0.06350
3002.27021	0.06365
3000.98444	0.06390
2999.69867	0.06402
2998.41290	0.06395
2997.12714	0.06382
2995.84137	0.06373
2994.55560	0.06364
2993.26983	0.06353
2991.98406	0.06347
2990.69829	0.06350
2989.41252	0.06360
2988.12675	0.06374
2986.84098	0.06391
2985.55522	0.06409
2984.26945	0.06423
2982.98368	0.06432
2981.69791	0.06449
2980.41214	0.06485
2979.12637	0.06543
2977.84060	0.06618
2976.55483	0.06701
2975.26907	0.06785
2973.98330	0.06863
2972.69753	0.06922
2971.41176	0.06963
2970.12599	0.06997
2968.84022	0.07039
2967.55445	0.07095
2966.26868	0.07161
2964.98291	0.07239
2963.69715	0.07332
2962.41138	0.07435
2961.12561	0.07532
2959.83984	0.07606
2958.55407	0.07656
2957.26830	0.07686
2955.98253	0.07703
2954.69676	0.07712
2953.41100	0.07715
2952.12523	0.07721
2950.83946	0.07739
2949.55369	0.07772
2948.26792	0.07807
2946.98215	0.07824
2945.69638	0.07814
2944.41061	0.07791
2943.12484	0.07780
2941.83908	0.07795
2940.55331	0.07831
2939.26754	0.07873
2937.98177	0.07909
2936.69600	0.07942
2935.41023	0.07986
2934.12446	0.08050
2932.83869	0.08129
2931.55293	0.08208
2930.26716	0.08275
2928.98139	0.08325
2927.69562	0.08362
2926.40985	0.08391
2925.12408	0.08420
2923.83831	0.08445
2922.55254	0.08451
2921.26677	0.08420
2919.98101	0.08359
2918.69524	0.08290
2917.40947	0.08229
2916.12370	0.08167
2914.83793	0.08088
2913.55216	0.07993
2912.26639	0.07896
2910.98062	0.07809
2909.69486	0.07730
2908.40909	0.07656
2907.12332	0.07588
2905.83755	0.07535
2904.55178	0.07497
2903.26601	0.07467
2901.98024	0.07436
2900.69447	0.07399
2899.40870	0.07354
2898.12294	0.07302
2896.83717	0.07245
2895.55140	0.07185
2894.26563	0.07120
2892.97986	0.07053
2891.69409	0.06990
2890.40832	0.06937
2889.12255	0.06900
2887.83678	0.06877
2886.55102	0.06859
2885.26525	0.06835
2883.97948	0.06806
2882.69371	0.06788
2881.40794	0.06796
2880.12217	0.06823
2878.83640	0.06843
2877.55063	0.06845
2876.26487	0.06842
2874.97910	0.06853
2873.69333	0.06876
2872.40756	0.06890
2871.12179	0.06886
2869.83602	0.06875
2868.55025	0.06873
2867.26448	0.06878
2865.97871	0.06877
2864.69295	0.06868
2863.40718	0.06864
2862.12141	0.06873
2860.83564	0.06891
2859.54987	0.06904
2858.26410	0.06905
2856.97833	0.06895
2855.69256	0.06874
2854.40680	0.06838
2853.12103	0.06792
2851.83526	0.06747
2850.54949	0.06710
2849.26372	0.06674
2847.97795	0.06629
2846.69218	0.06571
2845.40641	0.06506
2844.12064	0.06439
2842.83488	0.06368
2841.54911	0.06292
2840.26334	0.06207
2838.97757	0.06112
2837.69180	0.06017
2836.40603	0.05937
2835.12026	0.05882
2833.83449	0.05844
2832.54873	0.05809
2831.26296	0.05768
2829.97719	0.05722
2828.69142	0.05675
2827.40565	0.05626
2826.11988	0.05578
2824.83411	0.05537
2823.54834	0.05508
2822.26257	0.05491
2820.97681	0.05485
2819.69104	0.05490
2818.40527	0.05499
2817.11950	0.05501
2815.83373	0.05487
2814.54796	0.05458
2813.26219	0.05421
2811.97642	0.05389
2810.69066	0.05370
2809.40489	0.05366
2808.11912	0.05361
2806.83335	0.05345
2805.54758	0.05315
2804.26181	0.05285
2802.97604	0.05260
2801.69027	0.05243
2800.40450	0.05229
2799.11874	0.05215
2797.83297	0.05197
2796.54720	0.05176
2795.26143	0.05158
2793.97566	0.05149
2792.68989	0.05148
2791.40412	0.05147
2790.11835	0.05139
2788.83259	0.05126
2787.54682	0.05117
2786.26105	0.05115
2784.97528	0.05114
2783.68951	0.05105
2782.40374	0.05088
2781.11797	0.05075
2779.83220	0.05073
2778.54643	0.05080
2777.26067	0.05087
2775.97490	0.05087
2774.68913	0.05082
2773.40336	0.05072
2772.11759	0.05056
2770.83182	0.05032
2769.54605	0.05002
2768.26028	0.04973
2766.97452	0.04948
2765.68875	0.04931
2764.40298	0.04918
2763.11721	0.04905
2761.83144	0.04894
2760.54567	0.04886
2759.25990	0.04879
2757.97413	0.04866
2756.68836	0.04852
2755.40260	0.04851
2754.11683	0.04870
2752.83106	0.04899
2751.54529	0.04915
2750.25952	0.04907
2748.97375	0.04887
2747.68798	0.04873
2746.40221	0.04871
2745.11645	0.04871
2743.83068	0.04858
2742.54491	0.04832
2741.25914	0.04801
2739.97337	0.04779
2738.68760	0.04771
2737.40183	0.04781
2736.11606	0.04803
2734.83029	0.04826
2733.54453	0.04834
2732.25876	0.04821
2730.97299	0.04794
2729.68722	0.04771
2728.40145	0.04768
2727.11568	0.04779
2725.82991	0.04784
2724.54414	0.04764
2723.25838	0.04723
2721.97261	0.04679
2720.68684	0.04647
2719.40107	0.04634
2718.11530	0.04633
2716.82953	0.04639
2715.54376	0.04644
2714.25799	0.04638
2712.97222	0.04620
2711.68646	0.04598
2710.40069	0.04584
2709.11492	0.04579
2707.82915	0.04575
2706.54338	0.04568
2705.25761	0.04560
2703.97184	0.04553
2702.68607	0.04540
2701.40031	0.04519
2700.11454	0.04502
2698.82877	0.04500
2697.54300	0.04511
2696.25723	0.04515
2694.97146	0.04502
2693.68569	0.04475
2692.39992	0.04449
2691.11415	0.04433
2689.82839	0.04425
2688.54262	0.04419
2687.25685	0.04415
2685.97108	0.04419
2684.68531	0.04433
2683.39954	0.04450
2682.11377	0.04460
2680.82800	0.04462
2679.54224	0.04458
2678.25647	0.04453
2676.97070	0.04452
2675.68493	0.04455
2674.39916	0.04458
2673.11339	0.04452
2671.82762	0.04429
2670.54185	0.04394
2669.25608	0.04358
2667.97032	0.04335
2666.68455	0.04330
2665.39878	0.04342
2664.11301	0.04358
2662.82724	0.04362
2661.54147	0.04348
2660.25570	0.04320
2658.96993	0.04292
2657.68417	0.04272
2656.39840	0.04266
2655.11263	0.04271
2653.82686	0.04277
2652.54109	0.04269
2651.25532	0.04241
2649.96955	0.04200
2648.68378	0.04165
2647.39801	0.04144
2646.11225	0.04136
2644.82648	0.04132
2643.54071	0.04131
2642.25494	0.04130
2640.96917	0.04125
2639.68340	0.04112
2638.39763	0.04097
2637.11186	0.04084
2635.82609	0.04071
2634.54033	0.04050
2633.25456	0.04022
2631.96879	0.03995
2630.68302	0.03976
2629.39725	0.03965
2628.11148	0.03959
2626.82571	0.03953
2625.53994	0.03946
2624.25418	0.03938
2622.96841	0.03929
2621.68264	0.03912
2620.39687	0.03881
2619.11110	0.03840
2617.82533	0.03807
2616.53956	0.03802
2615.25379	0.03829
2613.96802	0.03867
2612.68226	0.03886
2611.39649	0.03875
2610.11072	0.03842
2608.82495	0.03804
2607.53918	0.03770
2606.25341	0.03735
2604.96764	0.03696
2603.68187	0.03663
2602.39611	0.03652
2601.11034	0.03670
2599.82457	0.03695
2598.53880	0.03702
2597.25303	0.03679
2595.96726	0.03643
2594.68149	0.03615
2593.39572	0.03610
2592.10995	0.03621
2590.82419	0.03633
2589.53842	0.03627
2588.25265	0.03603
2586.96688	0.03573
2585.68111	0.03548
2584.39534	0.03534
2583.10957	0.03527
2581.82380	0.03523
2580.53804	0.03518
2579.25227	0.03512
2577.96650	0.03507
2576.68073	0.03503
2575.39496	0.03495
2574.10919	0.03480
2572.82342	0.03464
2571.53765	0.03456
2570.25188	0.03464
2568.96612	0.03486
2567.68035	0.03507
2566.39458	0.03508
2565.10881	0.03487
2563.82304	0.03456
2562.53727	0.03433
2561.25150	0.03427
2559.96573	0.03439
2558.67997	0.03453
2557.39420	0.03451
2556.10843	0.03431
2554.82266	0.03409
2553.53689	0.03401
2552.25112	0.03410
2550.96535	0.03430
2549.67958	0.03445
2548.39381	0.03430
2547.10805	0.03375
2545.82228	0.03304
2544.53651	0.03256
2543.25074	0.03252
2541.96497	0.03276
2540.67920	0.03299
2539.39343	0.03303
2538.10766	0.03285
2536.82190	0.03255
2535.53613	0.03232
2534.25036	0.03237
2532.96459	0.03272
2531.67882	0.03319
2530.39305	0.03353
2529.10728	0.03368
2527.82151	0.03366
2526.53574	0.03344
2525.24998	0.03304
2523.96421	0.03256
2522.67844	0.03215
2521.39267	0.03184
2520.10690	0.03156
2518.82113	0.03137
2517.53536	0.03136
2516.24959	0.03157
2514.96383	0.03190
2513.67806	0.03221
2512.39229	0.03242
2511.10652	0.03253
2509.82075	0.03259
2508.53498	0.03256
2507.24921	0.03240
2505.96344	0.03204
2504.67767	0.03158
2503.39191	0.03128
2502.10614	0.03132
2500.82037	0.03160
2499.53460	0.03187
2498.24883	0.03197
2496.96306	0.03197
2495.67729	0.03199
2494.39152	0.03205
2493.10576	0.03206
2491.81999	0.03196
2490.53422	0.03173
2489.24845	0.03145
2487.96268	0.03124
2486.67691	0.03122
2485.39114	0.03132
2484.10537	0.03140
2482.81960	0.03134
2481.53384	0.03113
2480.24807	0.03086
2478.96230	0.03066
2477.67653	0.03063
2476.39076	0.03081
2475.10499	0.03112
2473.81922	0.03144
2472.53345	0.03171
2471.24769	0.03192
2469.96192	0.03203
2468.67615	0.03192
2467.39038	0.03147
2466.10461	0.03082
2464.81884	0.03035
2463.53307	0.03037
2462.24730	0.03072
2460.96153	0.03099
2459.67577	0.03105
2458.39000	0.03113
2457.10423	0.03139
2455.81846	0.03172
2454.53269	0.03184
2453.24692	0.03168
2451.96115	0.03133
2450.67538	0.03093
2449.38962	0.03063
2448.10385	0.03053
2446.81808	0.03064
2445.53231	0.03083
2444.24654	0.03093
2442.96077	0.03086
2441.67500	0.03070
2440.38923	0.03054
2439.10346	0.03041
2437.81770	0.03022
2436.53193	0.02984
2435.24616	0.02927
2433.96039	0.02876
2432.67462	0.02862
2431.38885	0.02886
2430.10308	0.02920
2428.81731	0.02938
2427.53155	0.02938
2426.24578	0.02928
2424.96001	0.02914
2423.67424	0.02899
2422.38847	0.02888
2421.10270	0.02883
2419.81693	0.02880
2418.53116	0.02878
2417.24539	0.02878
2415.95963	0.02872
2414.67386	0.02852
2413.38809	0.02817
2412.10232	0.02791
2410.81655	0.02799
2409.53078	0.02845
2408.24501	0.02904
2406.95924	0.02943
2405.67347	0.02947
2404.38771	0.02926
2403.10194	0.02902
2401.81617	0.02894
2400.53040	0.02905
2399.24463	0.02920
2397.95886	0.02921
2396.67309	0.02902
2395.38732	0.02874
2394.10156	0.02855
2392.81579	0.02854
2391.53002	0.02861
2390.24425	0.02860
2388.95848	0.02846
2387.67271	0.02829
2386.38694	0.02826
2385.10117	0.02846
2383.81540	0.02887
2382.52964	0.02936
2381.24387	0.02979
2379.95810	0.03008
2378.67233	0.03024
2377.38656	0.03033
2376.10079	0.03043
2374.81502	0.03061
2373.52925	0.03076
2372.24349	0.03088
2370.95772	0.03082
2369.67195	0.03087
2368.38618	0.03105
2367.10041	0.03126
2365.81464	0.03139
2364.52887	0.03169
2363.24310	0.03196
2361.95733	0.03208
2360.67157	0.03200
2359.38580	0.03218
2358.10003	0.03236
2356.81426	0.03233
2355.52849	0.03200
2354.24272	0.03138
2352.95695	0.03085
2351.67118	0.03039
2350.38542	0.03001
2349.09965	0.03012
2347.81388	0.03089
2346.52811	0.03146
2345.24234	0.03154
2343.95657	0.03151
2342.67080	0.03190
2341.38503	0.03217
2340.09926	0.03200
2338.81350	0.03199
2337.52773	0.03219
2336.24196	0.03198
2334.95619	0.03151
2333.67042	0.03159
2332.38465	0.03234
2331.09888	0.03219
2329.81311	0.03179
2328.52735	0.03254
2327.24158	0.03252
2325.95581	0.03211
2324.67004	0.03263
2323.38427	0.03242
2322.09850	0.03134
2320.81273	0.03131
2319.52696	0.03100
2318.24119	0.03056
2316.95543	0.03071
2315.66966	0.03017
2314.38389	0.02937
2313.09812	0.02905
2311.81235	0.02868
2310.52658	0.02881
2309.24081	0.02907
2307.95504	0.02907
2306.66928	0.02911
2305.38351	0.02880
2304.09774	0.02841
2302.81197	0.02813
2301.52620	0.02789
2300.24043	0.02783
2298.95466	0.02780
2297.66889	0.02783
2296.38312	0.02792
2295.09736	0.02799
2293.81159	0.02801
2292.52582	0.02788
2291.24005	0.02765
2289.95428	0.02740
2288.66851	0.02718
2287.38274	0.02690
2286.09697	0.02656
2284.81121	0.02630
2283.52544	0.02622
2282.23967	0.02623
2280.95390	0.02601
2279.66813	0.02544
2278.38236	0.02471
2277.09659	0.02415
2275.81082	0.02392
2274.52505	0.02401
2273.23929	0.02428
2271.95352	0.02450
2270.66775	0.02449
2269.38198	0.02427
2268.09621	0.02398
2266.81044	0.02365
2265.52467	0.02318
2264.23890	0.02255
2262.95314	0.02201
2261.66737	0.02186
2260.38160	0.02215
2259.09583	0.02260
2257.81006	0.02288
2256.52429	0.02287
2255.23852	0.02268
2253.95275	0.02242
2252.66698	0.02219
2251.38122	0.02202
2250.09545	0.02189
2248.80968	0.02179
2247.52391	0.02184
2246.23814	0.02191
2244.95237	0.02178
2243.66660	0.02135
2242.38083	0.02091
2241.09507	0.02074
2239.80930	0.02066
2238.52353	0.02019
2237.23776	0.01916
2235.95199	0.01802
2234.66622	0.01747
2233.38045	0.01794
2232.09468	0.01935
2230.80891	0.02099
2229.52315	0.02190
2228.23738	0.02157
2226.95161	0.02030
2225.66584	0.01892
2224.38007	0.01817
2223.09430	0.01821
2221.80853	0.01867
2220.52276	0.01911
2219.23700	0.01935
2217.95123	0.01941
2216.66546	0.01929
2215.37969	0.01899
2214.09392	0.01862
2212.80815	0.01830
2211.52238	0.01804
2210.23661	0.01775
2208.95084	0.01737
2207.66508	0.01689
2206.37931	0.01633
2205.09354	0.01577
2203.80777	0.01531
2202.52200	0.01508
2201.23623	0.01526
2199.95046	0.01595
2198.66469	0.01692
2197.37893	0.01765
2196.09316	0.01766
2194.80739	0.01697
2193.52162	0.01617
2192.23585	0.01581
2190.95008	0.01586
2189.66431	0.01582
2188.37854	0.01534
2187.09277	0.01454
2185.80701	0.01368
2184.52124	0.01285
2183.23547	0.01219
2181.94970	0.01205
2180.66393	0.01266
2179.37816	0.01374
2178.09239	0.01469
2176.80662	0.01510
2175.52085	0.01479
2174.23509	0.01371
2172.94932	0.01202
2171.66355	0.01021
2170.37778	0.00897
2169.09201	0.00866
2167.80624	0.00914
2166.52047	0.01001
2165.23470	0.01099
2163.94894	0.01179
2162.66317	0.01200
2161.37740	0.01137
2160.09163	0.01030
2158.80586	0.00954
2157.52009	0.00939
2156.23432	0.00957
2154.94855	0.00972
2153.66278	0.00965
2152.37702	0.00926
2151.09125	0.00858
2149.80548	0.00785
2148.51971	0.00735
2147.23394	0.00724
2145.94817	0.00753
2144.66240	0.00823
2143.37663	0.00933
2142.09087	0.01067
2140.80510	0.01202
2139.51933	0.01315
2138.23356	0.01378
2136.94779	0.01371
2135.66202	0.01294
2134.37625	0.01195
2133.09048	0.01150
2131.80471	0.01200
2130.51895	0.01313
2129.23318	0.01422
2127.94741	0.01488
2126.66164	0.01520
2125.37587	0.01537
2124.09010	0.01538
2122.80433	0.01529
2121.51856	0.01534
2120.23280	0.01564
2118.94703	0.01600
2117.66126	0.01610
2116.37549	0.01578
2115.08972	0.01517
2113.80395	0.01456
2112.51818	0.01428
2111.23241	0.01444
2109.94664	0.01475
2108.66088	0.01479
2107.37511	0.01456
2106.08934	0.01440
2104.80357	0.01454
2103.51780	0.01481
2102.23203	0.01490
2100.94626	0.01471
2099.66049	0.01497
2098.37473	0.01506
2097.08896	0.01509
2095.80319	0.01513
2094.51742	0.01514
2093.23165	0.01517
2091.94588	0.01532
2090.66011	0.01556
2089.37434	0.01568
2088.08857	0.01550
2086.80281	0.01508
2085.51704	0.01466
2084.23127	0.01447
2082.94550	0.01458
2081.65973	0.01484
2080.37396	0.01504
2079.08819	0.01506
2077.80242	0.01487
2076.51666	0.01450
2075.23089	0.01407
2073.94512	0.01378
2072.65935	0.01378
2071.37358	0.01395
2070.08781	0.01399
2068.80204	0.01376
2067.51627	0.01334
2066.23050	0.01294
2064.94474	0.01259
2063.65897	0.01214
2062.37320	0.01149
2061.08743	0.01086
2059.80166	0.01060
2058.51589	0.01072
2057.23012	0.01077
2055.94435	0.01038
2054.65859	0.00971
2053.37282	0.00932
2052.08705	0.00948
2050.80128	0.00996
2049.51551	0.01021
2048.22974	0.00987
2046.94397	0.00890
2045.65820	0.00759
2044.37243	0.00637
2043.08667	0.00560
2041.80090	0.00551
2040.51513	0.00611
2039.22936	0.00708
2037.94359	0.00781
2036.65782	0.00768
2035.37205	0.00660
2034.08628	0.00509
2032.80052	0.00392
2031.51475	0.00350
2030.22898	0.00376
2028.94321	0.00443
2027.65744	0.00535
2026.37167	0.00637
2025.08590	0.00714
2023.80013	0.00726
2022.51436	0.00666
2021.22860	0.00571
2019.94283	0.00498
2018.65706	0.00485
2017.37129	0.00522
2016.08552	0.00565
2014.79975	0.00571
2013.51398	0.00530
2012.22821	0.00469
2010.94245	0.00421
2009.65668	0.00414
2008.37091	0.00471
2007.08514	0.00599
2005.79937	0.00757
2004.51360	0.00871
2003.22783	0.00903
2001.94206	0.00879
2000.65629	0.00852
1999.37053	0.00855
1998.08476	0.00890
1996.79899	0.00949
1995.51322	0.01018
1994.22745	0.01079
1992.94168	0.01114
1991.65591	0.01109
1990.37014	0.01071
1989.08438	0.01019
1987.79861	0.00980
1986.51284	0.00973
1985.22707	0.01003
1983.94130	0.01061
1982.65553	0.01135
1981.36976	0.01212
1980.08399	0.01279
1978.79822	0.01310
1977.51246	0.01278
1976.22669	0.01181
1974.94092	0.01070
1973.65515	0.01019
1972.36938	0.01062
1971.08361	0.01150
1969.79784	0.01195
1968.51207	0.01150
1967.22631	0.01049
1965.94054	0.00978
1964.65477	0.00991
1963.36900	0.01073
1962.08323	0.01165
1960.79746	0.01221
1959.51169	0.01238
1958.22592	0.01244
1956.94015	0.01260
1955.65439	0.01286
1954.36862	0.01319
1953.08285	0.01360
1951.79708	0.01402
1950.51131	0.01431
1949.22554	0.01439
1947.93977	0.01441
1946.65400	0.01467
1945.36823	0.01517
1944.08247	0.01558
1942.79670	0.01560
1941.51093	0.01528
1940.22516	0.01484
1938.93939	0.01444
1937.65362	0.01407
1936.36785	0.01373
1935.08208	0.01361
1933.79632	0.01390
1932.51055	0.01455
1931.22478	0.01526
1929.93901	0.01563
1928.65324	0.01556
1927.36747	0.01528
1926.08170	0.01515
1924.79593	0.01530
1923.51016	0.01560
1922.22440	0.01583
1920.93863	0.01583
1919.65286	0.01561
1918.36709	0.01530
1917.08132	0.01499
1915.79555	0.01477
1914.50978	0.01472
1913.22401	0.01491
1911.93825	0.01531
1910.65248	0.01574
1909.36671	0.01599
1908.08094	0.01600
1906.79517	0.01591
1905.50940	0.01591
1904.22363	0.01604
1902.93786	0.01611
1901.65209	0.01596
1900.36633	0.01568
1899.08056	0.01556
1897.79479	0.01573
1896.50902	0.01603
1895.22325	0.01620
1893.93748	0.01617
1892.65171	0.01609
1891.36594	0.01615
1890.08018	0.01636
1888.79441	0.01660
1887.50864	0.01678
1886.22287	0.01684
1884.93710	0.01677
1883.65133	0.01661
1882.36556	0.01642
1881.07979	0.01627
1879.79402	0.01615
1878.50826	0.01605
1877.22249	0.01600
1875.93672	0.01606
1874.65095	0.01627
1873.36518	0.01653
1872.07941	0.01670
1870.79364	0.01670
1869.50787	0.01658
1868.22211	0.01649
1866.93634	0.01649
1865.65057	0.01658
1864.36480	0.01674
1863.07903	0.01689
1861.79326	0.01697
1860.50749	0.01694
1859.22172	0.01688
1857.93595	0.01685
1856.65019	0.01684
1855.36442	0.01676
1854.07865	0.01664
1852.79288	0.01659
1851.50711	0.01666
1850.22134	0.01684
1848.93557	0.01703
1847.64980	0.01711
1846.36404	0.01700
1845.07827	0.01672
1843.79250	0.01637
1842.50673	0.01606
1841.22096	0.01585
1839.93519	0.01578
1838.64942	0.01585
1837.36365	0.01601
1836.07788	0.01619
1834.79212	0.01634
1833.50635	0.01648
1832.22058	0.01665
1830.93481	0.01686
1829.64904	0.01705
1828.36327	0.01712
1827.07750	0.01704
1825.79173	0.01691
1824.50597	0.01689
1823.22020	0.01701
1821.93443	0.01713
1820.64866	0.01715
1819.36289	0.01705
1818.07712	0.01692
1816.79135	0.01686
1815.50558	0.01688
1814.21981	0.01694
1812.93405	0.01702
1811.64828	0.01709
1810.36251	0.01714
1809.07674	0.01717
1807.79097	0.01720
1806.50520	0.01725
1805.21943	0.01735
1803.93366	0.01747
1802.64790	0.01756
1801.36213	0.01761
1800.07636	0.01761
1798.79059	0.01760
1797.50482	0.01763
1796.21905	0.01773
1794.93328	0.01788
1793.64751	0.01796
1792.36174	0.01793
1791.07598	0.01782
1789.79021	0.01770
1788.50444	0.01763
1787.21867	0.01765
1785.93290	0.01772
1784.64713	0.01784
1783.36136	0.01796
1782.07559	0.01806
1780.78983	0.01813
1779.50406	0.01816
1778.21829	0.01817
1776.93252	0.01819
1775.64675	0.01825
1774.36098	0.01835
1773.07521	0.01844
1771.78944	0.01847
1770.50367	0.01845
1769.21791	0.01840
1767.93214	0.01842
1766.64637	0.01854
1765.36060	0.01867
1764.07483	0.01869
1762.78906	0.01860
1761.50329	0.01854
1760.21752	0.01856
1758.93176	0.01866
1757.64599	0.01875
1756.36022	0.01878
1755.07445	0.01880
1753.78868	0.01886
1752.50291	0.01896
1751.21714	0.01909
1749.93137	0.01918
1748.64560	0.01919
1747.35984	0.01912
1746.07407	0.01905
1744.78830	0.01907
1743.50253	0.01918
1742.21676	0.01936
1740.93099	0.01953
1739.64522	0.01968
1738.35945	0.01982
1737.07369	0.01994
1735.78792	0.02002
1734.50215	0.02013
1733.21638	0.02033
1731.93061	0.02058
1730.64484	0.02075
1729.35907	0.02082
1728.07330	0.02082
1726.78753	0.02082
1725.50177	0.02087
1724.21600	0.02101
1722.93023	0.02122
1721.64446	0.02147
1720.35869	0.02170
1719.07292	0.02192
1717.78715	0.02217
1716.50138	0.02249
1715.21561	0.02282
1713.92985	0.02315
1712.64408	0.02350
1711.35831	0.02386
1710.07254	0.02423
1708.78677	0.02462
1707.50100	0.02505
1706.21523	0.02553
1704.92946	0.02607
1703.64370	0.02659
1702.35793	0.02703
1701.07216	0.02745
1699.78639	0.02796
1698.50062	0.02852
1697.21485	0.02899
1695.92908	0.02939
1694.64331	0.02984
1693.35754	0.03031
1692.07178	0.03072
1690.78601	0.03110
1689.50024	0.03154
1688.21447	0.03209
1686.92870	0.03268
1685.64293	0.03326
1684.35716	0.03382
1683.07139	0.03434
1681.78563	0.03473
1680.49986	0.03505
1679.21409	0.03541
1677.92832	0.03586
1676.64255	0.03638
1675.35678	0.03695
1674.07101	0.03755
1672.78524	0.03811
1671.49947	0.03855
1670.21371	0.03895
1668.92794	0.03937
1667.64217	0.03984
1666.35640	0.04030
1665.07063	0.04073
1663.78486	0.04114
1662.49909	0.04157
1661.21332	0.04202
1659.92756	0.04247
1658.64179	0.04292
1657.35602	0.04337
1656.07025	0.04373
1654.78448	0.04394
1653.49871	0.04407
1652.21294	0.04426
1650.92717	0.04448
1649.64140	0.04464
1648.35564	0.04469
1647.06987	0.04471
1645.78410	0.04473
1644.49833	0.04474
1643.21256	0.04473
1641.92679	0.04477
1640.64102	0.04490
1639.35525	0.04507
1638.06949	0.04518
1636.78372	0.04511
1635.49795	0.04491
1634.21218	0.04464
1632.92641	0.04435
1631.64064	0.04408
1630.35487	0.04390
1629.06910	0.04385
1627.78333	0.04386
1626.49757	0.04383
1625.21180	0.04370
1623.92603	0.04349
1622.64026	0.04327
1621.35449	0.04308
1620.06872	0.04294
1618.78295	0.04283
1617.49718	0.04276
1616.21142	0.04274
1614.92565	0.04272
1613.63988	0.04266
1612.35411	0.04257
1611.06834	0.04251
1609.78257	0.04247
1608.49680	0.04242
1607.21103	0.04238
1605.92526	0.04239
1604.63950	0.04245
1603.35373	0.04252
1602.06796	0.04261
1600.78219	0.04269
1599.49642	0.04278
1598.21065	0.04289
1596.92488	0.04301
1595.63911	0.04314
1594.35335	0.04325
1593.06758	0.04335
1591.78181	0.04345
1590.49604	0.04358
1589.21027	0.04371
1587.92450	0.04387
1586.63873	0.04405
1585.35296	0.04424
1584.06719	0.04444
1582.78143	0.04466
1581.49566	0.04493
1580.20989	0.04529
1578.92412	0.04573
1577.63835	0.04617
1576.35258	0.04659
1575.06681	0.04700
1573.78104	0.04738
1572.49528	0.04767
1571.20951	0.04790
1569.92374	0.04815
1568.63797	0.04844
1567.35220	0.04872
1566.06643	0.04895
1564.78066	0.04917
1563.49489	0.04946
1562.20912	0.04983
1560.92336	0.05020
1559.63759	0.05054
1558.35182	0.05086
1557.06605	0.05114
1555.78028	0.05135
1554.49451	0.05154
1553.20874	0.05179
1551.92297	0.05207
1550.63721	0.05230
1549.35144	0.05250
1548.06567	0.05267
1546.77990	0.05284
1545.49413	0.05298
1544.20836	0.05310
1542.92259	0.05318
1541.63682	0.05318
1540.35105	0.05311
1539.06529	0.05303
1537.77952	0.05295
1536.49375	0.05286
1535.20798	0.05276
1533.92221	0.05272
1532.63644	0.05282
1531.35067	0.05305
1530.06490	0.05337
1528.77914	0.05378
1527.49337	0.05428
1526.20760	0.05490
1524.92183	0.05565
1523.63606	0.05649
1522.35029	0.05733
1521.06452	0.05816
1519.77875	0.05899
1518.49298	0.05984
1517.20722	0.06073
1515.92145	0.06171
1514.63568	0.06279
1513.34991	0.06393
1512.06414	0.06519
1510.77837	0.06658
1509.49260	0.06805
1508.20683	0.06950
1506.92107	0.07086
1505.63530	0.07213
1504.34953	0.07328
1503.06376	0.07429
1501.77799	0.07523
1500.49222	0.07618
1499.20645	0.07713
1497.92068	0.07801
1496.63491	0.07878
1495.34915	0.07949
1494.06338	0.08019
1492.77761	0.08089
1491.49184	0.08161
1490.20607	0.08235
1488.92030	0.08311
1487.63453	0.08392
1486.34876	0.08481
1485.06299	0.08583
1483.77723	0.08693
1482.49146	0.08808
1481.20569	0.08926
1479.91992	0.09048
1478.63415	0.09178
1477.34838	0.09312
1476.06261	0.09442
1474.77684	0.09558
1473.49108	0.09656
1472.20531	0.09743
1470.91954	0.09824
1469.63377	0.09901
1468.34800	0.09970
1467.06223	0.10032
1465.77646	0.10087
1464.49069	0.10140
1463.20492	0.10198
1461.91916	0.10264
1460.63339	0.10337
1459.34762	0.10416
1458.06185	0.10498
1456.77608	0.10576
1455.49031	0.10643
1454.20454	0.10687
1452.91877	0.10711
1451.63301	0.10728
1450.34724	0.10744
1449.06147	0.10753
1447.77570	0.10751
1446.48993	0.10739
1445.20416	0.10721
1443.91839	0.10697
1442.63262	0.10667
1441.34685	0.10631
1440.06109	0.10594
1438.77532	0.10561
1437.48955	0.10538
1436.20378	0.10533
1434.91801	0.10546
1433.63224	0.10578
1432.34647	0.10629
1431.06070	0.10707
1429.77494	0.10813
1428.48917	0.10945
1427.20340	0.11096
1425.91763	0.11254
1424.63186	0.11414
1423.34609	0.11570
1422.06032	0.11716
1420.77455	0.11849
1419.48878	0.11968
1418.20302	0.12074
1416.91725	0.12160
1415.63148	0.12222
1414.34571	0.12260
1413.05994	0.12275
1411.77417	0.12269
1410.48840	0.12240
1409.20263	0.12185
1407.91687	0.12105
1406.63110	0.11998
1405.34533	0.11865
1404.05956	0.11708
1402.77379	0.11532
1401.48802	0.11340
1400.20225	0.11132
1398.91648	0.10907
1397.63071	0.10668
1396.34495	0.10421
1395.05918	0.10167
1393.77341	0.09913
1392.48764	0.09662
1391.20187	0.09419
1389.91610	0.09190
1388.63033	0.08970
1387.34456	0.08754
1386.05880	0.08536
1384.77303	0.08314
1383.48726	0.08093
1382.20149	0.07881
1380.91572	0.07677
1379.62995	0.07476
1378.34418	0.07269
1377.05841	0.07055
1375.77264	0.06835
1374.48688	0.06610
1373.20111	0.06384
1371.91534	0.06160
1370.62957	0.05942
1369.34380	0.05738
1368.05803	0.05550
1366.77226	0.05378
1365.48649	0.05217
1364.20073	0.05063
1362.91496	0.04912
1361.62919	0.04766
1360.34342	0.04627
1359.05765	0.04498
1357.77188	0.04382
1356.48611	0.04276
1355.20034	0.04178
1353.91457	0.04086
1352.62881	0.03999
1351.34304	0.03917
1350.05727	0.03840
1348.77150	0.03769
1347.48573	0.03703
1346.19996	0.03639
1344.91419	0.03579
1343.62842	0.03523
1342.34266	0.03472
1341.05689	0.03424
1339.77112	0.03378
1338.48535	0.03333
1337.19958	0.03290
1335.91381	0.03248
1334.62804	0.03209
1333.34227	0.03172
1332.05650	0.03136
1330.77074	0.03103
1329.48497	0.03074
1328.19920	0.03048
1326.91343	0.03021
1325.62766	0.02991
1324.34189	0.02960
1323.05612	0.02931
1321.77035	0.02906
1320.48459	0.02883
1319.19882	0.02860
1317.91305	0.02834
1316.62728	0.02805
1315.34151	0.02778
1314.05574	0.02753
1312.76997	0.02731
1311.48420	0.02711
1310.19843	0.02693
1308.91267	0.02677
1307.62690	0.02662
1306.34113	0.02647
1305.05536	0.02630
1303.76959	0.02611
1302.48382	0.02591
1301.19805	0.02573
1299.91228	0.02557
1298.62652	0.02541
1297.34075	0.02521
1296.05498	0.02498
1294.76921	0.02477
1293.48344	0.02463
1292.19767	0.02456
1290.91190	0.02451
1289.62613	0.02442
1288.34036	0.02431
1287.05460	0.02419
1285.76883	0.02408
1284.48306	0.02398
1283.19729	0.02389
1281.91152	0.02382
1280.62575	0.02375
1279.33998	0.02365
1278.05421	0.02349
1276.76845	0.02328
1275.48268	0.02308
1274.19691	0.02294
1272.91114	0.02286
1271.62537	0.02281
1270.33960	0.02276
1269.05383	0.02272
1267.76806	0.02267
1266.48229	0.02260
1265.19653	0.02249
1263.91076	0.02234
1262.62499	0.02219
1261.33922	0.02208
1260.05345	0.02202
1258.76768	0.02199
1257.48191	0.02196
1256.19614	0.02194
1254.91037	0.02192
1253.62461	0.02189
1252.33884	0.02185
1251.05307	0.02179
1249.76730	0.02174
1248.48153	0.02169
1247.19576	0.02164
1245.90999	0.02159
1244.62422	0.02153
1243.33846	0.02146
1242.05269	0.02139
1240.76692	0.02135
1239.48115	0.02134
1238.19538	0.02134
1236.90961	0.02132
1235.62384	0.02126
1234.33807	0.02115
1233.05230	0.02102
1231.76654	0.02091
1230.48077	0.02085
1229.19500	0.02079
1227.90923	0.02071
1226.62346	0.02059
1225.33769	0.02045
1224.05192	0.02033
1222.76615	0.02027
1221.48039	0.02026
1220.19462	0.02026
1218.90885	0.02026
1217.62308	0.02023
1216.33731	0.02020
1215.05154	0.02016
1213.76577	0.02013
1212.48000	0.02011
1211.19423	0.02012
1209.90847	0.02013
1208.62270	0.02012
1207.33693	0.02008
1206.05116	0.02004
1204.76539	0.02002
1203.47962	0.02005
1202.19385	0.02010
1200.90808	0.02012
1199.62232	0.02008
1198.33655	0.02012
1197.05078	0.02019
1195.76501	0.02023
1194.47924	0.02023
1193.19347	0.02021
1191.90770	0.02022
1190.62193	0.02027
1189.33616	0.02031
1188.05040	0.02030
1186.76463	0.02025
1185.47886	0.02021
1184.19309	0.02024
1182.90732	0.02032
1181.62155	0.02042
1180.33578	0.02051
1179.05001	0.02061
1177.76425	0.02072
1176.47848	0.02083
1175.19271	0.02098
1173.90694	0.02120
1172.62117	0.02150
1171.33540	0.02185
1170.04963	0.02216
1168.76386	0.02237
1167.47809	0.02250
1166.19233	0.02263
1164.90656	0.02285
1163.62079	0.02314
1162.33502	0.02347
1161.04925	0.02377
1159.76348	0.02404
1158.47771	0.02427
1157.19194	0.02450
1155.90618	0.02479
1154.62041	0.02520
1153.33464	0.02571
1152.04887	0.02628
1150.76310	0.02689
1149.47733	0.02754
1148.19156	0.02826
1146.90579	0.02905
1145.62002	0.02988
1144.33426	0.03072
1143.04849	0.03162
1141.76272	0.03262
1140.47695	0.03375
1139.19118	0.03501
1137.90541	0.03638
1136.61964	0.03788
1135.33387	0.03955
1134.04811	0.04142
1132.76234	0.04351
1131.47657	0.04584
1130.19080	0.04839
1128.90503	0.05119
1127.61926	0.05425
1126.33349	0.05752
1125.04772	0.06092
1123.76195	0.06444
1122.47619	0.06809
1121.19042	0.07189
1119.90465	0.07578
1118.61888	0.07971
1117.33311	0.08372
1116.04734	0.08786
1114.76157	0.09213
1113.47580	0.09644
1112.19004	0.10064
1110.90427	0.10467
1109.61850	0.10855
1108.33273	0.11233
1107.04696	0.11602
1105.76119	0.11970
1104.47542	0.12339
1103.18965	0.12711
1101.90388	0.13077
1100.61812	0.13427
1099.33235	0.13756
1098.04658	0.14068
1096.76081	0.14371
1095.47504	0.14669
1094.18927	0.14963
1092.90350	0.15252
1091.61773	0.15531
1090.33197	0.15794
1089.04620	0.16036
1087.76043	0.16262
1086.47466	0.16480
1085.18889	0.16704
1083.90312	0.16943
1082.61735	0.17202
1081.33158	0.17479
1080.04581	0.17767
1078.76005	0.18066
1077.47428	0.18377
1076.18851	0.18706
1074.90274	0.19057
1073.61697	0.19426
1072.33120	0.19814
1071.04543	0.20221
1069.75966	0.20644
1068.47390	0.21080
1067.18813	0.21517
1065.90236	0.21954
1064.61659	0.22393
1063.33082	0.22842
1062.04505	0.23308
1060.75928	0.23784
1059.47351	0.24262
1058.18774	0.24732
1056.90198	0.25189
1055.61621	0.25635
1054.33044	0.26081
1053.04467	0.26536
1051.75890	0.27007
1050.47313	0.27490
1049.18736	0.27979
1047.90159	0.28469
1046.61583	0.28960
1045.33006	0.29458
1044.04429	0.29970
1042.75852	0.30499
1041.47275	0.31042
1040.18698	0.31594
1038.90121	0.32146
1037.61544	0.32692
1036.32967	0.33237
1035.04391	0.33785
1033.75814	0.34334
1032.47237	0.34867
1031.18660	0.35366
1029.90083	0.35822
1028.61506	0.36230
1027.32929	0.36588
1026.04352	0.36893
1024.75775	0.37149
1023.47199	0.37360
1022.18622	0.37523
1020.90045	0.37629
1019.61468	0.37668
1018.32891	0.37635
1017.04314	0.37530
1015.75737	0.37351
1014.47160	0.37095
1013.18584	0.36761
1011.90007	0.36348
1010.61430	0.35857
1009.32853	0.35294
1008.04276	0.34666
1006.75699	0.33978
1005.47122	0.33235
1004.18545	0.32439
1002.89968	0.31593
1001.61392	0.30700
1000.32815	0.29765
999.04238	0.28796
997.75661	0.27803
996.47084	0.26800
995.18507	0.25796
993.89930	0.24798
992.61353	0.23811
991.32777	0.22846
990.04200	0.21914
988.75623	0.21020
987.47046	0.20158
986.18469	0.19323
984.89892	0.18517
983.61315	0.17750
982.32738	0.17027
981.04161	0.16350
979.75585	0.15713
978.47008	0.15119
977.18431	0.14576
975.89854	0.14093
974.61277	0.13674
973.32700	0.13318
972.04123	0.13023
970.75546	0.12798
969.46970	0.12653
968.18393	0.12596
966.89816	0.12619
965.61239	0.12699
964.32662	0.12802
963.04085	0.12895
961.75508	0.12947
960.46931	0.12937
959.18354	0.12846
957.89778	0.12670
956.61201	0.12419
955.32624	0.12117
954.04047	0.11784
952.75470	0.11435
951.46893	0.11081
950.18316	0.10737
948.89739	0.10411
947.61163	0.10097
946.32586	0.09789
945.04009	0.09490
943.75432	0.09204
942.46855	0.08932
941.18278	0.08670
939.89701	0.08418
938.61124	0.08179
937.32547	0.07956
936.03971	0.07750
934.75394	0.07563
933.46817	0.07394
932.18240	0.07239
930.89663	0.07090
929.61086	0.06948
928.32509	0.06818
927.03932	0.06706
925.75356	0.06605
924.46779	0.06505
923.18202	0.06404
921.89625	0.06306
920.61048	0.06218
919.32471	0.06139
918.03894	0.06068
916.75317	0.06001
915.46740	0.05935
914.18164	0.05869
912.89587	0.05800
911.61010	0.05730
910.32433	0.05666
909.03856	0.05613
907.75279	0.05571
906.46702	0.05532
905.18125	0.05487
903.89549	0.05433
902.60972	0.05374
901.32395	0.05317
900.03818	0.05268
898.75241	0.05224
897.46664	0.05181
896.18087	0.05139
894.89510	0.05105
893.60933	0.05092
892.32357	0.05106
891.03780	0.05140
889.75203	0.05181
888.46626	0.05225
887.18049	0.05288
885.89472	0.05400
884.60895	0.05594
883.32318	0.05879
882.03742	0.06229
880.75165	0.06587
879.46588	0.06892
878.18011	0.07122
876.89434	0.07303
875.60857	0.07477
874.32280	0.07653
873.03703	0.07798
871.75126	0.07860
870.46550	0.07810
869.17973	0.07655
867.89396	0.07424
866.60819	0.07150
865.32242	0.06863
864.03665	0.06585
862.75088	0.06325
861.46511	0.06082
860.17935	0.05854
858.89358	0.05648
857.60781	0.05470
856.32204	0.05324
855.03627	0.05208
853.75050	0.05116
852.46473	0.05042
851.17896	0.04979
849.89319	0.04922
848.60743	0.04869
847.32166	0.04818
846.03589	0.04766
844.75012	0.04714
843.46435	0.04665
842.17858	0.04621
840.89281	0.04584
839.60704	0.04548
838.32128	0.04511
837.03551	0.04476
835.74974	0.04448
834.46397	0.04425
833.17820	0.04403
831.89243	0.04384
830.60666	0.04367
829.32089	0.04348
828.03512	0.04323
826.74936	0.04294
825.46359	0.04272
824.17782	0.04260
822.89205	0.04253
821.60628	0.04243
820.32051	0.04234
819.03474	0.04230
817.74897	0.04230
816.46321	0.04226
815.17744	0.04212
813.89167	0.04194
812.60590	0.04180
811.32013	0.04170
810.03436	0.04165
808.74859	0.04166
807.46282	0.04171
806.17705	0.04173
804.89129	0.04166
803.60552	0.04159
802.31975	0.04160
801.03398	0.04170
799.74821	0.04181
798.46244	0.04187
797.17667	0.04189
795.89090	0.04189
794.60513	0.04185
793.31937	0.04172
792.03360	0.04155
790.74783	0.04141
789.46206	0.04134
788.17629	0.04132
786.89052	0.04132
785.60475	0.04134
784.31898	0.04137
783.03322	0.04134
781.74745	0.04124
780.46168	0.04111
779.17591	0.04102
777.89014	0.04097
776.60437	0.04094
775.31860	0.04089
774.03283	0.04086
772.74706	0.04087
771.46130	0.04092
770.17553	0.04096
768.88976	0.04096
767.60399	0.04093
766.31822	0.04089
765.03245	0.04087
763.74668	0.04088
762.46091	0.04091
761.17515	0.04097
759.88938	0.04104
758.60361	0.04109
757.31784	0.04115
756.03207	0.04121
754.74630	0.04124
753.46053	0.04124
752.17476	0.04119
750.88899	0.04110
749.60323	0.04098
748.31746	0.04090
747.03169	0.04090
745.74592	0.04100
744.46015	0.04111
743.17438	0.04116
741.88861	0.04115
740.60284	0.04108
739.31708	0.04097
738.03131	0.04085
736.74554	0.04081
735.45977	0.04087
734.17400	0.04100
732.88823	0.04106
731.60246	0.04102
730.31669	0.04096
729.03092	0.04096
727.74516	0.04097
726.45939	0.04093
725.17362	0.04084
723.88785	0.04080
722.60208	0.04076
721.31631	0.04069
720.03054	0.04061
718.74477	0.04054
717.45901	0.04056
716.17324	0.04063
714.88747	0.04069
713.60170	0.04072
712.31593	0.04074
711.03016	0.04077
709.74439	0.04080
708.45862	0.04079
707.17285	0.04072
705.88709	0.04062
704.60132	0.04053
703.31555	0.04045
702.02978	0.04039
700.74401	0.04034
699.45824	0.04030
698.17247	0.04030
696.88670	0.04035
695.60094	0.04042
694.31517	0.04051
693.02940	0.04056
691.74363	0.04057
690.45786	0.04051
689.17209	0.04041
687.88632	0.04029
686.60055	0.04018
685.31478	0.04008
684.02902	0.04002
682.74325	0.03998
681.45748	0.03994
680.17171	0.03988
678.88594	0.03983
677.60017	0.03981
676.31440	0.03983
675.02863	0.03989
673.74287	0.03999
672.45710	0.04009
671.17133	0.04007
669.88556	0.04001
668.59979	0.04036
667.31402	0.04038
666.02825	0.03983
664.74248	0.03982
663.45671	0.03980
662.17095	0.03965
660.88518	0.03950
659.59941	0.03936
658.31364	0.03920
657.02787	0.03905
655.74210	0.03895
654.45633	0.03894
653.17056	0.03901
651.88480	0.03910
650.59903	0.03916
649.31326	0.03919
648.02749	0.03920
646.74172	0.03921
645.45595	0.03926
644.17018	0.03934
642.88441	0.03946
641.59864	0.03963
640.31288	0.03984
639.02711	0.04010
637.74134	0.04041
636.45557	0.04081
635.16980	0.04133
633.88403	0.04194
632.59826	0.04255
631.31249	0.04316
630.02673	0.04406
628.74096	0.04513
627.45519	0.04535
626.16942	0.04706
624.88365	0.05003
623.59788	0.05345
622.31211	0.05707
621.02634	0.06089
619.74057	0.06476
618.45481	0.06837
617.16904	0.07154
615.88327	0.07440
614.59750	0.07713
613.31173	0.07988
612.02596	0.08286
610.74019	0.08670
609.45442	0.09236
608.16866	0.10044
606.88289	0.11040
605.59712	0.12056
604.31135	0.12868
603.02558	0.13306
601.73981	0.13353
600.45404	0.13134
599.16827	0.12786
597.88250	0.12389
596.59674	0.11971
595.31097	0.11557
594.02520	0.11174
592.73943	0.10851
591.45366	0.10604
590.16789	0.10441
588.88212	0.10369
587.59635	0.10391
586.31059	0.10504
585.02482	0.10697
583.73905	0.10945
582.45328	0.11230
581.16751	0.11543
579.88174	0.11884
578.59597	0.12250
577.31020	0.12621
576.02443	0.12976
574.73867	0.13302
573.45290	0.13610
572.16713	0.13931
570.88136	0.14298
569.59559	0.14732
568.30982	0.15231
567.02405	0.15774
565.73828	0.16323
564.45251	0.16818
563.16675	0.17187
561.88098	0.17368
560.59521	0.17323
559.30944	0.17045
558.02367	0.16551
556.73790	0.15885
555.45213	0.15110
554.16636	0.14293
552.88060	0.13482
551.59483	0.12706
550.30906	0.11978
549.02329	0.11316
547.73752	0.10731
546.45175	0.10221
545.16598	0.09769
543.88021	0.09356
542.59444	0.08972
541.30868	0.08615
540.02291	0.08287
538.73714	0.07990
537.45137	0.07721
536.16560	0.07475
534.87983	0.07248
533.59406	0.07039
532.30829	0.06850
531.02253	0.06680
529.73676	0.06527
528.45099	0.06385
527.16522	0.06250
525.87945	0.06115
524.59368	0.05976
523.30791	0.05834
522.02214	0.05696
520.73637	0.05569
519.45061	0.05455
518.16484	0.05353
516.87907	0.05259
515.59330	0.05170
514.30753	0.05081
513.02176	0.04988
511.73599	0.04893
510.45022	0.04802
509.16446	0.04726
507.87869	0.04665
506.59292	0.04612
505.30715	0.04555
504.02138	0.04487
502.73561	0.04416
501.44984	0.04353
500.16407	0.04309
498.87830	0.04286
497.59254	0.04274
496.30677	0.04261
495.02100	0.04233
493.73523	0.04190
492.44946	0.04145
491.16369	0.04115
489.87792	0.04106
488.59215	0.04108
487.30639	0.04113
486.02062	0.04119
484.73485	0.04133
483.44908	0.04158
482.16331	0.04186
480.87754	0.04209
479.59177	0.04223
478.30600	0.04232
477.02023	0.04244
475.73447	0.04270
474.44870	0.04315
473.16293	0.04372
471.87716	0.04425
470.59139	0.04456
469.30562	0.04458
468.01985	0.04436
466.73408	0.04405
465.44832	0.04375
464.16255	0.04345
462.87678	0.04307
461.59101	0.04256
460.30524	0.04199
459.01947	0.04143
457.73370	0.04091
456.44793	0.04042
455.16216	0.03997
453.87640	0.03964
452.59063	0.03941
451.30486	0.03918
450.01909	0.03887
448.73332	0.03850
447.44755	0.03820
446.16178	0.03802
444.87601	0.03794
443.59025	0.03788
442.30448	0.03778
441.01871	0.03762
439.73294	0.03739
438.44717	0.03714
437.16140	0.03689
435.87563	0.03668
434.58986	0.03650
433.30409	0.03632
432.01833	0.03615
430.73256	0.03601
429.44679	0.03588
428.16102	0.03575
426.87525	0.03558
425.58948	0.03540
424.30371	0.03521
423.01794	0.03502
421.73218	0.03484
420.44641	0.03466
419.16064	0.03446
417.87487	0.03426
416.58910	0.03407
415.30333	0.03392
414.01756	0.03383
412.73179	0.03376
411.44602	0.03365
410.16026	0.03350
408.87449	0.03337
407.58872	0.03328
406.30295	0.03326
405.01718	0.03327
403.73141	0.03334
402.44564	0.03347
401.15987	0.03365
399.87411	0.03383
