3997.45528	0.05153
3996.16951	0.05150
3994.88374	0.05174
3993.59798	0.05207
3992.31221	0.05206
3991.02644	0.05146
3989.74067	0.05042
3988.45490	0.04939
3987.16913	0.04883
3985.88336	0.04901
3984.59759	0.04986
3983.31183	0.05103
3982.02606	0.05204
3980.74029	0.05249
3979.45452	0.05238
3978.16875	0.05209
3976.88298	0.05196
3975.59721	0.05197
3974.31144	0.05190
3973.02567	0.05171
3971.73991	0.05162
3970.45414	0.05175
3969.16837	0.05190
3967.88260	0.05180
3966.59683	0.05150
3965.31106	0.05122
3964.02529	0.05093
3962.73952	0.05037
3961.45376	0.04934
3960.16799	0.04811
3958.88222	0.04729
3957.59645	0.04731
3956.31068	0.04802
3955.02491	0.04886
3953.73914	0.04945
3952.45337	0.04990
3951.16760	0.05052
3949.88184	0.05134
3948.59607	0.05198
3947.31030	0.05199
3946.02453	0.05126
3944.73876	0.05017
3943.45299	0.04927
3942.16722	0.04894
3940.88145	0.04918
3939.59569	0.04963
3938.30992	0.04988
3937.02415	0.04980
3935.73838	0.04960
3934.45261	0.04947
3933.16684	0.04937
3931.88107	0.04913
3930.59530	0.04887
3929.30953	0.04891
3928.02377	0.04939
3926.73800	0.05003
3925.45223	0.05043
3924.16646	0.05042
3922.88069	0.05024
3921.59492	0.05029
3920.30915	0.05077
3919.02338	0.05153
3917.73762	0.05226
3916.45185	0.05264
3915.16608	0.05253
3913.88031	0.05200
3912.59454	0.05132
3911.30877	0.05082
3910.02300	0.05071
3908.73723	0.05105
3907.45146	0.05179
3906.16570	0.05270
3904.87993	0.05320
3903.59416	0.05260
3902.30839	0.05077
3901.02262	0.04860
3899.73685	0.04732
3898.45108	0.04746
3897.16531	0.04845
3895.87955	0.04932
3894.59378	0.04964
3893.30801	0.04967
3892.02224	0.04979
3890.73647	0.05001
3889.45070	0.05020
3888.16493	0.05036
3886.87916	0.05057
3885.59339	0.05077
3884.30763	0.05082
3883.02186	0.05073
3881.73609	0.05059
3880.45032	0.05036
3879.16455	0.04997
3877.87878	0.04956
3876.59301	0.04941
3875.30724	0.04960
3874.02148	0.04988
3872.73571	0.05002
3871.44994	0.05003
3870.16417	0.04997
3868.87840	0.04979
3867.59263	0.04954
3866.30686	0.04932
3865.02109	0.04909
3863.73532	0.04873
3862.44956	0.04829
3861.16379	0.04792
3859.87802	0.04770
3858.59225	0.04759
3857.30648	0.04755
3856.02071	0.04759
3854.73494	0.04762
3853.44917	0.04737
3852.16341	0.04673
3850.87764	0.04603
3849.59187	0.04575
3848.30610	0.04621
3847.02033	0.04735
3845.73456	0.04882
3844.44879	0.05008
3843.16302	0.05059
3841.87725	0.05010
3840.59149	0.04889
3839.30572	0.04753
3838.01995	0.04653
3836.73418	0.04611
3835.44841	0.04625
3834.16264	0.04675
3832.87687	0.04728
3831.59110	0.04770
3830.30534	0.04808
3829.01957	0.04846
3827.73380	0.04869
3826.44803	0.04853
3825.16226	0.04798
3823.87649	0.04731
3822.59072	0.04680
3821.30495	0.04653
3820.01918	0.04652
3818.73342	0.04690
3817.44765	0.04767
3816.16188	0.04853
3814.87611	0.04915
3813.59034	0.04949
3812.30457	0.04958
3811.01880	0.04936
3809.73303	0.04886
3808.44726	0.04817
3807.16150	0.04741
3805.87573	0.04682
3804.58996	0.04681
3803.30419	0.04742
3802.01842	0.04810
3800.73265	0.04830
3799.44688	0.04811
3798.16111	0.04793
3796.87535	0.04784
3795.58958	0.04759
3794.30381	0.04715
3793.01804	0.04674
3791.73227	0.04658
3790.44650	0.04672
3789.16073	0.04704
3787.87496	0.04735
3786.58919	0.04754
3785.30343	0.04762
3784.01766	0.04757
3782.73189	0.04739
3781.44612	0.04717
3780.16035	0.04687
3778.87458	0.04630
3777.58881	0.04532
3776.30304	0.04418
3775.01728	0.04336
3773.73151	0.04315
3772.44574	0.04339
3771.15997	0.04377
3769.87420	0.04412
3768.58843	0.04460
3767.30266	0.04534
3766.01689	0.04611
3764.73112	0.04643
3763.44536	0.04611
3762.15959	0.04543
3760.87382	0.04481
3759.58805	0.04452
3758.30228	0.04459
3757.01651	0.04487
3755.73074	0.04525
3754.44497	0.04572
3753.15921	0.04625
3751.87344	0.04667
3750.58767	0.04678
3749.30190	0.04643
3748.01613	0.04573
3746.73036	0.04509
3745.44459	0.04477
3744.15882	0.04465
3742.87305	0.04466
3741.58729	0.04493
3740.30152	0.04525
3739.01575	0.04518
3737.72998	0.04464
3736.44421	0.04400
3735.15844	0.04367
3733.87267	0.04380
3732.58690	0.04415
3731.30114	0.04442
3730.01537	0.04447
3728.72960	0.04442
3727.44383	0.04433
3726.15806	0.04422
3724.87229	0.04410
3723.58652	0.04399
3722.30075	0.04385
3721.01498	0.04367
3719.72922	0.04347
3718.44345	0.04344
3717.15768	0.04381
3715.87191	0.04471
3714.58614	0.04600
3713.30037	0.04718
3712.01460	0.04775
3710.72883	0.04755
3709.44307	0.04682
3708.15730	0.04596
3706.87153	0.04523
3705.58576	0.04468
3704.29999	0.04417
3703.01422	0.04365
3701.72845	0.04330
3700.44268	0.04335
3699.15691	0.04375
3697.87115	0.04425
3696.58538	0.04454
3695.29961	0.04454
3694.01384	0.04431
3692.72807	0.04406
3691.44230	0.04384
3690.15653	0.04367
3688.87076	0.04362
3687.58500	0.04363
3686.29923	0.04358
3685.01346	0.04353
3683.72769	0.04353
3682.44192	0.04373
3681.15615	0.04437
3679.87038	0.04550
3678.58461	0.04687
3677.29884	0.04796
3676.01308	0.04798
3674.72731	0.04660
3673.44154	0.04458
3672.15577	0.04313
3670.87000	0.04280
3669.58423	0.04314
3668.29846	0.04359
3667.01269	0.04397
3665.72693	0.04428
3664.44116	0.04447
3663.15539	0.04445
3661.86962	0.04426
3660.58385	0.04411
3659.29808	0.04415
3658.01231	0.04435
3656.72654	0.04454
3655.44077	0.04464
3654.15501	0.04473
3652.86924	0.04478
3651.58347	0.04459
3650.29770	0.04399
3649.01193	0.04322
3647.72616	0.04278
3646.44039	0.04290
3645.15462	0.04339
3643.86886	0.04389
3642.58309	0.04424
3641.29732	0.04456
3640.01155	0.04499
3638.72578	0.04557
3637.44001	0.04621
3636.15424	0.04683
3634.86847	0.04733
3633.58270	0.04755
3632.29694	0.04741
3631.01117	0.04701
3629.72540	0.04660
3628.43963	0.04636
3627.15386	0.04638
3625.86809	0.04661
3624.58232	0.04684
3623.29655	0.04686
3622.01079	0.04667
3620.72502	0.04640
3619.43925	0.04623
3618.15348	0.04627
3616.86771	0.04661
3615.58194	0.04718
3614.29617	0.04782
3613.01040	0.04829
3611.72463	0.04851
3610.43887	0.04849
3609.15310	0.04832
3607.86733	0.04807
3606.58156	0.04786
3605.29579	0.04785
3604.01002	0.04821
3602.72425	0.04892
3601.43848	0.04967
3600.15272	0.05004
3598.86695	0.04991
3597.58118	0.04964
3596.29541	0.04962
3595.00964	0.04976
3593.72387	0.04968
3592.43810	0.04933
3591.15233	0.04909
3589.86656	0.04935
3588.58080	0.05008
3587.29503	0.05085
3586.00926	0.05114
3584.72349	0.05078
3583.43772	0.05010
3582.15195	0.04961
3580.86618	0.04948
3579.58041	0.04954
3578.29464	0.04956
3577.00888	0.04958
3575.72311	0.04981
3574.43734	0.05031
3573.15157	0.05080
3571.86580	0.05098
3570.58003	0.05083
3569.29426	0.05063
3568.00849	0.05060
3566.72273	0.05072
3565.43696	0.05090
3564.15119	0.05115
3562.86542	0.05150
3561.57965	0.05181
3560.29388	0.05189
3559.00811	0.05181
3557.72234	0.05191
3556.43657	0.05232
3555.15081	0.05287
3553.86504	0.05319
3552.57927	0.05314
3551.29350	0.05287
3550.00773	0.05273
3548.72196	0.05301
3547.43619	0.05380
3546.15042	0.05487
3544.86466	0.05580
3543.57889	0.05627
3542.29312	0.05625
3541.00735	0.05601
3539.72158	0.05583
3538.43581	0.05572
3537.15004	0.05554
3535.86427	0.05527
3534.57850	0.05510
3533.29274	0.05520
3532.00697	0.05558
3530.72120	0.05599
3529.43543	0.05623
3528.14966	0.05630
3526.86389	0.05637
3525.57812	0.05661
3524.29235	0.05696
3523.00659	0.05725
3521.72082	0.05741
3520.43505	0.05754
3519.14928	0.05776
3517.86351	0.05804
3516.57774	0.05820
3515.29197	0.05815
3514.00620	0.05804
3512.72043	0.05807
3511.43467	0.05831
3510.14890	0.05856
3508.86313	0.05861
3507.57736	0.05849
3506.29159	0.05843
3505.00582	0.05857
3503.72005	0.05879
3502.43428	0.05892
3501.14852	0.05891
3499.86275	0.05888
3498.57698	0.05884
3497.29121	0.05870
3496.00544	0.05844
3494.71967	0.05822
3493.43390	0.05831
3492.14813	0.05874
3490.86236	0.05932
3489.57660	0.05981
3488.29083	0.06008
3487.00506	0.06010
3485.71929	0.05996
3484.43352	0.05988
3483.14775	0.06011
3481.86198	0.06068
3480.57621	0.06136
3479.29045	0.06185
3478.00468	0.06205
3476.71891	0.06206
3475.43314	0.06198
3474.14737	0.06191
3472.86160	0.06195
3471.57583	0.06219
3470.29006	0.06253
3469.00429	0.06272
3467.71853	0.06258
3466.43276	0.06221
3465.14699	0.06191
3463.86122	0.06191
3462.57545	0.06226
3461.28968	0.06277
3460.00391	0.06321
3458.71814	0.06351
3457.43238	0.06374
3456.14661	0.06404
3454.86084	0.06438
3453.57507	0.06472
3452.28930	0.06503
3451.00353	0.06535
3449.71776	0.06560
3448.43199	0.06562
3447.14622	0.06538
3445.86046	0.06502
3444.57469	0.06471
3443.28892	0.06450
3442.00315	0.06432
3440.71738	0.06412
3439.43161	0.06397
3438.14584	0.06402
3436.86007	0.06441
3435.57431	0.06500
3434.28854	0.06548
3433.00277	0.06561
3431.71700	0.06548
3430.43123	0.06542
3429.14546	0.06556
3427.85969	0.06577
3426.57392	0.06582
3425.28815	0.06570
3424.00239	0.06568
3422.71662	0.06596
3421.43085	0.06641
3420.14508	0.06669
3418.85931	0.06658
3417.57354	0.06624
3416.28777	0.06602
3415.00200	0.06611
3413.71624	0.06633
3412.43047	0.06641
3411.14470	0.06618
3409.85893	0.06581
3408.57316	0.06558
3407.28739	0.06571
3406.00162	0.06621
3404.71585	0.06691
3403.43008	0.06763
3402.14432	0.06823
3400.85855	0.06873
3399.57278	0.06910
3398.28701	0.06923
3397.00124	0.06903
3395.71547	0.06865
3394.42970	0.06841
3393.14393	0.06846
3391.85817	0.06861
3390.57240	0.06854
3389.28663	0.06824
3388.00086	0.06800
3386.71509	0.06799
3385.42932	0.06800
3384.14355	0.06786
3382.85778	0.06771
3381.57201	0.06788
3380.28625	0.06841
3379.00048	0.06906
3377.71471	0.06959
3376.42894	0.06992
3375.14317	0.07001
3373.85740	0.06984
3372.57163	0.06950
3371.28586	0.06929
3370.00010	0.06947
3368.71433	0.07006
3367.42856	0.07080
3366.14279	0.07133
3364.85702	0.07139
3363.57125	0.07090
3362.28548	0.07000
3360.99971	0.06904
3359.71394	0.06849
3358.42818	0.06859
3357.14241	0.06916
3355.85664	0.06980
3354.57087	0.07027
3353.28510	0.07062
3351.99933	0.07098
3350.71356	0.07134
3349.42779	0.07154
3348.14202	0.07146
3346.85626	0.07114
3345.57049	0.07074
3344.28472	0.07049
3342.99895	0.07042
3341.71318	0.07040
3340.42741	0.07020
3339.14164	0.06981
3337.85587	0.06943
3336.57011	0.06934
3335.28434	0.06953
3333.99857	0.06975
3332.71280	0.06971
3331.42703	0.06942
3330.14126	0.06921
3328.85549	0.06934
3327.56972	0.06982
3326.28395	0.07041
3324.99819	0.07085
3323.71242	0.07104
3322.42665	0.07108
3321.14088	0.07105
3319.85511	0.07097
3318.56934	0.07081
3317.28357	0.07075
3315.99780	0.07103
3314.71204	0.07166
3313.42627	0.07230
3312.14050	0.07257
3310.85473	0.07239
3309.56896	0.07198
3308.28319	0.07155
3306.99742	0.07119
3305.71165	0.07090
3304.42588	0.07076
3303.14012	0.07085
3301.85435	0.07114
3300.56858	0.07148
3299.28281	0.07167
3297.99704	0.07158
3296.71127	0.07123
3295.42550	0.07086
3294.13973	0.07072
3292.85397	0.07086
3291.56820	0.07102
3290.28243	0.07093
3288.99666	0.07060
3287.71089	0.07030
3286.42512	0.07016
3285.13935	0.07010
3283.85358	0.06999
3282.56781	0.06990
3281.28205	0.06996
3279.99628	0.07022
3278.71051	0.07058
3277.42474	0.07085
3276.13897	0.07086
3274.85320	0.07051
3273.56743	0.06996
3272.28166	0.06950
3270.99590	0.06942
3269.71013	0.06976
3268.42436	0.07023
3267.13859	0.07050
3265.85282	0.07051
3264.56705	0.07048
3263.28128	0.07062
3261.99551	0.07086
3260.70974	0.07093
3259.42398	0.07068
3258.13821	0.07017
3256.85244	0.06955
3255.56667	0.06885
3254.28090	0.06805
3252.99513	0.06728
3251.70936	0.06680
3250.42359	0.06682
3249.13783	0.06737
3247.85206	0.06821
3246.56629	0.06901
3245.28052	0.06947
3243.99475	0.06951
3242.70898	0.06933
3241.42321	0.06920
3240.13744	0.06924
3238.85167	0.06933
3237.56591	0.06928
3236.28014	0.06896
3234.99437	0.06833
3233.70860	0.06746
3232.42283	0.06660
3231.13706	0.06619
3229.85129	0.06650
3228.56552	0.06729
3227.27976	0.06799
3225.99399	0.06817
3224.70822	0.06792
3223.42245	0.06764
3222.13668	0.06758
3220.85091	0.06766
3219.56514	0.06768
3218.27937	0.06760
3216.99360	0.06746
3215.70784	0.06730
3214.42207	0.06712
3213.13630	0.06688
3211.85053	0.06666
3210.56476	0.06657
3209.27899	0.06668
3207.99322	0.06696
3206.70745	0.06720
3205.42169	0.06715
3204.13592	0.06669
3202.85015	0.06597
3201.56438	0.06530
3200.27861	0.06494
3198.99284	0.06495
3197.70707	0.06521
3196.42130	0.06552
3195.13553	0.06580
3193.84977	0.06603
3192.56400	0.06623
3191.27823	0.06632
3189.99246	0.06624
3188.70669	0.06598
3187.42092	0.06568
3186.13515	0.06541
3184.84938	0.06517
3183.56362	0.06490
3182.27785	0.06464
3180.99208	0.06452
3179.70631	0.06464
3178.42054	0.06492
3177.13477	0.06525
3175.84900	0.06552
3174.56323	0.06559
3173.27746	0.06533
3171.99170	0.06474
3170.70593	0.06410
3169.42016	0.06373
3168.13439	0.06370
3166.84862	0.06381
3165.56285	0.06383
3164.27708	0.06370
3162.99131	0.06344
3161.70555	0.06306
3160.41978	0.06263
3159.13401	0.06230
3157.84824	0.06225
3156.56247	0.06255
3155.27670	0.06306
3153.99093	0.06349
3152.70516	0.06353
3151.41939	0.06310
3150.13363	0.06257
3148.84786	0.06241
3147.56209	0.06274
3146.27632	0.06324
3144.99055	0.06352
3143.70478	0.06344
3142.41901	0.06310
3141.13324	0.06264
3139.84748	0.06215
3138.56171	0.06161
3137.27594	0.06105
3135.99017	0.06059
3134.70440	0.06046
3133.41863	0.06071
3132.13286	0.06112
3130.84709	0.06135
3129.56132	0.06128
3128.27556	0.06103
3126.98979	0.06086
3125.70402	0.06085
3124.41825	0.06094
3123.13248	0.06097
3121.84671	0.06080
3120.56094	0.06041
3119.27517	0.05992
3117.98940	0.05948
3116.70364	0.05921
3115.41787	0.05913
3114.13210	0.05927
3112.84633	0.05962
3111.56056	0.06011
3110.27479	0.06056
3108.98902	0.06069
3107.70325	0.06033
3106.41749	0.05957
3105.13172	0.05883
3103.84595	0.05852
3102.56018	0.05869
3101.27441	0.05905
3099.98864	0.05928
3098.70287	0.05941
3097.41710	0.05970
3096.13133	0.06021
3094.84557	0.06067
3093.55980	0.06074
3092.27403	0.06039
3090.98826	0.05991
3089.70249	0.05966
3088.41672	0.05970
3087.13095	0.05986
3085.84518	0.05985
3084.55942	0.05953
3083.27365	0.05902
3081.98788	0.05861
3080.70211	0.05851
3079.41634	0.05865
3078.13057	0.05882
3076.84480	0.05887
3075.55903	0.05886
3074.27326	0.05887
3072.98750	0.05895
3071.70173	0.05906
3070.41596	0.05914
3069.13019	0.05909
3067.84442	0.05897
3066.55865	0.05892
3065.27288	0.05902
3063.98711	0.05916
3062.70135	0.05916
3061.41558	0.05898
3060.12981	0.05876
3058.84404	0.05864
3057.55827	0.05865
3056.27250	0.05872
3054.98673	0.05874
3053.70096	0.05866
3052.41519	0.05842
3051.12943	0.05799
3049.84366	0.05738
3048.55789	0.05677
3047.27212	0.05642
3045.98635	0.05647
3044.70058	0.05678
3043.41481	0.05708
3042.12904	0.05717
3040.84328	0.05710
3039.55751	0.05701
3038.27174	0.05705
3036.98597	0.05725
3035.70020	0.05753
3034.41443	0.05774
3033.12866	0.05773
3031.84289	0.05749
3030.55712	0.05715
3029.27136	0.05681
3027.98559	0.05653
3026.69982	0.05629
3025.41405	0.05609
3024.12828	0.05592
3022.84251	0.05580
3021.55674	0.05568
3020.27097	0.05551
3018.98521	0.05525
3017.69944	0.05491
3016.41367	0.05464
3015.12790	0.05455
3013.84213	0.05461
3012.55636	0.05466
3011.27059	0.05458
3009.98482	0.05440
3008.69905	0.05423
3007.41329	0.05421
3006.12752	0.05442
3004.84175	0.05476
3003.55598	0.05501
3002.27021	0.05495
3000.98444	0.05457
2999.69867	0.05407
2998.41290	0.05371
2997.12714	0.05357
2995.84137	0.05356
2994.55560	0.05359
2993.26983	0.05358
2991.98406	0.05354
2990.69829	0.05352
2989.41252	0.05358
2988.12675	0.05378
2986.84098	0.05411
2985.55522	0.05449
2984.26945	0.05477
2982.98368	0.05483
2981.69791	0.05472
2980.41214	0.05462
2979.12637	0.05469
2977.84060	0.05487
2976.55483	0.05504
2975.26907	0.05519
2973.98330	0.05544
2972.69753	0.05594
2971.41176	0.05671
2970.12599	0.05765
2968.84022	0.05859
2967.55445	0.05941
2966.26868	0.06016
2964.98291	0.06094
2963.69715	0.06171
2962.41138	0.06232
2961.12561	0.06280
2959.83984	0.06334
2958.55407	0.06401
2957.26830	0.06468
2955.98253	0.06529
2954.69676	0.06592
2953.41100	0.06662
2952.12523	0.06721
2950.83946	0.06748
2949.55369	0.06744
2948.26792	0.06728
2946.98215	0.06711
2945.69638	0.06699
2944.41061	0.06698
2943.12484	0.06714
2941.83908	0.06741
2940.55331	0.06767
2939.26754	0.06787
2937.98177	0.06813
2936.69600	0.06851
2935.41023	0.06889
2934.12446	0.06909
2932.83869	0.06906
2931.55293	0.06892
2930.26716	0.06881
2928.98139	0.06877
2927.69562	0.06872
2926.40985	0.06853
2925.12408	0.06813
2923.83831	0.06748
2922.55254	0.06659
2921.26677	0.06548
2919.98101	0.06427
2918.69524	0.06322
2917.40947	0.06258
2916.12370	0.06256
2914.83793	0.06316
2913.55216	0.06420
2912.26639	0.06539
2910.98062	0.06642
2909.69486	0.06709
2908.40909	0.06738
2907.12332	0.06745
2905.83755	0.06743
2904.55178	0.06735
2903.26601	0.06721
2901.98024	0.06708
2900.69447	0.06697
2899.40870	0.06685
2898.12294	0.06667
2896.83717	0.06644
2895.55140	0.06616
2894.26563	0.06582
2892.97986	0.06543
2891.69409	0.06503
2890.40832	0.06467
2889.12255	0.06431
2887.83678	0.06392
2886.55102	0.06345
2885.26525	0.06297
2883.97948	0.06258
2882.69371	0.06241
2881.40794	0.06243
2880.12217	0.06250
2878.83640	0.06250
2877.55063	0.06248
2876.26487	0.06257
2874.97910	0.06289
2873.69333	0.06342
2872.40756	0.06396
2871.12179	0.06426
2869.83602	0.06422
2868.55025	0.06397
2867.26448	0.06378
2865.97871	0.06381
2864.69295	0.06405
2863.40718	0.06432
2862.12141	0.06441
2860.83564	0.06426
2859.54987	0.06391
2858.26410	0.06336
2856.97833	0.06250
2855.69256	0.06133
2854.40680	0.06004
2853.12103	0.05885
2851.83526	0.05788
2850.54949	0.05721
2849.26372	0.05695
2847.97795	0.05715
2846.69218	0.05771
2845.40641	0.05840
2844.12064	0.05900
2842.83488	0.05938
2841.54911	0.05948
2840.26334	0.05932
2838.97757	0.05904
2837.69180	0.05875
2836.40603	0.05847
2835.12026	0.05811
2833.83449	0.05759
2832.54873	0.05689
2831.26296	0.05608
2829.97719	0.05530
2828.69142	0.05475
2827.40565	0.05452
2826.11988	0.05447
2824.83411	0.05436
2823.54834	0.05406
2822.26257	0.05358
2820.97681	0.05304
2819.69104	0.05254
2818.40527	0.05223
2817.11950	0.05217
2815.83373	0.05226
2814.54796	0.05233
2813.26219	0.05229
2811.97642	0.05224
2810.69066	0.05225
2809.40489	0.05230
2808.11912	0.05233
2806.83335	0.05230
2805.54758	0.05218
2804.26181	0.05192
2802.97604	0.05151
2801.69027	0.05103
2800.40450	0.05061
2799.11874	0.05035
2797.83297	0.05024
2796.54720	0.05022
2795.26143	0.05025
2793.97566	0.05031
2792.68989	0.05037
2791.40412	0.05038
2790.11835	0.05030
2788.83259	0.05010
2787.54682	0.04983
2786.26105	0.04952
2784.97528	0.04916
2783.68951	0.04877
2782.40374	0.04846
2781.11797	0.04841
2779.83220	0.04868
2778.54643	0.04911
2777.26067	0.04947
2775.97490	0.04960
2774.68913	0.04951
2773.40336	0.04930
2772.11759	0.04910
2770.83182	0.04896
2769.54605	0.04880
2768.26028	0.04853
2766.97452	0.04826
2765.68875	0.04815
2764.40298	0.04828
2763.11721	0.04849
2761.83144	0.04856
2760.54567	0.04842
2759.25990	0.04816
2757.97413	0.04790
2756.68836	0.04774
2755.40260	0.04775
2754.11683	0.04793
2752.83106	0.04813
2751.54529	0.04807
2750.25952	0.04772
2748.97375	0.04736
2747.68798	0.04728
2746.40221	0.04747
2745.11645	0.04766
2743.83068	0.04762
2742.54491	0.04738
2741.25914	0.04707
2739.97337	0.04677
2738.68760	0.04652
2737.40183	0.04636
2736.11606	0.04634
2734.83029	0.04641
2733.54453	0.04653
2732.25876	0.04663
2730.97299	0.04663
2729.68722	0.04655
2728.40145	0.04645
2727.11568	0.04637
2725.82991	0.04632
2724.54414	0.04627
2723.25838	0.04622
2721.97261	0.04610
2720.68684	0.04588
2719.40107	0.04561
2718.11530	0.04542
2716.82953	0.04541
2715.54376	0.04553
2714.25799	0.04566
2712.97222	0.04578
2711.68646	0.04591
2710.40069	0.04601
2709.11492	0.04596
2707.82915	0.04571
2706.54338	0.04535
2705.25761	0.04509
2703.97184	0.04506
2702.68607	0.04517
2701.40031	0.04522
2700.11454	0.04510
2698.82877	0.04485
2697.54300	0.04458
2696.25723	0.04438
2694.97146	0.04432
2693.68569	0.04442
2692.39992	0.04462
2691.11415	0.04477
2689.82839	0.04480
2688.54262	0.04477
2687.25685	0.04474
2685.97108	0.04472
2684.68531	0.04465
2683.39954	0.04450
2682.11377	0.04433
2680.82800	0.04420
2679.54224	0.04415
2678.25647	0.04415
2676.97070	0.04419
2675.68493	0.04430
2674.39916	0.04449
2673.11339	0.04464
2671.82762	0.04460
2670.54185	0.04437
2669.25608	0.04414
2667.97032	0.04411
2666.68455	0.04425
2665.39878	0.04440
2664.11301	0.04441
2662.82724	0.04423
2661.54147	0.04392
2660.25570	0.04361
2658.96993	0.04343
2657.68417	0.04339
2656.39840	0.04341
2655.11263	0.04337
2653.82686	0.04320
2652.54109	0.04290
2651.25532	0.04250
2649.96955	0.04214
2648.68378	0.04200
2647.39801	0.04209
2646.11225	0.04225
2644.82648	0.04233
2643.54071	0.04231
2642.25494	0.04221
2640.96917	0.04202
2639.68340	0.04174
2638.39763	0.04146
2637.11186	0.04122
2635.82609	0.04101
2634.54033	0.04078
2633.25456	0.04051
2631.96879	0.04022
2630.68302	0.03995
2629.39725	0.03972
2628.11148	0.03953
2626.82571	0.03934
2625.53994	0.03909
2624.25418	0.03885
2622.96841	0.03879
2621.68264	0.03898
2620.39687	0.03927
2619.11110	0.03935
2617.82533	0.03912
2616.53956	0.03877
2615.25379	0.03856
2613.96802	0.03854
2612.68226	0.03860
2611.39649	0.03860
2610.11072	0.03842
2608.82495	0.03811
2607.53918	0.03792
2606.25341	0.03807
2604.96764	0.03853
2603.68187	0.03898
2602.39611	0.03910
2601.11034	0.03876
2599.82457	0.03806
2598.53880	0.03732
2597.25303	0.03686
2595.96726	0.03683
2594.68149	0.03707
2593.39572	0.03731
2592.10995	0.03747
2590.82419	0.03759
2589.53842	0.03766
2588.25265	0.03750
2586.96688	0.03699
2585.68111	0.03637
2584.39534	0.03606
2583.10957	0.03624
2581.82380	0.03654
2580.53804	0.03650
2579.25227	0.03605
2577.96650	0.03556
2576.68073	0.03543
2575.39496	0.03567
2574.10919	0.03600
2572.82342	0.03616
2571.53765	0.03606
2570.25188	0.03585
2568.96612	0.03572
2567.68035	0.03572
2566.39458	0.03571
2565.10881	0.03558
2563.82304	0.03537
2562.53727	0.03526
2561.25150	0.03539
2559.96573	0.03565
2558.67997	0.03588
2557.39420	0.03590
2556.10843	0.03567
2554.82266	0.03523
2553.53689	0.03475
2552.25112	0.03437
2550.96535	0.03416
2549.67958	0.03412
2548.39381	0.03427
2547.10805	0.03461
2545.82228	0.03500
2544.53651	0.03519
2543.25074	0.03499
2541.96497	0.03448
2540.67920	0.03397
2539.39343	0.03376
2538.10766	0.03386
2536.82190	0.03407
2535.53613	0.03421
2534.25036	0.03432
2532.96459	0.03446
2531.67882	0.03462
2530.39305	0.03475
2529.10728	0.03488
2527.82151	0.03505
2526.53574	0.03526
2525.24998	0.03538
2523.96421	0.03527
2522.67844	0.03493
2521.39267	0.03456
2520.10690	0.03442
2518.82113	0.03456
2517.53536	0.03476
2516.24959	0.03480
2514.96383	0.03464
2513.67806	0.03441
2512.39229	0.03414
2511.10652	0.03383
2509.82075	0.03358
2508.53498	0.03356
2507.24921	0.03379
2505.96344	0.03405
2504.67767	0.03403
2503.39191	0.03375
2502.10614	0.03351
2500.82037	0.03358
2499.53460	0.03386
2498.24883	0.03405
2496.96306	0.03395
2495.67729	0.03367
2494.39152	0.03342
2493.10576	0.03331
2491.81999	0.03329
2490.53422	0.03335
2489.24845	0.03347
2487.96268	0.03359
2486.67691	0.03360
2485.39114	0.03348
2484.10537	0.03329
2482.81960	0.03309
2481.53384	0.03295
2480.24807	0.03291
2478.96230	0.03291
2477.67653	0.03288
2476.39076	0.03281
2475.10499	0.03276
2473.81922	0.03276
2472.53345	0.03279
2471.24769	0.03281
2469.96192	0.03281
2468.67615	0.03279
2467.39038	0.03281
2466.10461	0.03286
2464.81884	0.03287
2463.53307	0.03280
2462.24730	0.03275
2460.96153	0.03279
2459.67577	0.03281
2458.39000	0.03268
2457.10423	0.03250
2455.81846	0.03255
2454.53269	0.03290
2453.24692	0.03326
2451.96115	0.03328
2450.67538	0.03305
2449.38962	0.03288
2448.10385	0.03287
2446.81808	0.03278
2445.53231	0.03240
2444.24654	0.03189
2442.96077	0.03154
2441.67500	0.03142
2440.38923	0.03135
2439.10346	0.03120
2437.81770	0.03100
2436.53193	0.03087
2435.24616	0.03095
2433.96039	0.03128
2432.67462	0.03172
2431.38885	0.03209
2430.10308	0.03222
2428.81731	0.03211
2427.53155	0.03188
2426.24578	0.03168
2424.96001	0.03159
2423.67424	0.03161
2422.38847	0.03166
2421.10270	0.03173
2419.81693	0.03178
2418.53116	0.03179
2417.24539	0.03177
2415.95963	0.03177
2414.67386	0.03183
2413.38809	0.03196
2412.10232	0.03211
2410.81655	0.03220
2409.53078	0.03212
2408.24501	0.03188
2406.95924	0.03163
2405.67347	0.03148
2404.38771	0.03142
2403.10194	0.03138
2401.81617	0.03138
2400.53040	0.03148
2399.24463	0.03173
2397.95886	0.03202
2396.67309	0.03220
2395.38732	0.03225
2394.10156	0.03218
2392.81579	0.03213
2391.53002	0.03216
2390.24425	0.03228
2388.95848	0.03237
2387.67271	0.03234
2386.38694	0.03218
2385.10117	0.03197
2383.81540	0.03173
2382.52964	0.03149
2381.24387	0.03124
2379.95810	0.03104
2378.67233	0.03093
2377.38656	0.03083
2376.10079	0.03059
2374.81502	0.03009
2373.52925	0.02950
2372.24349	0.02897
2370.95772	0.02877
2369.67195	0.02866
2368.38618	0.02863
2367.10041	0.02874
2365.81464	0.02900
2364.52887	0.02897
2363.24310	0.02886
2361.95733	0.02892
2360.67157	0.02930
2359.38580	0.02947
2358.10003	0.02952
2356.81426	0.02955
2355.52849	0.02959
2354.24272	0.02971
2352.95695	0.02975
2351.67118	0.02996
2350.38542	0.03051
2349.09965	0.03093
2347.81388	0.03079
2346.52811	0.03062
2345.24234	0.03059
2343.95657	0.03047
2342.67080	0.03001
2341.38503	0.02989
2340.09926	0.03035
2338.81350	0.03055
2337.52773	0.03034
2336.24196	0.03038
2334.95619	0.03068
2333.67042	0.03053
2332.38465	0.02975
2331.09888	0.02991
2329.81311	0.03040
2328.52735	0.02995
2327.24158	0.03054
2325.95581	0.03159
2324.67004	0.03143
2323.38427	0.03152
2322.09850	0.03208
2320.81273	0.03148
2319.52696	0.03131
2318.24119	0.03141
2316.95543	0.03074
2315.66966	0.03048
2314.38389	0.03039
2313.09812	0.03008
2311.81235	0.03021
2310.52658	0.03013
2309.24081	0.03000
2307.95504	0.03008
2306.66928	0.02995
2305.38351	0.02998
2304.09774	0.02999
2302.81197	0.02995
2301.52620	0.03004
2300.24043	0.03009
2298.95466	0.03018
2297.66889	0.03017
2296.38312	0.03005
2295.09736	0.02989
2293.81159	0.02971
2292.52582	0.02963
2291.24005	0.02951
2289.95428	0.02926
2288.66851	0.02882
2287.38274	0.02830
2286.09697	0.02786
2284.81121	0.02761
2283.52544	0.02762
2282.23967	0.02787
2280.95390	0.02820
2279.66813	0.02830
2278.38236	0.02787
2277.09659	0.02691
2275.81082	0.02589
2274.52505	0.02544
2273.23929	0.02577
2271.95352	0.02650
2270.66775	0.02698
2269.38198	0.02683
2268.09621	0.02610
2266.81044	0.02524
2265.52467	0.02478
2264.23890	0.02499
2262.95314	0.02566
2261.66737	0.02627
2260.38160	0.02637
2259.09583	0.02593
2257.81006	0.02533
2256.52429	0.02489
2255.23852	0.02457
2253.95275	0.02423
2252.66698	0.02384
2251.38122	0.02356
2250.09545	0.02357
2248.80968	0.02378
2247.52391	0.02382
2246.23814	0.02347
2244.95237	0.02285
2243.66660	0.02226
2242.38083	0.02190
2241.09507	0.02174
2239.80930	0.02166
2238.52353	0.02167
2237.23776	0.02184
2235.95199	0.02209
2234.66622	0.02229
2233.38045	0.02238
2232.09468	0.02239
2230.80891	0.02217
2229.52315	0.02157
2228.23738	0.02068
2226.95161	0.01998
2225.66584	0.01980
2224.38007	0.02000
2223.09430	0.02012
2221.80853	0.01991
2220.52276	0.01946
2219.23700	0.01910
2217.95123	0.01911
2216.66546	0.01968
2215.37969	0.02070
2214.09392	0.02162
2212.80815	0.02182
2211.52238	0.02122
2210.23661	0.02061
2208.95084	0.02088
2207.66508	0.02209
2206.37931	0.02324
2205.09354	0.02328
2203.80777	0.02216
2202.52200	0.02070
2201.23623	0.01971
2199.95046	0.01921
2198.66469	0.01864
2197.37893	0.01749
2196.09316	0.01587
2194.80739	0.01451
2193.52162	0.01431
2192.23585	0.01552
2190.95008	0.01740
2189.66431	0.01881
2188.37854	0.01921
2187.09277	0.01892
2185.80701	0.01845
2184.52124	0.01783
2183.23547	0.01684
2181.94970	0.01557
2180.66393	0.01455
2179.37816	0.01429
2178.09239	0.01482
2176.80662	0.01583
2175.52085	0.01702
2174.23509	0.01815
2172.94932	0.01895
2171.66355	0.01914
2170.37778	0.01872
2169.09201	0.01794
2167.80624	0.01715
2166.52047	0.01645
2165.23470	0.01572
2163.94894	0.01484
2162.66317	0.01376
2161.37740	0.01261
2160.09163	0.01186
2158.80586	0.01201
2157.52009	0.01282
2156.23432	0.01335
2154.94855	0.01300
2153.66278	0.01206
2152.37702	0.01133
2151.09125	0.01130
2149.80548	0.01201
2148.51971	0.01323
2147.23394	0.01470
2145.94817	0.01617
2144.66240	0.01735
2143.37663	0.01791
2142.09087	0.01763
2140.80510	0.01678
2139.51933	0.01603
2138.23356	0.01591
2136.94779	0.01632
2135.66202	0.01684
2134.37625	0.01728
2133.09048	0.01773
2131.80471	0.01823
2130.51895	0.01873
2129.23318	0.01909
2127.94741	0.01916
2126.66164	0.01876
2125.37587	0.01800
2124.09010	0.01735
2122.80433	0.01719
2121.51856	0.01750
2120.23280	0.01792
2118.94703	0.01824
2117.66126	0.01851
2116.37549	0.01885
2115.08972	0.01924
2113.80395	0.01949
2112.51818	0.01943
2111.23241	0.01911
2109.94664	0.01880
2108.66088	0.01885
2107.37511	0.01934
2106.08934	0.01996
2104.80357	0.02020
2103.51780	0.01981
2102.23203	0.01895
2100.94626	0.01794
2099.66049	0.01714
2098.37473	0.01668
2097.08896	0.01661
2095.80319	0.01676
2094.51742	0.01696
2093.23165	0.01714
2091.94588	0.01736
2090.66011	0.01765
2089.37434	0.01795
2088.08857	0.01820
2086.80281	0.01844
2085.51704	0.01880
2084.23127	0.01926
2082.94550	0.01957
2081.65973	0.01936
2080.37396	0.01859
2079.08819	0.01759
2077.80242	0.01680
2076.51666	0.01641
2075.23089	0.01632
2073.94512	0.01632
2072.65935	0.01617
2071.37358	0.01582
2070.08781	0.01547
2068.80204	0.01541
2067.51627	0.01575
2066.23050	0.01628
2064.94474	0.01673
2063.65897	0.01696
2062.37320	0.01696
2061.08743	0.01677
2059.80166	0.01650
2058.51589	0.01617
2057.23012	0.01577
2055.94435	0.01528
2054.65859	0.01489
2053.37282	0.01480
2052.08705	0.01496
2050.80128	0.01498
2049.51551	0.01445
2048.22974	0.01336
2046.94397	0.01215
2045.65820	0.01134
2044.37243	0.01106
2043.08667	0.01097
2041.80090	0.01063
2040.51513	0.00993
2039.22936	0.00913
2037.94359	0.00862
2036.65782	0.00859
2035.37205	0.00896
2034.08628	0.00951
2032.80052	0.01003
2031.51475	0.01045
2030.22898	0.01092
2028.94321	0.01160
2027.65744	0.01229
2026.37167	0.01243
2025.08590	0.01162
2023.80013	0.01018
2022.51436	0.00903
2021.22860	0.00878
2019.94283	0.00910
2018.65706	0.00919
2017.37129	0.00875
2016.08552	0.00814
2014.79975	0.00790
2013.51398	0.00821
2012.22821	0.00896
2010.94245	0.00988
2009.65668	0.01060
2008.37091	0.01085
2007.08514	0.01073
2005.79937	0.01066
2004.51360	0.01093
2003.22783	0.01142
2001.94206	0.01179
2000.65629	0.01194
1999.37053	0.01207
1998.08476	0.01237
1996.79899	0.01276
1995.51322	0.01305
1994.22745	0.01329
1992.94168	0.01368
1991.65591	0.01425
1990.37014	0.01474
1989.08438	0.01486
1987.79861	0.01456
1986.51284	0.01413
1985.22707	0.01391
1983.94130	0.01410
1982.65553	0.01458
1981.36976	0.01503
1980.08399	0.01520
1978.79822	0.01504
1977.51246	0.01464
1976.22669	0.01412
1974.94092	0.01365
1973.65515	0.01331
1972.36938	0.01301
1971.08361	0.01263
1969.79784	0.01230
1968.51207	0.01230
1967.22631	0.01270
1965.94054	0.01331
1964.65477	0.01376
1963.36900	0.01386
1962.08323	0.01361
1960.79746	0.01329
1959.51169	0.01325
1958.22592	0.01369
1956.94015	0.01448
1955.65439	0.01527
1954.36862	0.01578
1953.08285	0.01595
1951.79708	0.01593
1950.51131	0.01587
1949.22554	0.01579
1947.93977	0.01568
1946.65400	0.01551
1945.36823	0.01533
1944.08247	0.01520
1942.79670	0.01524
1941.51093	0.01559
1940.22516	0.01622
1938.93939	0.01698
1937.65362	0.01763
1936.36785	0.01805
1935.08208	0.01816
1933.79632	0.01794
1932.51055	0.01746
1931.22478	0.01700
1929.93901	0.01685
1928.65324	0.01706
1927.36747	0.01743
1926.08170	0.01764
1924.79593	0.01754
1923.51016	0.01722
1922.22440	0.01688
1920.93863	0.01662
1919.65286	0.01650
1918.36709	0.01665
1917.08132	0.01716
1915.79555	0.01796
1914.50978	0.01871
1913.22401	0.01909
1911.93825	0.01905
1910.65248	0.01882
1909.36671	0.01859
1908.08094	0.01841
1906.79517	0.01830
1905.50940	0.01825
1904.22363	0.01828
1902.93786	0.01832
1901.65209	0.01828
1900.36633	0.01817
1899.08056	0.01809
1897.79479	0.01810
1896.50902	0.01823
1895.22325	0.01845
1893.93748	0.01867
1892.65171	0.01872
1891.36594	0.01856
1890.08018	0.01829
1888.79441	0.01813
1887.50864	0.01816
1886.22287	0.01827
1884.93710	0.01823
1883.65133	0.01796
1882.36556	0.01760
1881.07979	0.01739
1879.79402	0.01744
1878.50826	0.01772
1877.22249	0.01808
1875.93672	0.01837
1874.65095	0.01852
1873.36518	0.01857
1872.07941	0.01864
1870.79364	0.01880
1869.50787	0.01898
1868.22211	0.01910
1866.93634	0.01914
1865.65057	0.01917
1864.36480	0.01924
1863.07903	0.01932
1861.79326	0.01936
1860.50749	0.01934
1859.22172	0.01920
1857.93595	0.01898
1856.65019	0.01876
1855.36442	0.01862
1854.07865	0.01860
1852.79288	0.01863
1851.50711	0.01869
1850.22134	0.01875
1848.93557	0.01883
1847.64980	0.01888
1846.36404	0.01887
1845.07827	0.01884
1843.79250	0.01884
1842.50673	0.01891
1841.22096	0.01904
1839.93519	0.01910
1838.64942	0.01906
1837.36365	0.01898
1836.07788	0.01899
1834.79212	0.01915
1833.50635	0.01936
1832.22058	0.01950
1830.93481	0.01950
1829.64904	0.01936
1828.36327	0.01917
1827.07750	0.01902
1825.79173	0.01894
1824.50597	0.01889
1823.22020	0.01884
1821.93443	0.01880
1820.64866	0.01882
1819.36289	0.01890
1818.07712	0.01902
1816.79135	0.01909
1815.50558	0.01907
1814.21981	0.01900
1812.93405	0.01896
1811.64828	0.01898
1810.36251	0.01903
1809.07674	0.01908
1807.79097	0.01911
1806.50520	0.01916
1805.21943	0.01923
1803.93366	0.01930
1802.64790	0.01933
1801.36213	0.01930
1800.07636	0.01921
1798.79059	0.01909
1797.50482	0.01898
1796.21905	0.01893
1794.93328	0.01897
1793.64751	0.01909
1792.36174	0.01918
1791.07598	0.01918
1789.79021	0.01913
1788.50444	0.01910
1787.21867	0.01913
1785.93290	0.01916
1784.64713	0.01913
1783.36136	0.01904
1782.07559	0.01899
1780.78983	0.01899
1779.50406	0.01899
1778.21829	0.01900
1776.93252	0.01903
1775.64675	0.01910
1774.36098	0.01917
1773.07521	0.01916
1771.78944	0.01904
1770.50367	0.01894
1769.21791	0.01895
1767.93214	0.01903
1766.64637	0.01909
1765.36060	0.01911
1764.07483	0.01914
1762.78906	0.01915
1761.50329	0.01907
1760.21752	0.01891
1758.93176	0.01876
1757.64599	0.01866
1756.36022	0.01858
1755.07445	0.01847
1753.78868	0.01836
1752.50291	0.01821
1751.21714	0.01802
1749.93137	0.01777
1748.64560	0.01749
1747.35984	0.01720
1746.07407	0.01689
1744.78830	0.01658
1743.50253	0.01631
1742.21676	0.01607
1740.93099	0.01586
1739.64522	0.01568
1738.35945	0.01559
1737.07369	0.01575
1735.78792	0.01619
1734.50215	0.01674
1733.21638	0.01716
1731.93061	0.01738
1730.64484	0.01749
1729.35907	0.01755
1728.07330	0.01762
1726.78753	0.01775
1725.50177	0.01800
1724.21600	0.01831
1722.93023	0.01858
1721.64446	0.01878
1720.35869	0.01896
1719.07292	0.01917
1717.78715	0.01940
1716.50138	0.01960
1715.21561	0.01979
1713.92985	0.02003
1712.64408	0.02033
1711.35831	0.02068
1710.07254	0.02106
1708.78677	0.02146
1707.50100	0.02189
1706.21523	0.02234
1704.92946	0.02274
1703.64370	0.02315
1702.35793	0.02367
1701.07216	0.02426
1699.78639	0.02479
1698.50062	0.02525
1697.21485	0.02576
1695.92908	0.02632
1694.64331	0.02678
1693.35754	0.02718
1692.07178	0.02765
1690.78601	0.02821
1689.50024	0.02877
1688.21447	0.02929
1686.92870	0.02985
1685.64293	0.03044
1684.35716	0.03099
1683.07139	0.03146
1681.78563	0.03194
1680.49986	0.03250
1679.21409	0.03311
1677.92832	0.03375
1676.64255	0.03443
1675.35678	0.03506
1674.07101	0.03558
1672.78524	0.03608
1671.49947	0.03668
1670.21371	0.03737
1668.92794	0.03799
1667.64217	0.03849
1666.35640	0.03892
1665.07063	0.03937
1663.78486	0.03987
1662.49909	0.04036
1661.21332	0.04083
1659.92756	0.04130
1658.64179	0.04174
1657.35602	0.04211
1656.07025	0.04246
1654.78448	0.04285
1653.49871	0.04320
1652.21294	0.04336
1650.92717	0.04337
1649.64140	0.04346
1648.35564	0.04371
1647.06987	0.04399
1645.78410	0.04416
1644.49833	0.04423
1643.21256	0.04425
1641.92679	0.04425
1640.64102	0.04421
1639.35525	0.04411
1638.06949	0.04402
1636.78372	0.04393
1635.49795	0.04374
1634.21218	0.04344
1632.92641	0.04310
1631.64064	0.04281
1630.35487	0.04258
1629.06910	0.04234
1627.78333	0.04202
1626.49757	0.04166
1625.21180	0.04130
1623.92603	0.04099
1622.64026	0.04069
1621.35449	0.04036
1620.06872	0.04006
1618.78295	0.03985
1617.49718	0.03975
1616.21142	0.03966
1614.92565	0.03955
1613.63988	0.03949
1612.35411	0.03951
1611.06834	0.03956
1609.78257	0.03962
1608.49680	0.03969
1607.21103	0.03977
1605.92526	0.03985
1604.63950	0.03992
1603.35373	0.03998
1602.06796	0.04008
1600.78219	0.04023
1599.49642	0.04043
1598.21065	0.04069
1596.92488	0.04096
1595.63911	0.04124
1594.35335	0.04154
1593.06758	0.04188
1591.78181	0.04224
1590.49604	0.04259
1589.21027	0.04290
1587.92450	0.04322
1586.63873	0.04361
1585.35296	0.04408
1584.06719	0.04462
1582.78143	0.04516
1581.49566	0.04566
1580.20989	0.04608
1578.92412	0.04650
1577.63835	0.04700
1576.35258	0.04756
1575.06681	0.04811
1573.78104	0.04869
1572.49528	0.04934
1571.20951	0.05006
1569.92374	0.05076
1568.63797	0.05135
1567.35220	0.05187
1566.06643	0.05234
1564.78066	0.05276
1563.49489	0.05316
1562.20912	0.05362
1560.92336	0.05419
1559.63759	0.05476
1558.35182	0.05517
1557.06605	0.05545
1555.78028	0.05571
1554.49451	0.05596
1553.20874	0.05613
1551.92297	0.05622
1550.63721	0.05628
1549.35144	0.05630
1548.06567	0.05627
1546.77990	0.05616
1545.49413	0.05594
1544.20836	0.05558
1542.92259	0.05511
1541.63682	0.05462
1540.35105	0.05415
1539.06529	0.05366
1537.77952	0.05314
1536.49375	0.05270
1535.20798	0.05238
1533.92221	0.05206
1532.63644	0.05165
1531.35067	0.05120
1530.06490	0.05086
1528.77914	0.05070
1527.49337	0.05069
1526.20760	0.05075
1524.92183	0.05083
1523.63606	0.05098
1522.35029	0.05119
1521.06452	0.05138
1519.77875	0.05152
1518.49298	0.05174
1517.20722	0.05213
1515.92145	0.05268
1514.63568	0.05331
1513.34991	0.05396
1512.06414	0.05458
1510.77837	0.05521
1509.49260	0.05592
1508.20683	0.05676
1506.92107	0.05763
1505.63530	0.05840
1504.34953	0.05905
1503.06376	0.05968
1501.77799	0.06033
1500.49222	0.06098
1499.20645	0.06158
1497.92068	0.06211
1496.63491	0.06256
1495.34915	0.06294
1494.06338	0.06330
1492.77761	0.06372
1491.49184	0.06422
1490.20607	0.06473
1488.92030	0.06521
1487.63453	0.06568
1486.34876	0.06616
1485.06299	0.06669
1483.77723	0.06729
1482.49146	0.06795
1481.20569	0.06862
1479.91992	0.06934
1478.63415	0.07012
1477.34838	0.07095
1476.06261	0.07176
1474.77684	0.07248
1473.49108	0.07312
1472.20531	0.07372
1470.91954	0.07433
1469.63377	0.07498
1468.34800	0.07568
1467.06223	0.07644
1465.77646	0.07723
1464.49069	0.07800
1463.20492	0.07872
1461.91916	0.07941
1460.63339	0.08016
1459.34762	0.08105
1458.06185	0.08203
1456.77608	0.08299
1455.49031	0.08381
1454.20454	0.08456
1452.91877	0.08529
1451.63301	0.08594
1450.34724	0.08644
1449.06147	0.08677
1447.77570	0.08697
1446.48993	0.08708
1445.20416	0.08717
1443.91839	0.08722
1442.63262	0.08720
1441.34685	0.08712
1440.06109	0.08703
1438.77532	0.08698
1437.48955	0.08694
1436.20378	0.08688
1434.91801	0.08685
1433.63224	0.08696
1432.34647	0.08726
1431.06070	0.08771
1429.77494	0.08828
1428.48917	0.08895
1427.20340	0.08975
1425.91763	0.09065
1424.63186	0.09160
1423.34609	0.09255
1422.06032	0.09351
1420.77455	0.09450
1419.48878	0.09543
1418.20302	0.09621
1416.91725	0.09687
1415.63148	0.09746
1414.34571	0.09800
1413.05994	0.09841
1411.77417	0.09863
1410.48840	0.09860
1409.20263	0.09836
1407.91687	0.09795
1406.63110	0.09741
1405.34533	0.09668
1404.05956	0.09573
1402.77379	0.09457
1401.48802	0.09328
1400.20225	0.09190
1398.91648	0.09043
1397.63071	0.08885
1396.34495	0.08719
1395.05918	0.08550
1393.77341	0.08378
1392.48764	0.08203
1391.20187	0.08029
1389.91610	0.07860
1388.63033	0.07699
1387.34456	0.07548
1386.05880	0.07403
1384.77303	0.07264
1383.48726	0.07128
1382.20149	0.06990
1380.91572	0.06852
1379.62995	0.06716
1378.34418	0.06583
1377.05841	0.06451
1375.77264	0.06315
1374.48688	0.06172
1373.20111	0.06020
1371.91534	0.05863
1370.62957	0.05707
1369.34380	0.05554
1368.05803	0.05407
1366.77226	0.05265
1365.48649	0.05128
1364.20073	0.04997
1362.91496	0.04871
1361.62919	0.04751
1360.34342	0.04642
1359.05765	0.04548
1357.77188	0.04468
1356.48611	0.04397
1355.20034	0.04329
1353.91457	0.04262
1352.62881	0.04198
1351.34304	0.04143
1350.05727	0.04096
1348.77150	0.04054
1347.48573	0.04012
1346.19996	0.03971
1344.91419	0.03932
1343.62842	0.03898
1342.34266	0.03865
1341.05689	0.03829
1339.77112	0.03787
1338.48535	0.03741
1337.19958	0.03696
1335.91381	0.03654
1334.62804	0.03617
1333.34227	0.03583
1332.05650	0.03551
1330.77074	0.03520
1329.48497	0.03488
1328.19920	0.03458
1326.91343	0.03428
1325.62766	0.03399
1324.34189	0.03368
1323.05612	0.03337
1321.77035	0.03309
1320.48459	0.03285
1319.19882	0.03262
1317.91305	0.03237
1316.62728	0.03210
1315.34151	0.03182
1314.05574	0.03156
1312.76997	0.03130
1311.48420	0.03105
1310.19843	0.03082
1308.91267	0.03062
1307.62690	0.03043
1306.34113	0.03023
1305.05536	0.03000
1303.76959	0.02976
1302.48382	0.02953
1301.19805	0.02931
1299.91228	0.02909
1298.62652	0.02884
1297.34075	0.02860
1296.05498	0.02838
1294.76921	0.02819
1293.48344	0.02803
1292.19767	0.02787
1290.91190	0.02772
1289.62613	0.02760
1288.34036	0.02752
1287.05460	0.02747
1285.76883	0.02742
1284.48306	0.02734
1283.19729	0.02720
1281.91152	0.02701
1280.62575	0.02678
1279.33998	0.02654
1278.05421	0.02634
1276.76845	0.02619
1275.48268	0.02609
1274.19691	0.02600
1272.91114	0.02591
1271.62537	0.02578
1270.33960	0.02562
1269.05383	0.02543
1267.76806	0.02524
1266.48229	0.02507
1265.19653	0.02490
1263.91076	0.02474
1262.62499	0.02458
1261.33922	0.02445
1260.05345	0.02437
1258.76768	0.02432
1257.48191	0.02428
1256.19614	0.02426
1254.91037	0.02425
1253.62461	0.02423
1252.33884	0.02418
1251.05307	0.02410
1249.76730	0.02401
1248.48153	0.02395
1247.19576	0.02390
1245.90999	0.02387
1244.62422	0.02383
1243.33846	0.02378
1242.05269	0.02370
1240.76692	0.02363
1239.48115	0.02355
1238.19538	0.02345
1236.90961	0.02331
1235.62384	0.02313
1234.33807	0.02294
1233.05230	0.02280
1231.76654	0.02272
1230.48077	0.02263
1229.19500	0.02249
1227.90923	0.02227
1226.62346	0.02200
1225.33769	0.02175
1224.05192	0.02155
1222.76615	0.02138
1221.48039	0.02121
1220.19462	0.02106
1218.90885	0.02091
1217.62308	0.02076
1216.33731	0.02059
1215.05154	0.02041
1213.76577	0.02023
1212.48000	0.02010
1211.19423	0.02004
1209.90847	0.02002
1208.62270	0.02000
1207.33693	0.01996
1206.05116	0.01988
1204.76539	0.01976
1203.47962	0.01961
1202.19385	0.01944
1200.90808	0.01927
1199.62232	0.01911
1198.33655	0.01899
1197.05078	0.01891
1195.76501	0.01885
1194.47924	0.01879
1193.19347	0.01871
1191.90770	0.01860
1190.62193	0.01843
1189.33616	0.01821
1188.05040	0.01797
1186.76463	0.01776
1185.47886	0.01761
1184.19309	0.01747
1182.90732	0.01733
1181.62155	0.01714
1180.33578	0.01694
1179.05001	0.01677
1177.76425	0.01670
1176.47848	0.01674
1175.19271	0.01681
1173.90694	0.01683
1172.62117	0.01680
1171.33540	0.01676
1170.04963	0.01676
1168.76386	0.01683
1167.47809	0.01696
1166.19233	0.01711
1164.90656	0.01722
1163.62079	0.01727
1162.33502	0.01730
1161.04925	0.01736
1159.76348	0.01746
1158.47771	0.01755
1157.19194	0.01760
1155.90618	0.01764
1154.62041	0.01771
1153.33464	0.01784
1152.04887	0.01800
1150.76310	0.01817
1149.47733	0.01835
1148.19156	0.01859
1146.90579	0.01890
1145.62002	0.01932
1144.33426	0.01982
1143.04849	0.02040
1141.76272	0.02102
1140.47695	0.02167
1139.19118	0.02239
1137.90541	0.02319
1136.61964	0.02408
1135.33387	0.02508
1134.04811	0.02624
1132.76234	0.02760
1131.47657	0.02916
1130.19080	0.03089
1128.90503	0.03281
1127.61926	0.03495
1126.33349	0.03735
1125.04772	0.03999
1123.76195	0.04279
1122.47619	0.04565
1121.19042	0.04852
1119.90465	0.05142
1118.61888	0.05437
1117.33311	0.05738
1116.04734	0.06040
1114.76157	0.06335
1113.47580	0.06620
1112.19004	0.06897
1110.90427	0.07165
1109.61850	0.07422
1108.33273	0.07661
1107.04696	0.07882
1105.76119	0.08092
1104.47542	0.08300
1103.18965	0.08507
1101.90388	0.08710
1100.61812	0.08906
1099.33235	0.09097
1098.04658	0.09283
1096.76081	0.09462
1095.47504	0.09629
1094.18927	0.09781
1092.90350	0.09919
1091.61773	0.10044
1090.33197	0.10154
1089.04620	0.10252
1087.76043	0.10347
1086.47466	0.10452
1085.18889	0.10571
1083.90312	0.10698
1082.61735	0.10826
1081.33158	0.10956
1080.04581	0.11097
1078.76005	0.11253
1077.47428	0.11428
1076.18851	0.11620
1074.90274	0.11823
1073.61697	0.12031
1072.33120	0.12243
1071.04543	0.12460
1069.75966	0.12682
1068.47390	0.12911
1067.18813	0.13149
1065.90236	0.13399
1064.61659	0.13660
1063.33082	0.13924
1062.04505	0.14186
1060.75928	0.14445
1059.47351	0.14701
1058.18774	0.14951
1056.90198	0.15193
1055.61621	0.15430
1054.33044	0.15668
1053.04467	0.15913
1051.75890	0.16166
1050.47313	0.16426
1049.18736	0.16694
1047.90159	0.16970
1046.61583	0.17257
1045.33006	0.17555
1044.04429	0.17862
1042.75852	0.18179
1041.47275	0.18504
1040.18698	0.18830
1038.90121	0.19151
1037.61544	0.19464
1036.32967	0.19775
1035.04391	0.20086
1033.75814	0.20395
1032.47237	0.20691
1031.18660	0.20966
1029.90083	0.21215
1028.61506	0.21435
1027.32929	0.21628
1026.04352	0.21795
1024.75775	0.21932
1023.47199	0.22036
1022.18622	0.22105
1020.90045	0.22141
1019.61468	0.22143
1018.32891	0.22111
1017.04314	0.22047
1015.75737	0.21952
1014.47160	0.21827
1013.18584	0.21668
1011.90007	0.21466
1010.61430	0.21218
1009.32853	0.20926
1008.04276	0.20597
1006.75699	0.20233
1005.47122	0.19834
1004.18545	0.19401
1002.89968	0.18935
1001.61392	0.18443
1000.32815	0.17935
999.04238	0.17415
997.75661	0.16884
996.47084	0.16344
995.18507	0.15798
993.89930	0.15251
992.61353	0.14710
991.32777	0.14182
990.04200	0.13674
988.75623	0.13188
987.47046	0.12721
986.18469	0.12272
984.89892	0.11840
983.61315	0.11423
982.32738	0.11026
981.04161	0.10653
979.75585	0.10312
978.47008	0.10002
977.18431	0.09720
975.89854	0.09459
974.61277	0.09220
973.32700	0.09010
972.04123	0.08837
970.75546	0.08703
969.46970	0.08611
968.18393	0.08563
966.89816	0.08563
965.61239	0.08603
964.32662	0.08671
963.04085	0.08746
961.75508	0.08811
960.46931	0.08844
959.18354	0.08830
957.89778	0.08761
956.61201	0.08646
955.32624	0.08500
954.04047	0.08337
952.75470	0.08165
951.46893	0.07988
950.18316	0.07807
948.89739	0.07623
947.61163	0.07444
946.32586	0.07273
945.04009	0.07114
943.75432	0.06966
942.46855	0.06822
941.18278	0.06675
939.89701	0.06520
938.61124	0.06365
937.32547	0.06219
936.03971	0.06087
934.75394	0.05965
933.46817	0.05850
932.18240	0.05740
930.89663	0.05640
929.61086	0.05551
928.32509	0.05471
927.03932	0.05399
925.75356	0.05332
924.46779	0.05265
923.18202	0.05193
921.89625	0.05122
920.61048	0.05058
919.32471	0.05006
918.03894	0.04961
916.75317	0.04919
915.46740	0.04874
914.18164	0.04825
912.89587	0.04771
911.61010	0.04713
910.32433	0.04657
909.03856	0.04608
907.75279	0.04565
906.46702	0.04528
905.18125	0.04495
903.89549	0.04462
902.60972	0.04424
901.32395	0.04380
900.03818	0.04334
898.75241	0.04291
897.46664	0.04249
896.18087	0.04208
894.89510	0.04173
893.60933	0.04149
892.32357	0.04134
891.03780	0.04123
889.75203	0.04116
888.46626	0.04125
887.18049	0.04165
885.89472	0.04248
884.60895	0.04381
883.32318	0.04564
882.03742	0.04787
880.75165	0.05017
879.46588	0.05213
878.18011	0.05355
876.89434	0.05462
875.60857	0.05573
874.32280	0.05707
873.03703	0.05842
871.75126	0.05935
870.46550	0.05953
869.17973	0.05894
867.89396	0.05773
866.60819	0.05608
865.32242	0.05421
864.03665	0.05227
862.75088	0.05042
861.46511	0.04874
860.17935	0.04728
858.89358	0.04603
857.60781	0.04495
856.32204	0.04402
855.03627	0.04324
853.75050	0.04260
852.46473	0.04202
851.17896	0.04145
849.89319	0.04090
848.60743	0.04040
847.32166	0.03999
846.03589	0.03965
844.75012	0.03935
843.46435	0.03908
842.17858	0.03880
840.89281	0.03850
839.60704	0.03819
838.32128	0.03788
837.03551	0.03755
835.74974	0.03723
834.46397	0.03693
833.17820	0.03668
831.89243	0.03647
830.60666	0.03630
829.32089	0.03616
828.03512	0.03607
826.74936	0.03598
825.46359	0.03585
824.17782	0.03566
822.89205	0.03542
821.60628	0.03518
820.32051	0.03499
819.03474	0.03490
817.74897	0.03488
816.46321	0.03488
815.17744	0.03484
813.89167	0.03479
812.60590	0.03477
811.32013	0.03478
810.03436	0.03479
808.74859	0.03476
807.46282	0.03470
806.17705	0.03461
804.89129	0.03449
803.60552	0.03430
802.31975	0.03408
801.03398	0.03390
799.74821	0.03381
798.46244	0.03380
797.17667	0.03382
795.89090	0.03381
794.60513	0.03371
793.31937	0.03355
792.03360	0.03337
790.74783	0.03320
789.46206	0.03308
788.17629	0.03305
786.89052	0.03310
785.60475	0.03314
784.31898	0.03311
783.03322	0.03302
781.74745	0.03292
780.46168	0.03286
779.17591	0.03282
777.89014	0.03274
776.60437	0.03261
775.31860	0.03245
774.03283	0.03233
772.74706	0.03229
771.46130	0.03231
770.17553	0.03237
768.88976	0.03241
767.60399	0.03242
766.31822	0.03240
765.03245	0.03236
763.74668	0.03232
762.46091	0.03231
761.17515	0.03236
759.88938	0.03246
758.60361	0.03255
757.31784	0.03259
756.03207	0.03257
754.74630	0.03250
753.46053	0.03240
752.17476	0.03235
750.88899	0.03237
749.60323	0.03245
748.31746	0.03249
747.03169	0.03242
745.74592	0.03223
744.46015	0.03195
743.17438	0.03166
741.88861	0.03142
740.60284	0.03129
739.31708	0.03126
738.03131	0.03129
736.74554	0.03131
735.45977	0.03132
734.17400	0.03132
732.88823	0.03132
731.60246	0.03131
730.31669	0.03130
729.03092	0.03128
727.74516	0.03129
726.45939	0.03136
725.17362	0.03150
723.88785	0.03162
722.60208	0.03165
721.31631	0.03155
720.03054	0.03136
718.74477	0.03121
717.45901	0.03112
716.17324	0.03111
714.88747	0.03113
713.60170	0.03111
712.31593	0.03103
711.03016	0.03090
709.74439	0.03076
708.45862	0.03067
707.17285	0.03064
705.88709	0.03066
704.60132	0.03069
703.31555	0.03070
702.02978	0.03068
700.74401	0.03064
699.45824	0.03062
698.17247	0.03060
696.88670	0.03058
695.60094	0.03058
694.31517	0.03057
693.02940	0.03055
691.74363	0.03051
690.45786	0.03045
689.17209	0.03040
687.88632	0.03037
686.60055	0.03033
685.31478	0.03025
684.02902	0.03010
682.74325	0.02993
681.45748	0.02981
680.17171	0.02978
678.88594	0.02983
677.60017	0.02990
676.31440	0.02996
675.02863	0.02999
673.74287	0.03001
672.45710	0.03006
671.17133	0.03023
669.88556	0.03040
668.59979	0.03015
667.31402	0.03026
666.02825	0.03092
664.74248	0.03084
663.45671	0.03057
662.17095	0.03030
660.88518	0.02999
659.59941	0.02970
658.31364	0.02947
657.02787	0.02930
655.74210	0.02918
654.45633	0.02910
653.17056	0.02905
651.88480	0.02901
650.59903	0.02895
649.31326	0.02882
648.02749	0.02862
646.74172	0.02835
645.45595	0.02808
644.17018	0.02790
642.88441	0.02784
641.59864	0.02789
640.31288	0.02800
639.02711	0.02813
637.74134	0.02824
636.45557	0.02836
635.16980	0.02851
633.88403	0.02871
632.59826	0.02893
631.31249	0.02916
630.02673	0.02943
628.74096	0.02974
627.45519	0.03003
626.16942	0.03024
624.88365	0.03037
623.59788	0.03078
622.31211	0.03215
621.02634	0.03471
619.74057	0.03802
618.45481	0.04157
617.16904	0.04519
615.88327	0.04861
614.59750	0.05152
613.31173	0.05410
612.02596	0.05727
610.74019	0.06179
609.45442	0.06720
608.16866	0.07212
606.88289	0.07588
605.59712	0.07895
604.31135	0.08187
603.02558	0.08436
601.73981	0.08561
600.45404	0.08518
599.16827	0.08330
597.88250	0.08055
596.59674	0.07750
595.31097	0.07460
594.02520	0.07215
592.73943	0.07029
591.45366	0.06902
590.16789	0.06828
588.88212	0.06795
587.59635	0.06796
586.31059	0.06832
585.02482	0.06913
583.73905	0.07040
582.45328	0.07208
581.16751	0.07401
579.88174	0.07602
578.59597	0.07806
577.31020	0.08013
576.02443	0.08224
574.73867	0.08435
573.45290	0.08642
572.16713	0.08848
570.88136	0.09063
569.59559	0.09304
568.30982	0.09591
567.02405	0.09936
565.73828	0.10317
564.45251	0.10678
563.16675	0.10956
561.88098	0.11108
560.59521	0.11125
559.30944	0.11003
558.02367	0.10745
556.73790	0.10363
555.45213	0.09895
554.16636	0.09387
552.88060	0.08878
551.59483	0.08388
550.30906	0.07927
549.02329	0.07496
547.73752	0.07101
546.45175	0.06747
545.16598	0.06440
543.88021	0.06184
542.59444	0.05968
541.30868	0.05772
540.02291	0.05585
538.73714	0.05409
537.45137	0.05251
536.16560	0.05113
534.87983	0.04987
533.59406	0.04867
532.30829	0.04748
531.02253	0.04634
529.73676	0.04527
528.45099	0.04429
527.16522	0.04335
525.87945	0.04241
524.59368	0.04147
523.30791	0.04057
522.02214	0.03975
520.73637	0.03896
519.45061	0.03820
518.16484	0.03746
516.87907	0.03677
515.59330	0.03609
514.30753	0.03543
513.02176	0.03484
511.73599	0.03433
510.45022	0.03391
509.16446	0.03350
507.87869	0.03306
506.59292	0.03263
505.30715	0.03222
504.02138	0.03187
502.73561	0.03152
501.44984	0.03117
500.16407	0.03079
498.87830	0.03042
497.59254	0.03008
496.30677	0.02976
495.02100	0.02942
493.73523	0.02905
492.44946	0.02869
491.16369	0.02840
489.87792	0.02820
488.59215	0.02806
487.30639	0.02792
486.02062	0.02774
484.73485	0.02752
483.44908	0.02731
482.16331	0.02721
480.87754	0.02728
479.59177	0.02752
478.30600	0.02784
477.02023	0.02814
475.73447	0.02839
474.44870	0.02858
473.16293	0.02868
471.87716	0.02867
470.59139	0.02854
469.30562	0.02833
468.01985	0.02805
466.73408	0.02772
465.44832	0.02735
464.16255	0.02698
462.87678	0.02664
461.59101	0.02630
460.30524	0.02598
459.01947	0.02568
457.73370	0.02539
456.44793	0.02510
455.16216	0.02482
453.87640	0.02454
452.59063	0.02424
451.30486	0.02391
450.01909	0.02358
448.73332	0.02330
447.44755	0.02312
446.16178	0.02305
444.87601	0.02303
443.59025	0.02299
442.30448	0.02286
441.01871	0.02265
439.73294	0.02242
438.44717	0.02220
437.16140	0.02203
435.87563	0.02192
434.58986	0.02189
433.30409	0.02190
432.01833	0.02188
430.73256	0.02175
429.44679	0.02153
428.16102	0.02124
426.87525	0.02093
425.58948	0.02066
424.30371	0.02045
423.01794	0.02029
421.73218	0.02019
420.44641	0.02009
419.16064	0.01997
417.87487	0.01980
416.58910	0.01964
415.30333	0.01952
414.01756	0.01945
412.73179	0.01941
411.44602	0.01937
410.16026	0.01933
408.87449	0.01932
407.58872	0.01935
406.30295	0.01941
405.01718	0.01945
403.73141	0.01943
402.44564	0.01935
401.15987	0.01929
399.87411	0.01929
