3997.45528 0.05567
3996.16951 0.05560
3994.88374 0.05577
3993.59798 0.05554
3992.31221 0.05470
3991.02644 0.05371
3989.74067 0.05315
3988.45490 0.05321
3987.16913 0.05362
3985.88336 0.05388
3984.59759 0.05368
3983.31183 0.05303
3982.02606 0.05227
3980.74029 0.05168
3979.45452 0.05134
3978.16875 0.05125
3976.88298 0.05149
3975.59721 0.05218
3974.31144 0.05316
3973.02567 0.05403
3971.73991 0.05447
3970.45414 0.05450
3969.16837 0.05436
3967.88260 0.05434
3966.59683 0.05454
3965.31106 0.05482
3964.02529 0.05491
3962.73952 0.05462
3961.45376 0.05405
3960.16799 0.05353
3958.88222 0.05339
3957.59645 0.05361
3956.31068 0.05390
3955.02491 0.05390
3953.73914 0.05350
3952.45337 0.05289
3951.16760 0.05257
3949.88184 0.05299
3948.59607 0.05415
3947.31030 0.05545
3946.02453 0.05608
3944.73876 0.05571
3943.45299 0.05475
3942.16722 0.05386
3940.88145 0.05325
3939.59569 0.05266
3938.30992 0.05198
3937.02415 0.05150
3935.73838 0.05148
3934.45261 0.05182
3933.16684 0.05231
3931.88107 0.05287
3930.59530 0.05354
3929.30953 0.05416
3928.02377 0.05450
3926.73800 0.05441
3925.45223 0.05394
3924.16646 0.05317
3922.88069 0.05225
3921.59492 0.05154
3920.30915 0.05162
3919.02338 0.05280
3917.73762 0.05461
3916.45185 0.05610
3915.16608 0.05667
3913.88031 0.05651
3912.59454 0.05613
3911.30877 0.05580
3910.02300 0.05553
3908.73723 0.05541
3907.45146 0.05563
3906.16570 0.05616
3904.87993 0.05657
3903.59416 0.05623
3902.30839 0.05495
3901.02262 0.05334
3899.73685 0.05235
3898.45108 0.05242
3897.16531 0.05302
3895.87955 0.05328
3894.59378 0.05293
3893.30801 0.05229
3892.02224 0.05174
3890.73647 0.05123
3889.45070 0.05063
3888.16493 0.05010
3886.87916 0.04997
3885.59339 0.05027
3884.30763 0.05065
3883.02186 0.05077
3881.73609 0.05057
3880.45032 0.05027
3879.16455 0.05023
3877.87878 0.05067
3876.59301 0.05147
3875.30724 0.05210
3874.02148 0.05214
3872.73571 0.05164
3871.44994 0.05104
3870.16417 0.05069
3868.87840 0.05063
3867.59263 0.05069
3866.30686 0.05067
3865.02109 0.05036
3863.73532 0.04963
3862.44956 0.04861
3861.16379 0.04770
3859.87802 0.04739
3858.59225 0.04793
3857.30648 0.04916
3856.02071 0.05059
3854.73494 0.05163
3853.44917 0.05206
3852.16341 0.05215
3850.87764 0.05224
3849.59187 0.05218
3848.30610 0.05166
3847.02033 0.05080
3845.73456 0.05020
3844.44879 0.05025
3843.16302 0.05068
3841.87725 0.05108
3840.59149 0.05139
3839.30572 0.05172
3838.01995 0.05200
3836.73418 0.05209
3835.44841 0.05204
3834.16264 0.05205
3832.87687 0.05219
3831.59110 0.05222
3830.30534 0.05183
3829.01957 0.05095
3827.73380 0.04978
3826.44803 0.04868
3825.16226 0.04798
3823.87649 0.04790
3822.59072 0.04852
3821.30495 0.04965
3820.01918 0.05083
3818.73342 0.05160
3817.44765 0.05179
3816.16188 0.05154
3814.87611 0.05114
3813.59034 0.05082
3812.30457 0.05068
3811.01880 0.05066
3809.73303 0.05061
3808.44726 0.05040
3807.16150 0.04996
3805.87573 0.04941
3804.58996 0.04901
3803.30419 0.04892
3802.01842 0.04894
3800.73265 0.04876
3799.44688 0.04839
3798.16111 0.04817
3796.87535 0.04839
3795.58958 0.04889
3794.30381 0.04926
3793.01804 0.04921
3791.73227 0.04886
3790.44650 0.04863
3789.16073 0.04889
3787.87496 0.04971
3786.58919 0.05085
3785.30343 0.05182
3784.01766 0.05221
3782.73189 0.05192
3781.44612 0.05109
3780.16035 0.04999
3778.87458 0.04888
3777.58881 0.04809
3776.30304 0.04793
3775.01728 0.04840
3773.73151 0.04910
3772.44574 0.04954
3771.15997 0.04952
3769.87420 0.04921
3768.58843 0.04897
3767.30266 0.04906
3766.01689 0.04951
3764.73112 0.05009
3763.44536 0.05050
3762.15959 0.05054
3760.87382 0.05008
3759.58805 0.04922
3758.30228 0.04830
3757.01651 0.04776
3755.73074 0.04784
3754.44497 0.04840
3753.15921 0.04904
3751.87344 0.04934
3750.58767 0.04905
3749.30190 0.04832
3748.01613 0.04756
3746.73036 0.04708
3745.44459 0.04682
3744.15882 0.04658
3742.87305 0.04635
3741.58729 0.04633
3740.30152 0.04662
3739.01575 0.04702
3737.72998 0.04723
3736.44421 0.04704
3735.15844 0.04655
3733.87267 0.04606
3732.58690 0.04595
3731.30114 0.04632
3730.01537 0.04689
3728.72960 0.04740
3727.44383 0.04795
3726.15806 0.04874
3724.87229 0.04958
3723.58652 0.04997
3722.30075 0.04960
3721.01498 0.04879
3719.72922 0.04813
3718.44345 0.04790
3717.15768 0.04801
3715.87191 0.04825
3714.58614 0.04852
3713.30037 0.04870
3712.01460 0.04869
3710.72883 0.04853
3709.44307 0.04838
3708.15730 0.04836
3706.87153 0.04833
3705.58576 0.04815
3704.29999 0.04789
3703.01422 0.04789
3701.72845 0.04828
3700.44268 0.04884
3699.15691 0.04909
3697.87115 0.04879
3696.58538 0.04810
3695.29961 0.04721
3694.01384 0.04611
3692.72807 0.04490
3691.44230 0.04387
3690.15653 0.04327
3688.87076 0.04306
3687.58500 0.04306
3686.29923 0.04328
3685.01346 0.04399
3683.72769 0.04527
3682.44192 0.04672
3681.15615 0.04781
3679.87038 0.04826
3678.58461 0.04820
3677.29884 0.04785
3676.01308 0.04728
3674.72731 0.04658
3673.44154 0.04600
3672.15577 0.04580
3670.87000 0.04601
3669.58423 0.04637
3668.29846 0.04661
3667.01269 0.04666
3665.72693 0.04664
3664.44116 0.04673
3663.15539 0.04703
3661.86962 0.04747
3660.58385 0.04796
3659.29808 0.04843
3658.01231 0.04884
3656.72654 0.04915
3655.44077 0.04939
3654.15501 0.04966
3652.86924 0.04987
3651.58347 0.04970
3650.29770 0.04893
3649.01193 0.04777
3647.72616 0.04675
3646.44039 0.04630
3645.15462 0.04653
3643.86886 0.04725
3642.58309 0.04814
3641.29732 0.04891
3640.01155 0.04954
3638.72578 0.05021
3637.44001 0.05095
3636.15424 0.05141
3634.86847 0.05120
3633.58270 0.05046
3632.29694 0.04984
3631.01117 0.04985
3629.72540 0.05039
3628.43963 0.05100
3627.15386 0.05136
3625.86809 0.05140
3624.58232 0.05120
3623.29655 0.05080
3622.01079 0.05032
3620.72502 0.04996
3619.43925 0.05000
3618.15348 0.05070
3616.86771 0.05212
3615.58194 0.05378
3614.29617 0.05485
3613.01040 0.05485
3611.72463 0.05416
3610.43887 0.05359
3609.15310 0.05364
3607.86733 0.05415
3606.58156 0.05476
3605.29579 0.05522
3604.01002 0.05550
3602.72425 0.05575
3601.43848 0.05620
3600.15272 0.05701
3598.86695 0.05799
3597.58118 0.05862
3596.29541 0.05849
3595.00964 0.05766
3593.72387 0.05669
3592.43810 0.05622
3591.15233 0.05660
3589.86656 0.05768
3588.58080 0.05898
3587.29503 0.05987
3586.00926 0.05993
3584.72349 0.05930
3583.43772 0.05851
3582.15195 0.05798
3580.86618 0.05779
3579.58041 0.05786
3578.29464 0.05822
3577.00888 0.05890
3575.72311 0.05975
3574.43734 0.06047
3573.15157 0.06074
3571.86580 0.06050
3570.58003 0.05990
3569.29426 0.05934
3568.00849 0.05926
3566.72273 0.05989
3565.43696 0.06099
3564.15119 0.06206
3562.86542 0.06273
3561.57965 0.06301
3560.29388 0.06318
3559.00811 0.06353
3557.72234 0.06419
3556.43657 0.06502
3555.15081 0.06573
3553.86504 0.06602
3552.57927 0.06578
3551.29350 0.06523
3550.00773 0.06482
3548.72196 0.06483
3547.43619 0.06516
3546.15042 0.06549
3544.86466 0.06572
3543.57889 0.06610
3542.29312 0.06685
3541.00735 0.06782
3539.72158 0.06869
3538.43581 0.06925
3537.15004 0.06942
3535.86427 0.06919
3534.57850 0.06866
3533.29274 0.06816
3532.00697 0.06805
3530.72120 0.06852
3529.43543 0.06937
3528.14966 0.07024
3526.86389 0.07092
3525.57812 0.07142
3524.29235 0.07176
3523.00659 0.07188
3521.72082 0.07166
3520.43505 0.07114
3519.14928 0.07054
3517.86351 0.07011
3516.57774 0.07000
3515.29197 0.07026
3514.00620 0.07090
3512.72043 0.07174
3511.43467 0.07242
3510.14890 0.07261
3508.86313 0.07235
3507.57736 0.07199
3506.29159 0.07188
3505.00582 0.07204
3503.72005 0.07226
3502.43428 0.07236
3501.14852 0.07232
3499.86275 0.07213
3498.57698 0.07190
3497.29121 0.07188
3496.00544 0.07225
3494.71967 0.07292
3493.43390 0.07363
3492.14813 0.07418
3490.86236 0.07463
3489.57660 0.07515
3488.29083 0.07580
3487.00506 0.07649
3485.71929 0.07706
3484.43352 0.07737
3483.14775 0.07734
3481.86198 0.07697
3480.57621 0.07642
3479.29045 0.07585
3478.00468 0.07546
3476.71891 0.07546
3475.43314 0.07600
3474.14737 0.07702
3472.86160 0.07816
3471.57583 0.07899
3470.29006 0.07926
3469.00429 0.07902
3467.71853 0.07850
3466.43276 0.07804
3465.14699 0.07795
3463.86122 0.07836
3462.57545 0.07904
3461.28968 0.07954
3460.00391 0.07961
3458.71814 0.07941
3457.43238 0.07927
3456.14661 0.07934
3454.86084 0.07957
3453.57507 0.07983
3452.28930 0.07999
3451.00353 0.07998
3449.71776 0.07986
3448.43199 0.07980
3447.14622 0.07983
3445.86046 0.07974
3444.57469 0.07946
3443.28892 0.07925
3442.00315 0.07946
3440.71738 0.08009
3439.43161 0.08083
3438.14584 0.08138
3436.86007 0.08161
3435.57431 0.08141
3434.28854 0.08079
3433.00277 0.08008
3431.71700 0.07983
3430.43123 0.08043
3429.14546 0.08162
3427.85969 0.08268
3426.57392 0.08306
3425.28815 0.08276
3424.00239 0.08234
3422.71662 0.08231
3421.43085 0.08271
3420.14508 0.08316
3418.85931 0.08337
3417.57354 0.08344
3416.28777 0.08371
3415.00200 0.08439
3413.71624 0.08532
3412.43047 0.08609
3411.14470 0.08637
3409.85893 0.08611
3408.57316 0.08562
3407.28739 0.08530
3406.00162 0.08537
3404.71585 0.08576
3403.43008 0.08627
3402.14432 0.08683
3400.85855 0.08735
3399.57278 0.08731
3398.28701 0.08696
3397.00124 0.08710
3395.71547 0.08754
3394.42970 0.08772
3393.14393 0.08737
3391.85817 0.08672
3390.57240 0.08623
3389.28663 0.08613
3388.00086 0.08635
3386.71509 0.08672
3385.42932 0.08723
3384.14355 0.08791
3382.85778 0.08857
3381.57201 0.08887
3380.28625 0.08865
3379.00048 0.08819
3377.71471 0.08799
3376.42894 0.08834
3375.14317 0.08915
3373.85740 0.09007
3372.57163 0.09076
3371.28586 0.09100
3370.00010 0.09072
3368.71433 0.09002
3367.42856 0.08922
3366.14279 0.08857
3364.85702 0.08814
3363.57125 0.08778
3362.28548 0.08746
3360.99971 0.08733
3359.71394 0.08758
3358.42818 0.08815
3357.14241 0.08885
3355.85664 0.08949
3354.57087 0.08992
3353.28510 0.09006
3351.99933 0.08998
3350.71356 0.08994
3349.42779 0.09015
3348.14202 0.09045
3346.85626 0.09052
3345.57049 0.09027
3344.28472 0.09002
3342.99895 0.09004
3341.71318 0.09025
3340.42741 0.09034
3339.14164 0.09011
3337.85587 0.08964
3336.57011 0.08915
3335.28434 0.08894
3333.99857 0.08914
3332.71280 0.08962
3331.42703 0.09007
3330.14126 0.09018
3328.85549 0.08994
3327.56972 0.08956
3326.28395 0.08930
3324.99819 0.08929
3323.71242 0.08941
3322.42665 0.08946
3321.14088 0.08938
3319.85511 0.08929
3318.56934 0.08934
3317.28357 0.08961
3315.99780 0.09013
3314.71204 0.09088
3313.42627 0.09170
3312.14050 0.09237
3310.85473 0.09278
3309.56896 0.09301
3308.28319 0.09309
3306.99742 0.09286
3305.71165 0.09213
3304.42588 0.09104
3303.14012 0.09015
3301.85435 0.08987
3300.56858 0.09009
3299.28281 0.09035
3297.99704 0.09030
3296.71127 0.08996
3295.42550 0.08955
3294.13973 0.08932
3292.85397 0.08941
3291.56820 0.08980
3290.28243 0.09033
3288.99666 0.09081
3287.71089 0.09111
3286.42512 0.09123
3285.13935 0.09129
3283.85358 0.09148
3282.56781 0.09189
3281.28205 0.09234
3279.99628 0.09248
3278.71051 0.09209
3277.42474 0.09132
3276.13897 0.09055
3274.85320 0.09018
3273.56743 0.09029
3272.28166 0.09063
3270.99590 0.09084
3269.71013 0.09077
3268.42436 0.09063
3267.13859 0.09070
3265.85282 0.09100
3264.56705 0.09136
3263.28128 0.09162
3261.99551 0.09174
3260.70974 0.09164
3259.42398 0.09128
3258.13821 0.09074
3256.85244 0.09032
3255.56667 0.09026
3254.28090 0.09054
3252.99513 0.09093
3251.70936 0.09119
3250.42359 0.09118
3249.13783 0.09090
3247.85206 0.09041
3246.56629 0.08984
3245.28052 0.08932
3243.99475 0.08890
3242.70898 0.08863
3241.42321 0.08864
3240.13744 0.08900
3238.85167 0.08952
3237.56591 0.08968
3236.28014 0.08909
3234.99437 0.08788
3233.70860 0.08666
3232.42283 0.08600
3231.13706 0.08606
3229.85129 0.08661
3228.56552 0.08726
3227.27976 0.08763
3225.99399 0.08757
3224.70822 0.08726
3223.42245 0.08714
3222.13668 0.08747
3220.85091 0.08811
3219.56514 0.08857
3218.27937 0.08850
3216.99360 0.08799
3215.70784 0.08744
3214.42207 0.08720
3213.13630 0.08732
3211.85053 0.08750
3210.56476 0.08740
3209.27899 0.08689
3207.99322 0.08623
3206.70745 0.08577
3205.42169 0.08566
3204.13592 0.08590
3202.85015 0.08644
3201.56438 0.08720
3200.27861 0.08793
3198.99284 0.08829
3197.70707 0.08808
3196.42130 0.08738
3195.13553 0.08645
3193.84977 0.08556
3192.56400 0.08501
3191.27823 0.08500
3189.99246 0.08548
3188.70669 0.08606
3187.42092 0.08631
3186.13515 0.08600
3184.84938 0.08531
3183.56362 0.08462
3182.27785 0.08420
3180.99208 0.08412
3179.70631 0.08418
3178.42054 0.08412
3177.13477 0.08376
3175.84900 0.08316
3174.56323 0.08261
3173.27746 0.08233
3171.99170 0.08228
3170.70593 0.08221
3169.42016 0.08201
3168.13439 0.08180
3166.84862 0.08178
3165.56285 0.08196
3164.27708 0.08211
3162.99131 0.08205
3161.70555 0.08172
3160.41978 0.08122
3159.13401 0.08067
3157.84824 0.08019
3156.56247 0.07984
3155.27670 0.07956
3153.99093 0.07932
3152.70516 0.07917
3151.41939 0.07921
3150.13363 0.07943
3148.84786 0.07964
3147.56209 0.07973
3146.27632 0.07978
3144.99055 0.07988
3143.70478 0.07999
3142.41901 0.08000
3141.13324 0.07994
3139.84748 0.07997
3138.56171 0.08019
3137.27594 0.08047
3135.99017 0.08064
3134.70440 0.08056
3133.41863 0.08026
3132.13286 0.07982
3130.84709 0.07928
3129.56132 0.07866
3128.27556 0.07805
3126.98979 0.07767
3125.70402 0.07767
3124.41825 0.07789
3123.13248 0.07807
3121.84671 0.07807
3120.56094 0.07803
3119.27517 0.07816
3117.98940 0.07848
3116.70364 0.07879
3115.41787 0.07897
3114.13210 0.07901
3112.84633 0.07894
3111.56056 0.07873
3110.27479 0.07832
3108.98902 0.07780
3107.70325 0.07730
3106.41749 0.07687
3105.13172 0.07652
3103.84595 0.07634
3102.56018 0.07648
3101.27441 0.07688
3099.98864 0.07723
3098.70287 0.07727
3097.41710 0.07701
3096.13133 0.07670
3094.84557 0.07655
3093.55980 0.07664
3092.27403 0.07690
3090.98826 0.07714
3089.70249 0.07720
3088.41672 0.07700
3087.13095 0.07666
3085.84518 0.07641
3084.55942 0.07636
3083.27365 0.07641
3081.98788 0.07640
3080.70211 0.07627
3079.41634 0.07609
3078.13057 0.07595
3076.84480 0.07590
3075.55903 0.07596
3074.27326 0.07612
3072.98750 0.07633
3071.70173 0.07657
3070.41596 0.07679
3069.13019 0.07687
3067.84442 0.07666
3066.55865 0.07621
3065.27288 0.07579
3063.98711 0.07563
3062.70135 0.07564
3061.41558 0.07556
3060.12981 0.07527
3058.84404 0.07493
3057.55827 0.07472
3056.27250 0.07460
3054.98673 0.07438
3053.70096 0.07398
3052.41519 0.07350
3051.12943 0.07315
3049.84366 0.07298
3048.55789 0.07287
3047.27212 0.07268
3045.98635 0.07235
3044.70058 0.07198
3043.41481 0.07169
3042.12904 0.07157
3040.84328 0.07162
3039.55751 0.07184
3038.27174 0.07211
3036.98597 0.07230
3035.70020 0.07235
3034.41443 0.07229
3033.12866 0.07218
3031.84289 0.07208
3030.55712 0.07201
3029.27136 0.07191
3027.98559 0.07174
3026.69982 0.07143
3025.41405 0.07102
3024.12828 0.07060
3022.84251 0.07035
3021.55674 0.07038
3020.27097 0.07064
3018.98521 0.07092
3017.69944 0.07096
3016.41367 0.07067
3015.12790 0.07019
3013.84213 0.06975
3012.55636 0.06949
3011.27059 0.06940
3009.98482 0.06943
3008.69905 0.06951
3007.41329 0.06956
3006.12752 0.06947
3004.84175 0.06926
3003.55598 0.06904
3002.27021 0.06900
3000.98444 0.06899
2999.69867 0.06844
2998.41290 0.06833
2997.12714 0.06850
2995.84137 0.06888
2994.55560 0.06921
2993.26983 0.06929
2991.98406 0.06916
2990.69829 0.06902
2989.41252 0.06899
2988.12675 0.06897
2986.84098 0.06884
2985.55522 0.06868
2984.26945 0.06869
2982.98368 0.06895
2981.69791 0.06933
2980.41214 0.06968
2979.12637 0.07002
2977.84060 0.07040
2976.55483 0.07076
2975.26907 0.07094
2973.98330 0.07101
2972.69753 0.07133
2971.41176 0.07217
2970.12599 0.07336
2968.84022 0.07441
2967.55445 0.07500
2966.26868 0.07528
2964.98291 0.07563
2963.69715 0.07619
2962.41138 0.07682
2961.12561 0.07732
2959.83984 0.07772
2958.55407 0.07817
2957.26830 0.07875
2955.98253 0.07936
2954.69676 0.07982
2953.41100 0.08002
2952.12523 0.07999
2950.83946 0.07992
2949.55369 0.07998
2948.26792 0.08012
2946.98215 0.08009
2945.69638 0.07966
2944.41061 0.07893
2943.12484 0.07821
2941.83908 0.07787
2940.55331 0.07805
2939.26754 0.07865
2937.98177 0.07937
2936.69600 0.07992
2935.41023 0.08031
2934.12446 0.08079
2932.83869 0.08153
2931.55293 0.08232
2930.26716 0.08278
2928.98139 0.08286
2927.69562 0.08289
2926.40985 0.08312
2925.12408 0.08342
2923.83831 0.08352
2922.55254 0.08335
2921.26677 0.08308
2919.98101 0.08282
2918.69524 0.08249
2917.40947 0.08204
2916.12370 0.08153
2914.83793 0.08103
2913.55216 0.08045
2912.26639 0.07976
2910.98062 0.07909
2909.69486 0.07865
2908.40909 0.07834
2907.12332 0.07788
2905.83755 0.07712
2904.55178 0.07628
2903.26601 0.07571
2901.98024 0.07549
2900.69447 0.07543
2899.40870 0.07526
2898.12294 0.07488
2896.83717 0.07431
2895.55140 0.07370
2894.26563 0.07316
2892.97986 0.07268
2891.69409 0.07219
2890.40832 0.07169
2889.12255 0.07120
2887.83678 0.07071
2886.55102 0.07020
2885.26525 0.06976
2883.97948 0.06953
2882.69371 0.06961
2881.40794 0.06991
2880.12217 0.07024
2878.83640 0.07045
2877.55063 0.07054
2876.26487 0.07067
2874.97910 0.07094
2873.69333 0.07127
2872.40756 0.07149
2871.12179 0.07159
2869.83602 0.07172
2868.55025 0.07196
2867.26448 0.07209
2865.97871 0.07181
2864.69295 0.07112
2863.40718 0.07034
2862.12141 0.06983
2860.83564 0.06973
2859.54987 0.06990
2858.26410 0.07015
2856.97833 0.07028
2855.69256 0.07023
2854.40680 0.07004
2853.12103 0.06976
2851.83526 0.06937
2850.54949 0.06881
2849.26372 0.06817
2847.97795 0.06761
2846.69218 0.06720
2845.40641 0.06684
2844.12064 0.06642
2842.83488 0.06593
2841.54911 0.06533
2840.26334 0.06461
2838.97757 0.06383
2837.69180 0.06310
2836.40603 0.06247
2835.12026 0.06190
2833.83449 0.06135
2832.54873 0.06095
2831.26296 0.06075
2829.97719 0.06067
2828.69142 0.06051
2827.40565 0.06022
2826.11988 0.05991
2824.83411 0.05970
2823.54834 0.05962
2822.26257 0.05958
2820.97681 0.05950
2819.69104 0.05933
2818.40527 0.05904
2817.11950 0.05869
2815.83373 0.05835
2814.54796 0.05809
2813.26219 0.05794
2811.97642 0.05783
2810.69066 0.05768
2809.40489 0.05742
2808.11912 0.05710
2806.83335 0.05677
2805.54758 0.05646
2804.26181 0.05622
2802.97604 0.05615
2801.69027 0.05633
2800.40450 0.05664
2799.11874 0.05684
2797.83297 0.05683
2796.54720 0.05667
2795.26143 0.05648
2793.97566 0.05626
2792.68989 0.05596
2791.40412 0.05567
2790.11835 0.05552
2788.83259 0.05555
2787.54682 0.05560
2786.26105 0.05555
2784.97528 0.05545
2783.68951 0.05538
2782.40374 0.05532
2781.11797 0.05518
2779.83220 0.05499
2778.54643 0.05482
2777.26067 0.05475
2775.97490 0.05472
2774.68913 0.05462
2773.40336 0.05436
2772.11759 0.05396
2770.83182 0.05357
2769.54605 0.05343
2768.26028 0.05362
2766.97452 0.05397
2765.68875 0.05423
2764.40298 0.05428
2763.11721 0.05420
2761.83144 0.05404
2760.54567 0.05375
2759.25990 0.05330
2757.97413 0.05278
2756.68836 0.05236
2755.40260 0.05217
2754.11683 0.05226
2752.83106 0.05250
2751.54529 0.05268
2750.25952 0.05273
2748.97375 0.05273
2747.68798 0.05279
2746.40221 0.05285
2745.11645 0.05274
2743.83068 0.05241
2742.54491 0.05202
2741.25914 0.05179
2739.97337 0.05176
2738.68760 0.05184
2737.40183 0.05194
2736.11606 0.05198
2734.83029 0.05196
2733.54453 0.05192
2732.25876 0.05194
2730.97299 0.05206
2729.68722 0.05213
2728.40145 0.05200
2727.11568 0.05166
2725.82991 0.05124
2724.54414 0.05089
2723.25838 0.05065
2721.97261 0.05052
2720.68684 0.05048
2719.40107 0.05053
2718.11530 0.05062
2716.82953 0.05065
2715.54376 0.05058
2714.25799 0.05043
2712.97222 0.05031
2711.68646 0.05022
2710.40069 0.05011
2709.11492 0.04993
2707.82915 0.04972
2706.54338 0.04959
2705.25761 0.04960
2703.97184 0.04971
2702.68607 0.04981
2701.40031 0.04983
2700.11454 0.04975
2698.82877 0.04959
2697.54300 0.04937
2696.25723 0.04917
2694.97146 0.04908
2693.68569 0.04912
2692.39992 0.04915
2691.11415 0.04910
2689.82839 0.04899
2688.54262 0.04895
2687.25685 0.04899
2685.97108 0.04903
2684.68531 0.04905
2683.39954 0.04910
2682.11377 0.04916
2680.82800 0.04911
2679.54224 0.04888
2678.25647 0.04852
2676.97070 0.04818
2675.68493 0.04794
2674.39916 0.04780
2673.11339 0.04780
2671.82762 0.04796
2670.54185 0.04824
2669.25608 0.04853
2667.97032 0.04863
2666.68455 0.04839
2665.39878 0.04786
2664.11301 0.04735
2662.82724 0.04719
2661.54147 0.04742
2660.25570 0.04779
2658.96993 0.04807
2657.68417 0.04822
2656.39840 0.04831
2655.11263 0.04839
2653.82686 0.04845
2652.54109 0.04841
2651.25532 0.04816
2649.96955 0.04764
2648.68378 0.04693
2647.39801 0.04626
2646.11225 0.04584
2644.82648 0.04571
2643.54071 0.04581
2642.25494 0.04601
2640.96917 0.04617
2639.68340 0.04624
2638.39763 0.04621
2637.11186 0.04610
2635.82609 0.04584
2634.54033 0.04543
2633.25456 0.04498
2631.96879 0.04467
2630.68302 0.04463
2629.39725 0.04479
2628.11148 0.04505
2626.82571 0.04523
2625.53994 0.04518
2624.25418 0.04482
2622.96841 0.04421
2621.68264 0.04354
2620.39687 0.04298
2619.11110 0.04259
2617.82533 0.04235
2616.53956 0.04224
2615.25379 0.04231
2613.96802 0.04257
2612.68226 0.04289
2611.39649 0.04303
2610.11072 0.04289
2608.82495 0.04255
2607.53918 0.04218
2606.25341 0.04186
2604.96764 0.04165
2603.68187 0.04159
2602.39611 0.04172
2601.11034 0.04201
2599.82457 0.04228
2598.53880 0.04234
2597.25303 0.04212
2595.96726 0.04170
2594.68149 0.04124
2593.39572 0.04088
2592.10995 0.04068
2590.82419 0.04060
2589.53842 0.04051
2588.25265 0.04033
2586.96688 0.04008
2585.68111 0.03991
2584.39534 0.03996
2583.10957 0.04018
2581.82380 0.04030
2580.53804 0.04008
2579.25227 0.03959
2577.96650 0.03925
2576.68073 0.03938
2575.39496 0.03989
2574.10919 0.04039
2572.82342 0.04057
2571.53765 0.04037
2570.25188 0.03999
2568.96612 0.03975
2567.68035 0.03979
2566.39458 0.03992
2565.10881 0.03976
2563.82304 0.03912
2562.53727 0.03822
2561.25150 0.03752
2559.96573 0.03731
2558.67997 0.03747
2557.39420 0.03761
2556.10843 0.03750
2554.82266 0.03723
2553.53689 0.03704
2552.25112 0.03700
2550.96535 0.03699
2549.67958 0.03689
2548.39381 0.03661
2547.10805 0.03620
2545.82228 0.03580
2544.53651 0.03565
2543.25074 0.03586
2541.96497 0.03632
2540.67920 0.03685
2539.39343 0.03732
2538.10766 0.03767
2536.82190 0.03781
2535.53613 0.03771
2534.25036 0.03749
2532.96459 0.03732
2531.67882 0.03726
2530.39305 0.03720
2529.10728 0.03705
2527.82151 0.03686
2526.53574 0.03678
2525.24998 0.03685
2523.96421 0.03703
2522.67844 0.03720
2521.39267 0.03724
2520.10690 0.03707
2518.82113 0.03671
2517.53536 0.03630
2516.24959 0.03598
2514.96383 0.03582
2513.67806 0.03578
2512.39229 0.03590
2511.10652 0.03633
2509.82075 0.03699
2508.53498 0.03746
2507.24921 0.03736
2505.96344 0.03677
2504.67767 0.03618
2503.39191 0.03588
2502.10614 0.03576
2500.82037 0.03563
2499.53460 0.03555
2498.24883 0.03562
2496.96306 0.03582
2495.67729 0.03602
2494.39152 0.03612
2493.10576 0.03614
2491.81999 0.03610
2490.53422 0.03600
2489.24845 0.03582
2487.96268 0.03556
2486.67691 0.03528
2485.39114 0.03515
2484.10537 0.03525
2482.81960 0.03558
2481.53384 0.03599
2480.24807 0.03628
2478.96230 0.03626
2477.67653 0.03591
2476.39076 0.03542
2475.10499 0.03507
2473.81922 0.03499
2472.53345 0.03506
2471.24769 0.03511
2469.96192 0.03506
2468.67615 0.03494
2467.39038 0.03480
2466.10461 0.03468
2464.81884 0.03460
2463.53307 0.03460
2462.24730 0.03473
2460.96153 0.03495
2459.67577 0.03513
2458.39000 0.03514
2457.10423 0.03500
2455.81846 0.03479
2454.53269 0.03457
2453.24692 0.03439
2451.96115 0.03439
2450.67538 0.03464
2449.38962 0.03508
2448.10385 0.03543
2446.81808 0.03549
2445.53231 0.03521
2444.24654 0.03477
2442.96077 0.03442
2441.67500 0.03432
2440.38923 0.03445
2439.10346 0.03470
2437.81770 0.03491
2436.53193 0.03487
2435.24616 0.03449
2433.96039 0.03398
2432.67462 0.03373
2431.38885 0.03394
2430.10308 0.03439
2428.81731 0.03465
2427.53155 0.03448
2426.24578 0.03397
2424.96001 0.03339
2423.67424 0.03301
2422.38847 0.03290
2421.10270 0.03302
2419.81693 0.03327
2418.53116 0.03355
2417.24539 0.03373
2415.95963 0.03373
2414.67386 0.03362
2413.38809 0.03355
2412.10232 0.03361
2410.81655 0.03374
2409.53078 0.03378
2408.24501 0.03367
2406.95924 0.03347
2405.67347 0.03331
2404.38771 0.03331
2403.10194 0.03354
2401.81617 0.03386
2400.53040 0.03412
2399.24463 0.03509
2397.95886 0.03446
2396.67309 0.03397
2395.38732 0.03397
2394.10156 0.03405
2392.81579 0.03401
2391.53002 0.03378
2390.24425 0.03340
2388.95848 0.03299
2387.67271 0.03271
2386.38694 0.03268
2385.10117 0.03284
2383.81540 0.03303
2382.52964 0.03310
2381.24387 0.03296
2379.95810 0.03273
2378.67233 0.03257
2377.38656 0.03260
2376.10079 0.03284
2374.81502 0.03318
2373.52925 0.03350
2372.24349 0.03367
2370.95772 0.03364
2369.67195 0.03344
2368.38618 0.03327
2367.10041 0.03334
2365.81464 0.03368
2364.52887 0.03407
2363.24310 0.03437
2361.95733 0.03459
2360.67157 0.03473
2359.38580 0.03469
2358.10003 0.03456
2356.81426 0.03448
2355.52849 0.03453
2354.24272 0.03467
2352.95695 0.03474
2351.67118 0.03473
2350.38542 0.03472
2349.09965 0.03466
2347.81388 0.03450
2346.52811 0.03435
2345.24234 0.03421
2343.95657 0.03408
2342.67080 0.03400
2341.38503 0.03423
2340.09926 0.03467
2338.81350 0.03485
2337.52773 0.03469
2336.24196 0.03449
2334.95619 0.03435
2333.67042 0.03411
2332.38465 0.03379
2331.09888 0.03381
2329.81311 0.03392
2328.52735 0.03391
2327.24158 0.03453
2325.95581 0.03563
2324.67004 0.03646
2323.38427 0.03706
2322.09850 0.03733
2320.81273 0.03694
2319.52696 0.03644
2318.24119 0.03588
2316.95543 0.03504
2315.66966 0.03429
2314.38389 0.03371
2313.09812 0.03326
2311.81235 0.03307
2310.52658 0.03286
2309.24081 0.03259
2307.95504 0.03236
2306.66928 0.03217
2305.38351 0.03213
2304.09774 0.03215
2302.81197 0.03213
2301.52620 0.03210
2300.24043 0.03213
2298.95466 0.03235
2297.66889 0.03268
2296.38312 0.03298
2295.09736 0.03306
2293.81159 0.03282
2292.52582 0.03233
2291.24005 0.03181
2289.95428 0.03162
2288.66851 0.03183
2287.38274 0.03216
2286.09697 0.03212
2284.81121 0.03150
2283.52544 0.03057
2282.23967 0.02981
2280.95390 0.02952
2279.66813 0.02965
2278.38236 0.02992
2277.09659 0.03005
2275.81082 0.02987
2274.52505 0.02944
2273.23929 0.02893
2271.95352 0.02846
2270.66775 0.02797
2269.38198 0.02733
2268.09621 0.02663
2266.81044 0.02619
2265.52467 0.02623
2264.23890 0.02668
2262.95314 0.02717
2261.66737 0.02739
2260.38160 0.02723
2259.09583 0.02676
2257.81006 0.02614
2256.52429 0.02551
2255.23852 0.02508
2253.95275 0.02503
2252.66698 0.02524
2251.38122 0.02515
2250.09545 0.02478
2248.80968 0.02534
2247.52391 0.02441
2246.23814 0.02344
2244.95237 0.02293
2243.66660 0.02294
2242.38083 0.02322
2241.09507 0.02337
2239.80930 0.02332
2238.52353 0.02321
2237.23776 0.02313
2235.95199 0.02288
2234.66622 0.02237
2233.38045 0.02191
2232.09468 0.02189
2230.80891 0.02225
2229.52315 0.02247
2228.23738 0.02216
2226.95161 0.02148
2225.66584 0.02085
2224.38007 0.02047
2223.09430 0.02034
2221.80853 0.02049
2220.52276 0.02110
2219.23700 0.02216
2217.95123 0.02332
2216.66546 0.02403
2215.37969 0.02410
2214.09392 0.02376
2212.80815 0.02340
2211.52238 0.02310
2210.23661 0.02272
2208.95084 0.02224
2207.66508 0.02177
2206.37931 0.02130
2205.09354 0.02083
2203.80777 0.02056
2202.52200 0.02057
2201.23623 0.02054
2199.95046 0.02011
2198.66469 0.01950
2197.37893 0.01928
2196.09316 0.01961
2194.80739 0.02001
2193.52162 0.02011
2192.23585 0.02006
2190.95008 0.02024
2189.66431 0.02060
2188.37854 0.02062
2187.09277 0.01977
2185.80701 0.01818
2184.52124 0.01666
2183.23547 0.01607
2181.94970 0.01668
2180.66393 0.01804
2179.37816 0.01927
2178.09239 0.01952
2176.80662 0.01850
2175.52085 0.01680
2174.23509 0.01546
2172.94932 0.01512
2171.66355 0.01566
2170.37778 0.01656
2169.09201 0.01727
2167.80624 0.01732
2166.52047 0.01642
2165.23470 0.01470
2163.94894 0.01272
2162.66317 0.01109
2161.37740 0.01020
2160.09163 0.01025
2158.80586 0.01116
2157.52009 0.01246
2156.23432 0.01330
2154.94855 0.01297
2153.66278 0.01150
2152.37702 0.00973
2151.09125 0.00875
2149.80548 0.00905
2148.51971 0.01032
2147.23394 0.01185
2145.94817 0.01314
2144.66240 0.01401
2143.37663 0.01442
2142.09087 0.01455
2140.80510 0.01471
2139.51933 0.01501
2138.23356 0.01516
2136.94779 0.01491
2135.66202 0.01446
2134.37625 0.01437
2133.09048 0.01480
2131.80471 0.01542
2130.51895 0.01589
2129.23318 0.01619
2127.94741 0.01648
2126.66164 0.01685
2125.37587 0.01735
2124.09010 0.01795
2122.80433 0.01850
2121.51856 0.01883
2120.23280 0.01896
2118.94703 0.01911
2117.66126 0.01949
2116.37549 0.01998
2115.08972 0.02018
2113.80395 0.01989
2112.51818 0.01933
2111.23241 0.01901
2109.94664 0.01915
2108.66088 0.01944
2107.37511 0.01945
2106.08934 0.01913
2104.80357 0.01879
2103.51780 0.01877
2102.23203 0.01903
2100.94626 0.01931
2099.66049 0.01944
2098.37473 0.01963
2097.08896 0.01938
2095.80319 0.01881
2094.51742 0.01817
2093.23165 0.01773
2091.94588 0.01766
2090.66011 0.01791
2089.37434 0.01816
2088.08857 0.01807
2086.80281 0.01760
2085.51704 0.01695
2084.23127 0.01640
2082.94550 0.01615
2081.65973 0.01618
2080.37396 0.01630
2079.08819 0.01626
2077.80242 0.01585
2076.51666 0.01509
2075.23089 0.01427
2073.94512 0.01388
2072.65935 0.01423
2071.37358 0.01509
2070.08781 0.01589
2068.80204 0.01617
2067.51627 0.01591
2066.23050 0.01535
2064.94474 0.01476
2063.65897 0.01427
2062.37320 0.01394
2061.08743 0.01385
2059.80166 0.01404
2058.51589 0.01453
2057.23012 0.01514
2055.94435 0.01552
2054.65859 0.01551
2053.37282 0.01528
2052.08705 0.01508
2050.80128 0.01487
2049.51551 0.01444
2048.22974 0.01375
2046.94397 0.01296
2045.65820 0.01224
2044.37243 0.01167
2043.08667 0.01146
2041.80090 0.01179
2040.51513 0.01262
2039.22936 0.01364
2037.94359 0.01447
2036.65782 0.01485
2035.37205 0.01464
2034.08628 0.01382
2032.80052 0.01249
2031.51475 0.01070
2030.22898 0.00851
2028.94321 0.00629
2027.65744 0.00461
2026.37167 0.00392
2025.08590 0.00417
2023.80013 0.00495
2022.51436 0.00588
2021.22860 0.00676
2019.94283 0.00748
2018.65706 0.00805
2017.37129 0.00867
2016.08552 0.00949
2014.79975 0.01036
2013.51398 0.01101
2012.22821 0.01129
2010.94245 0.01111
2009.65668 0.01042
2008.37091 0.00937
2007.08514 0.00845
2005.79937 0.00823
2004.51360 0.00881
2003.22783 0.00973
2001.94206 0.01042
2000.65629 0.01077
1999.37053 0.01098
1998.08476 0.01116
1996.79899 0.01115
1995.51322 0.01098
1994.22745 0.01099
1992.94168 0.01146
1991.65591 0.01222
1990.37014 0.01287
1989.08438 0.01333
1987.79861 0.01386
1986.51284 0.01455
1985.22707 0.01511
1983.94130 0.01514
1982.65553 0.01449
1981.36976 0.01325
1980.08399 0.01168
1978.79822 0.01019
1977.51246 0.00932
1976.22669 0.00931
1974.94092 0.00989
1973.65515 0.01062
1972.36938 0.01127
1971.08361 0.01194
1969.79784 0.01284
1968.51207 0.01382
1967.22631 0.01438
1965.94054 0.01413
1964.65477 0.01330
1963.36900 0.01252
1962.08323 0.01218
1960.79746 0.01213
1959.51169 0.01220
1958.22592 0.01252
1956.94015 0.01324
1955.65439 0.01420
1954.36862 0.01502
1953.08285 0.01554
1951.79708 0.01592
1950.51131 0.01632
1949.22554 0.01669
1947.93977 0.01679
1946.65400 0.01649
1945.36823 0.01593
1944.08247 0.01542
1942.79670 0.01514
1941.51093 0.01513
1940.22516 0.01540
1938.93939 0.01599
1937.65362 0.01679
1936.36785 0.01747
1935.08208 0.01774
1933.79632 0.01767
1932.51055 0.01755
1931.22478 0.01761
1929.93901 0.01784
1928.65324 0.01810
1927.36747 0.01826
1926.08170 0.01826
1924.79593 0.01815
1923.51016 0.01812
1922.22440 0.01836
1920.93863 0.01885
1919.65286 0.01925
1918.36709 0.01922
1917.08132 0.01873
1915.79555 0.01814
1914.50978 0.01788
1913.22401 0.01807
1911.93825 0.01847
1910.65248 0.01875
1909.36671 0.01874
1908.08094 0.01851
1906.79517 0.01818
1905.50940 0.01784
1904.22363 0.01751
1902.93786 0.01726
1901.65209 0.01723
1900.36633 0.01753
1899.08056 0.01809
1897.79479 0.01869
1896.50902 0.01908
1895.22325 0.01918
1893.93748 0.01911
1892.65171 0.01900
1891.36594 0.01887
1890.08018 0.01868
1888.79441 0.01848
1887.50864 0.01835
1886.22287 0.01834
1884.93710 0.01843
1883.65133 0.01855
1882.36556 0.01864
1881.07979 0.01866
1879.79402 0.01860
1878.50826 0.01851
1877.22249 0.01848
1875.93672 0.01850
1874.65095 0.01854
1873.36518 0.01860
1872.07941 0.01874
1870.79364 0.01895
1869.50787 0.01909
1868.22211 0.01905
1866.93634 0.01885
1865.65057 0.01859
1864.36480 0.01837
1863.07903 0.01818
1861.79326 0.01800
1860.50749 0.01786
1859.22172 0.01783
1857.93595 0.01800
1856.65019 0.01831
1855.36442 0.01862
1854.07865 0.01882
1852.79288 0.01888
1851.50711 0.01887
1850.22134 0.01885
1848.93557 0.01883
1847.64980 0.01885
1846.36404 0.01895
1845.07827 0.01916
1843.79250 0.01934
1842.50673 0.01938
1841.22096 0.01929
1839.93519 0.01922
1838.64942 0.01928
1837.36365 0.01943
1836.07788 0.01957
1834.79212 0.01961
1833.50635 0.01958
1832.22058 0.01953
1830.93481 0.01952
1829.64904 0.01956
1828.36327 0.01969
1827.07750 0.01988
1825.79173 0.02007
1824.50597 0.02016
1823.22020 0.02012
1821.93443 0.01993
1820.64866 0.01965
1819.36289 0.01932
1818.07712 0.01905
1816.79135 0.01892
1815.50558 0.01889
1814.21981 0.01889
1812.93405 0.01888
1811.64828 0.01891
1810.36251 0.01905
1809.07674 0.01930
1807.79097 0.01954
1806.50520 0.01970
1805.21943 0.01979
1803.93366 0.01987
1802.64790 0.01992
1801.36213 0.01989
1800.07636 0.01976
1798.79059 0.01959
1797.50482 0.01949
1796.21905 0.01951
1794.93328 0.01964
1793.64751 0.01979
1792.36174 0.01991
1791.07598 0.02004
1789.79021 0.02017
1788.50444 0.02030
1787.21867 0.02037
1785.93290 0.02041
1784.64713 0.02048
1783.36136 0.02060
1782.07559 0.02073
1780.78983 0.02078
1779.50406 0.02071
1778.21829 0.02055
1776.93252 0.02042
1775.64675 0.02036
1774.36098 0.02036
1773.07521 0.02038
1771.78944 0.02042
1770.50367 0.02051
1769.21791 0.02062
1767.93214 0.02069
1766.64637 0.02073
1765.36060 0.02080
1764.07483 0.02098
1762.78906 0.02125
1761.50329 0.02150
1760.21752 0.02163
1758.93176 0.02161
1757.64599 0.02148
1756.36022 0.02132
1755.07445 0.02122
1753.78868 0.02121
1752.50291 0.02129
1751.21714 0.02138
1749.93137 0.02147
1748.64560 0.02152
1747.35984 0.02156
1746.07407 0.02160
1744.78830 0.02166
1743.50253 0.02177
1742.21676 0.02190
1740.93099 0.02202
1739.64522 0.02211
1738.35945 0.02220
1737.07369 0.02231
1735.78792 0.02243
1734.50215 0.02251
1733.21638 0.02253
1731.93061 0.02253
1730.64484 0.02258
1729.35907 0.02272
1728.07330 0.02294
1726.78753 0.02313
1725.50177 0.02326
1724.21600 0.02335
1722.93023 0.02351
1721.64446 0.02380
1720.35869 0.02420
1719.07292 0.02462
1717.78715 0.02498
1716.50138 0.02528
1715.21561 0.02560
1713.92985 0.02599
1712.64408 0.02647
1711.35831 0.02703
1710.07254 0.02765
1708.78677 0.02832
1707.50100 0.02900
1706.21523 0.02967
1704.92946 0.03032
1703.64370 0.03099
1702.35793 0.03171
1701.07216 0.03249
1699.78639 0.03332
1698.50062 0.03423
1697.21485 0.03524
1695.92908 0.03630
1694.64331 0.03728
1693.35754 0.03814
1692.07178 0.03893
1690.78601 0.03976
1689.50024 0.04068
1688.21447 0.04168
1686.92870 0.04271
1685.64293 0.04370
1684.35716 0.04462
1683.07139 0.04547
1681.78563 0.04633
1680.49986 0.04725
1679.21409 0.04822
1677.92832 0.04923
1676.64255 0.05023
1675.35678 0.05120
1674.07101 0.05212
1672.78524 0.05300
1671.49947 0.05388
1670.21371 0.05481
1668.92794 0.05575
1667.64217 0.05669
1666.35640 0.05761
1665.07063 0.05853
1663.78486 0.05943
1662.49909 0.06029
1661.21332 0.06107
1659.92756 0.06179
1658.64179 0.06248
1657.35602 0.06320
1656.07025 0.06398
1654.78448 0.06478
1653.49871 0.06550
1652.21294 0.06605
1650.92717 0.06641
1649.64140 0.06668
1648.35564 0.06694
1647.06987 0.06720
1645.78410 0.06741
1644.49833 0.06750
1643.21256 0.06750
1641.92679 0.06744
1640.64102 0.06736
1639.35525 0.06731
1638.06949 0.06727
1636.78372 0.06720
1635.49795 0.06701
1634.21218 0.06667
1632.92641 0.06622
1631.64064 0.06575
1630.35487 0.06531
1629.06910 0.06488
1627.78333 0.06446
1626.49757 0.06404
1625.21180 0.06364
1623.92603 0.06326
1622.64026 0.06287
1621.35449 0.06249
1620.06872 0.06212
1618.78295 0.06179
1617.49718 0.06147
1616.21142 0.06115
1614.92565 0.06082
1613.63988 0.06050
1612.35411 0.06023
1611.06834 0.06001
1609.78257 0.05984
1608.49680 0.05972
1607.21103 0.05964
1605.92526 0.05959
1604.63950 0.05957
1603.35373 0.05962
1602.06796 0.05973
1600.78219 0.05987
1599.49642 0.06000
1598.21065 0.06012
1596.92488 0.06024
1595.63911 0.06042
1594.35335 0.06065
1593.06758 0.06093
1591.78181 0.06120
1590.49604 0.06144
1589.21027 0.06168
1587.92450 0.06196
1586.63873 0.06229
1585.35296 0.06266
1584.06719 0.06303
1582.78143 0.06341
1581.49566 0.06383
1580.20989 0.06432
1578.92412 0.06485
1577.63835 0.06538
1576.35258 0.06585
1575.06681 0.06625
1573.78104 0.06661
1572.49528 0.06701
1571.20951 0.06747
1569.92374 0.06797
1568.63797 0.06846
1567.35220 0.06891
1566.06643 0.06926
1564.78066 0.06950
1563.49489 0.06971
1562.20912 0.06994
1560.92336 0.07021
1559.63759 0.07047
1558.35182 0.07065
1557.06605 0.07076
1555.78028 0.07084
1554.49451 0.07091
1553.20874 0.07095
1551.92297 0.07094
1550.63721 0.07089
1549.35144 0.07082
1548.06567 0.07074
1546.77990 0.07066
1545.49413 0.07053
1544.20836 0.07032
1542.92259 0.07005
1541.63682 0.06973
1540.35105 0.06938
1539.06529 0.06901
1537.77952 0.06863
1536.49375 0.06829
1535.20798 0.06805
1533.92221 0.06788
1532.63644 0.06779
1531.35067 0.06779
1530.06490 0.06788
1528.77914 0.06804
1527.49337 0.06825
1526.20760 0.06850
1524.92183 0.06882
1523.63606 0.06922
1522.35029 0.06968
1521.06452 0.07015
1519.77875 0.07065
1518.49298 0.07121
1517.20722 0.07186
1515.92145 0.07259
1514.63568 0.07339
1513.34991 0.07427
1512.06414 0.07523
1510.77837 0.07627
1509.49260 0.07734
1508.20683 0.07837
1506.92107 0.07930
1505.63530 0.08014
1504.34953 0.08093
1503.06376 0.08172
1501.77799 0.08253
1500.49222 0.08331
1499.20645 0.08400
1497.92068 0.08459
1496.63491 0.08510
1495.34915 0.08557
1494.06338 0.08604
1492.77761 0.08656
1491.49184 0.08716
1490.20607 0.08787
1488.92030 0.08870
1487.63453 0.08960
1486.34876 0.09056
1485.06299 0.09153
1483.77723 0.09250
1482.49146 0.09347
1481.20569 0.09449
1479.91992 0.09561
1478.63415 0.09684
1477.34838 0.09814
1476.06261 0.09945
1474.77684 0.10071
1473.49108 0.10184
1472.20531 0.10283
1470.91954 0.10366
1469.63377 0.10435
1468.34800 0.10496
1467.06223 0.10558
1465.77646 0.10624
1464.49069 0.10691
1463.20492 0.10758
1461.91916 0.10827
1460.63339 0.10900
1459.34762 0.10979
1458.06185 0.11064
1456.77608 0.11150
1455.49031 0.11230
1454.20454 0.11299
1452.91877 0.11356
1451.63301 0.11398
1450.34724 0.11426
1449.06147 0.11442
1447.77570 0.11449
1446.48993 0.11449
1445.20416 0.11443
1443.91839 0.11434
1442.63262 0.11423
1441.34685 0.11410
1440.06109 0.11399
1438.77532 0.11394
1437.48955 0.11400
1436.20378 0.11423
1434.91801 0.11470
1433.63224 0.11543
1432.34647 0.11637
1431.06070 0.11747
1429.77494 0.11865
1428.48917 0.11993
1427.20340 0.12135
1425.91763 0.12292
1424.63186 0.12456
1423.34609 0.12615
1422.06032 0.12761
1420.77455 0.12896
1419.48878 0.13026
1418.20302 0.13149
1416.91725 0.13257
1415.63148 0.13342
1414.34571 0.13403
1413.05994 0.13442
1411.77417 0.13461
1410.48840 0.13460
1409.20263 0.13438
1407.91687 0.13392
1406.63110 0.13318
1405.34533 0.13218
1404.05956 0.13091
1402.77379 0.12941
1401.48802 0.12771
1400.20225 0.12588
1398.91648 0.12395
1397.63071 0.12195
1396.34495 0.11989
1395.05918 0.11777
1393.77341 0.11559
1392.48764 0.11338
1391.20187 0.11115
1389.91610 0.10893
1388.63033 0.10669
1387.34456 0.10442
1386.05880 0.10215
1384.77303 0.09991
1383.48726 0.09772
1382.20149 0.09556
1380.91572 0.09342
1379.62995 0.09128
1378.34418 0.08911
1377.05841 0.08686
1375.77264 0.08452
1374.48688 0.08212
1373.20111 0.07974
1371.91534 0.07745
1370.62957 0.07528
1369.34380 0.07324
1368.05803 0.07130
1366.77226 0.06946
1365.48649 0.06770
1364.20073 0.06604
1362.91496 0.06445
1361.62919 0.06295
1360.34342 0.06153
1359.05765 0.06023
1357.77188 0.05904
1356.48611 0.05794
1355.20034 0.05687
1353.91457 0.05582
1352.62881 0.05482
1351.34304 0.05392
1350.05727 0.05313
1348.77150 0.05243
1347.48573 0.05175
1346.19996 0.05107
1344.91419 0.05040
1343.62842 0.04978
1342.34266 0.04922
1341.05689 0.04867
1339.77112 0.04809
1338.48535 0.04749
1337.19958 0.04692
1335.91381 0.04638
1334.62804 0.04588
1333.34227 0.04540
1332.05650 0.04493
1330.77074 0.04448
1329.48497 0.04402
1328.19920 0.04355
1326.91343 0.04309
1325.62766 0.04264
1324.34189 0.04219
1323.05612 0.04172
1321.77035 0.04126
1320.48459 0.04083
1319.19882 0.04043
1317.91305 0.04008
1316.62728 0.03976
1315.34151 0.03948
1314.05574 0.03919
1312.76997 0.03885
1311.48420 0.03846
1310.19843 0.03803
1308.91267 0.03761
1307.62690 0.03722
1306.34113 0.03689
1305.05536 0.03661
1303.76959 0.03636
1302.48382 0.03610
1301.19805 0.03581
1299.91228 0.03550
1298.62652 0.03520
1297.34075 0.03493
1296.05498 0.03467
1294.76921 0.03442
1293.48344 0.03418
1292.19767 0.03400
1290.91190 0.03388
1289.62613 0.03379
1288.34036 0.03367
1287.05460 0.03352
1285.76883 0.03335
1284.48306 0.03321
1283.19729 0.03309
1281.91152 0.03300
1280.62575 0.03290
1279.33998 0.03278
1278.05421 0.03264
1276.76845 0.03248
1275.48268 0.03230
1274.19691 0.03212
1272.91114 0.03193
1271.62537 0.03175
1270.33960 0.03159
1269.05383 0.03148
1267.76806 0.03143
1266.48229 0.03142
1265.19653 0.03139
1263.91076 0.03132
1262.62499 0.03120
1261.33922 0.03104
1260.05345 0.03089
1258.76768 0.03077
1257.48191 0.03069
1256.19614 0.03062
1254.91037 0.03056
1253.62461 0.03051
1252.33884 0.03046
1251.05307 0.03043
1249.76730 0.03040
1248.48153 0.03035
1247.19576 0.03026
1245.90999 0.03016
1244.62422 0.03007
1243.33846 0.03001
1242.05269 0.02996
1240.76692 0.02990
1239.48115 0.02982
1238.19538 0.02973
1236.90961 0.02963
1235.62384 0.02950
1234.33807 0.02934
1233.05230 0.02918
1231.76654 0.02905
1230.48077 0.02892
1229.19500 0.02874
1227.90923 0.02851
1226.62346 0.02826
1225.33769 0.02807
1224.05192 0.02793
1222.76615 0.02777
1221.48039 0.02754
1220.19462 0.02726
1218.90885 0.02699
1217.62308 0.02674
1216.33731 0.02652
1215.05154 0.02632
1213.76577 0.02618
1212.48000 0.02613
1211.19423 0.02616
1209.90847 0.02625
1208.62270 0.02634
1207.33693 0.02636
1206.05116 0.02631
1204.76539 0.02621
1203.47962 0.02608
1202.19385 0.02587
1200.90808 0.02561
1199.62232 0.02561
1198.33655 0.02550
1197.05078 0.02541
1195.76501 0.02533
1194.47924 0.02526
1193.19347 0.02516
1191.90770 0.02503
1190.62193 0.02486
1189.33616 0.02468
1188.05040 0.02455
1186.76463 0.02449
1185.47886 0.02447
1184.19309 0.02443
1182.90732 0.02435
1181.62155 0.02425
1180.33578 0.02420
1179.05001 0.02422
1177.76425 0.02432
1176.47848 0.02448
1175.19271 0.02465
1173.90694 0.02479
1172.62117 0.02489
1171.33540 0.02498
1170.04963 0.02507
1168.76386 0.02519
1167.47809 0.02537
1166.19233 0.02559
1164.90656 0.02581
1163.62079 0.02600
1162.33502 0.02613
1161.04925 0.02622
1159.76348 0.02630
1158.47771 0.02644
1157.19194 0.02671
1155.90618 0.02710
1154.62041 0.02754
1153.33464 0.02794
1152.04887 0.02827
1150.76310 0.02854
1149.47733 0.02882
1148.19156 0.02916
1146.90579 0.02961
1145.62002 0.03022
1144.33426 0.03093
1143.04849 0.03171
1141.76272 0.03253
1140.47695 0.03342
1139.19118 0.03441
1137.90541 0.03552
1136.61964 0.03675
1135.33387 0.03812
1134.04811 0.03966
1132.76234 0.04138
1131.47657 0.04327
1130.19080 0.04537
1128.90503 0.04773
1127.61926 0.05037
1126.33349 0.05323
1125.04772 0.05625
1123.76195 0.05938
1122.47619 0.06262
1121.19042 0.06595
1119.90465 0.06931
1118.61888 0.07268
1117.33311 0.07610
1116.04734 0.07962
1114.76157 0.08322
1113.47580 0.08683
1112.19004 0.09038
1110.90427 0.09382
1109.61850 0.09715
1108.33273 0.10042
1107.04696 0.10366
1105.76119 0.10691
1104.47542 0.11016
1103.18965 0.11336
1101.90388 0.11642
1100.61812 0.11932
1099.33235 0.12209
1098.04658 0.12482
1096.76081 0.12755
1095.47504 0.13020
1094.18927 0.13271
1092.90350 0.13503
1091.61773 0.13719
1090.33197 0.13922
1089.04620 0.14118
1087.76043 0.14315
1086.47466 0.14516
1085.18889 0.14721
1083.90312 0.14929
1082.61735 0.15143
1081.33158 0.15368
1080.04581 0.15611
1078.76005 0.15871
1077.47428 0.16145
1076.18851 0.16433
1074.90274 0.16732
1073.61697 0.17035
1072.33120 0.17337
1071.04543 0.17643
1069.75966 0.17962
1068.47390 0.18301
1067.18813 0.18661
1065.90236 0.19033
1064.61659 0.19407
1063.33082 0.19776
1062.04505 0.20145
1060.75928 0.20522
1059.47351 0.20906
1058.18774 0.21283
1056.90198 0.21645
1055.61621 0.21992
1054.33044 0.22336
1053.04467 0.22683
1051.75890 0.23034
1050.47313 0.23391
1049.18736 0.23755
1047.90159 0.24129
1046.61583 0.24516
1045.33006 0.24912
1044.04429 0.25316
1042.75852 0.25723
1041.47275 0.26129
1040.18698 0.26535
1038.90121 0.26946
1037.61544 0.27363
1036.32967 0.27784
1035.04391 0.28200
1033.75814 0.28608
1032.47237 0.29003
1031.18660 0.29378
1029.90083 0.29724
1028.61506 0.30033
1027.32929 0.30310
1026.04352 0.30559
1024.75775 0.30785
1023.47199 0.30982
1022.18622 0.31145
1020.90045 0.31270
1019.61468 0.31352
1018.32891 0.31388
1017.04314 0.31370
1015.75737 0.31299
1014.47160 0.31183
1013.18584 0.31027
1011.90007 0.30829
1010.61430 0.30580
1009.32853 0.30281
1008.04276 0.29937
1006.75699 0.29550
1005.47122 0.29117
1004.18545 0.28631
1002.89968 0.28092
1001.61392 0.27510
1000.32815 0.26897
999.04238 0.26260
997.75661 0.25598
996.47084 0.24913
995.18507 0.24209
993.89930 0.23493
992.61353 0.22770
991.32777 0.22042
990.04200 0.21313
988.75623 0.20592
987.47046 0.19885
986.18469 0.19195
984.89892 0.18529
983.61315 0.17889
982.32738 0.17278
981.04161 0.16695
979.75585 0.16137
978.47008 0.15605
977.18431 0.15106
975.89854 0.14651
974.61277 0.14256
973.32700 0.13929
972.04123 0.13670
970.75546 0.13472
969.46970 0.13331
968.18393 0.13250
966.89816 0.13229
965.61239 0.13261
964.32662 0.13325
963.04085 0.13388
961.75508 0.13419
960.46931 0.13393
959.18354 0.13293
957.89778 0.13118
956.61201 0.12882
955.32624 0.12612
954.04047 0.12334
952.75470 0.12058
951.46893 0.11777
950.18316 0.11484
948.89739 0.11184
947.61163 0.10894
946.32586 0.10626
945.04009 0.10378
943.75432 0.10140
942.46855 0.09906
941.18278 0.09670
939.89701 0.09433
938.61124 0.09200
937.32547 0.08978
936.03971 0.08770
934.75394 0.08578
933.46817 0.08403
932.18240 0.08243
930.89663 0.08099
929.61086 0.07969
928.32509 0.07842
927.03932 0.07709
925.75356 0.07574
924.46779 0.07450
923.18202 0.07344
921.89625 0.07253
920.61048 0.07164
919.32471 0.07069
918.03894 0.06968
916.75317 0.06871
915.46740 0.06789
914.18164 0.06727
912.89587 0.06677
911.61010 0.06624
910.32433 0.06558
909.03856 0.06474
907.75279 0.06386
906.46702 0.06306
905.18125 0.06241
903.89549 0.06186
902.60972 0.06132
901.32395 0.06071
900.03818 0.06002
898.75241 0.05932
897.46664 0.05867
896.18087 0.05812
894.89510 0.05765
893.60933 0.05726
892.32357 0.05695
891.03780 0.05676
889.75203 0.05670
888.46626 0.05686
887.18049 0.05733
885.89472 0.05830
884.60895 0.06000
883.32318 0.06255
882.03742 0.06579
880.75165 0.06917
879.46588 0.07206
878.18011 0.07425
876.89434 0.07601
875.60857 0.07782
874.32280 0.07983
873.03703 0.08165
871.75126 0.08275
870.46550 0.08284
869.17973 0.08197
867.89396 0.08034
866.60819 0.07815
865.32242 0.07559
864.03665 0.07292
862.75088 0.07031
861.46511 0.06780
860.17935 0.06543
858.89358 0.06326
857.60781 0.06140
856.32204 0.05990
855.03627 0.05869
853.75050 0.05767
852.46473 0.05676
851.17896 0.05595
849.89319 0.05525
848.60743 0.05467
847.32166 0.05414
846.03589 0.05363
844.75012 0.05315
843.46435 0.05272
842.17858 0.05235
840.89281 0.05202
839.60704 0.05173
838.32128 0.05145
837.03551 0.05113
835.74974 0.05077
834.46397 0.05041
833.17820 0.05009
831.89243 0.04980
830.60666 0.04952
829.32089 0.04928
828.03512 0.04913
826.74936 0.04905
825.46359 0.04893
824.17782 0.04870
822.89205 0.04840
821.60628 0.04813
820.32051 0.04794
819.03474 0.04781
817.74897 0.04769
816.46321 0.04755
815.17744 0.04740
813.89167 0.04726
812.60590 0.04713
811.32013 0.04702
810.03436 0.04689
808.74859 0.04674
807.46282 0.04658
806.17705 0.04646
804.89129 0.04639
803.60552 0.04641
802.31975 0.04648
801.03398 0.04658
799.74821 0.04665
798.46244 0.04662
797.17667 0.04650
795.89090 0.04637
794.60513 0.04630
793.31937 0.04632
792.03360 0.04633
790.74783 0.04630
789.46206 0.04624
788.17629 0.04622
786.89052 0.04625
785.60475 0.04630
784.31898 0.04632
783.03322 0.04626
781.74745 0.04613
780.46168 0.04601
779.17591 0.04589
777.89014 0.04575
776.60437 0.04556
775.31860 0.04540
774.03283 0.04532
772.74706 0.04533
771.46130 0.04536
770.17553 0.04539
768.88976 0.04546
767.60399 0.04555
766.31822 0.04564
765.03245 0.04569
763.74668 0.04570
762.46091 0.04569
761.17515 0.04571
759.88938 0.04575
758.60361 0.04577
757.31784 0.04573
756.03207 0.04563
754.74630 0.04557
753.46053 0.04562
752.17476 0.04570
750.88899 0.04569
749.60323 0.04553
748.31746 0.04530
747.03169 0.04514
745.74592 0.04508
744.46015 0.04502
743.17438 0.04489
741.88861 0.04471
740.60284 0.04454
739.31708 0.04448
738.03131 0.04453
736.74554 0.04460
735.45977 0.04464
734.17400 0.04461
732.88823 0.04454
731.60246 0.04446
730.31669 0.04444
729.03092 0.04450
727.74516 0.04460
726.45939 0.04468
725.17362 0.04471
723.88785 0.04492
722.60208 0.04477
721.31631 0.04469
720.03054 0.04471
718.74477 0.04471
717.45901 0.04467
716.17324 0.04457
714.88747 0.04442
713.60170 0.04426
712.31593 0.04415
711.03016 0.04411
709.74439 0.04412
708.45862 0.04409
707.17285 0.04402
705.88709 0.04394
704.60132 0.04390
703.31555 0.04392
702.02978 0.04397
700.74401 0.04399
699.45824 0.04396
698.17247 0.04389
696.88670 0.04379
695.60094 0.04372
694.31517 0.04368
693.02940 0.04367
691.74363 0.04368
690.45786 0.04367
689.17209 0.04360
687.88632 0.04348
686.60055 0.04336
685.31478 0.04322
684.02902 0.04303
682.74325 0.04277
681.45748 0.04250
680.17171 0.04230
678.88594 0.04226
677.60017 0.04234
676.31440 0.04249
675.02863 0.04266
673.74287 0.04280
672.45710 0.04289
671.17133 0.04296
669.88556 0.04301
668.59979 0.04295
667.31402 0.04288
666.02825 0.04283
664.74248 0.04259
663.45671 0.04233
662.17095 0.04214
660.88518 0.04200
659.59941 0.04188
658.31364 0.04170
657.02787 0.04142
655.74210 0.04108
654.45633 0.04074
653.17056 0.04047
651.88480 0.04028
650.59903 0.04015
649.31326 0.04004
648.02749 0.03992
646.74172 0.03978
645.45595 0.03965
644.17018 0.03956
642.88441 0.03950
641.59864 0.03943
640.31288 0.03932
639.02711 0.03921
637.74134 0.03921
636.45557 0.03937
635.16980 0.03969
633.88403 0.04016
632.59826 0.04060
631.31249 0.04032
630.02673 0.03909
628.74096 0.03974
627.45519 0.04225
626.16942 0.04466
624.88365 0.04692
623.59788 0.04908
622.31211 0.05090
621.02634 0.05270
619.74057 0.05530
618.45481 0.05904
617.16904 0.06316
615.88327 0.06666
614.59750 0.06965
613.31173 0.07353
612.02596 0.07959
610.74019 0.08741
609.45442 0.09514
608.16866 0.10154
606.88289 0.10691
605.59712 0.11191
604.31135 0.11623
603.02558 0.11896
601.73981 0.11963
600.45404 0.11859
599.16827 0.11643
597.88250 0.11350
596.59674 0.11002
595.31097 0.10633
594.02520 0.10300
592.73943 0.10047
591.45366 0.09891
590.16789 0.09812
588.88212 0.09788
587.59635 0.09809
586.31059 0.09889
585.02482 0.10042
583.73905 0.10268
582.45328 0.10547
581.16751 0.10851
579.88174 0.11160
578.59597 0.11465
577.31020 0.11766
576.02443 0.12061
574.73867 0.12342
573.45290 0.12605
572.16713 0.12864
570.88136 0.13142
569.59559 0.13462
568.30982 0.13829
567.02405 0.14233
565.73828 0.14638
564.45251 0.14997
563.16675 0.15262
561.88098 0.15396
560.59521 0.15376
559.30944 0.15185
558.02367 0.14829
556.73790 0.14341
555.45213 0.13768
554.16636 0.13159
552.88060 0.12544
551.59483 0.11941
550.30906 0.11363
549.02329 0.10817
547.73752 0.10315
546.45175 0.09866
545.16598 0.09474
543.88021 0.09136
542.59444 0.08840
541.30868 0.08571
540.02291 0.08318
538.73714 0.08073
537.45137 0.07831
536.16560 0.07597
534.87983 0.07381
533.59406 0.07194
532.30829 0.07034
531.02253 0.06888
529.73676 0.06739
528.45099 0.06579
527.16522 0.06416
525.87945 0.06267
524.59368 0.06147
523.30791 0.06053
522.02214 0.05968
520.73637 0.05871
519.45061 0.05755
518.16484 0.05628
516.87907 0.05508
515.59330 0.05405
514.30753 0.05319
513.02176 0.05242
511.73599 0.05170
510.45022 0.05100
509.16446 0.05033
507.87869 0.04970
506.59292 0.04915
505.30715 0.04868
504.02138 0.04821
502.73561 0.04766
501.44984 0.04699
500.16407 0.04631
498.87830 0.04571
497.59254 0.04516
496.30677 0.04458
495.02100 0.04399
493.73523 0.04349
492.44946 0.04316
491.16369 0.04295
489.87792 0.04276
488.59215 0.04254
487.30639 0.04227
486.02062 0.04202
484.73485 0.04182
483.44908 0.04171
482.16331 0.04176
480.87754 0.04198
479.59177 0.04231
478.30600 0.04266
477.02023 0.04295
475.73447 0.04317
474.44870 0.04339
473.16293 0.04365
471.87716 0.04392
470.59139 0.04410
469.30562 0.04411
468.01985 0.04393
466.73408 0.04363
465.44832 0.04325
464.16255 0.04282
462.87678 0.04232
461.59101 0.04178
460.30524 0.04122
459.01947 0.04071
457.73370 0.04027
456.44793 0.03990
455.16216 0.03954
453.87640 0.03917
452.59063 0.03878
451.30486 0.03840
450.01909 0.03805
448.73332 0.03769
447.44755 0.03733
446.16178 0.03699
444.87601 0.03672
443.59025 0.03652
442.30448 0.03633
441.01871 0.03612
439.73294 0.03590
438.44717 0.03569
437.16140 0.03549
435.87563 0.03530
434.58986 0.03513
433.30409 0.03500
432.01833 0.03487
430.73256 0.03473
429.44679 0.03455
428.16102 0.03435
426.87525 0.03416
425.58948 0.03393
424.30371 0.03363
423.01794 0.03332
421.73218 0.03307
420.44641 0.03294
419.16064 0.03288
417.87487 0.03278
416.58910 0.03257
415.30333 0.03227
414.01756 0.03199
412.73179 0.03181
411.44602 0.03173
410.16026 0.03168
408.87449 0.03160
407.58872 0.03147
406.30295 0.03133
405.01718 0.03122
403.73141 0.03119
402.44564 0.03124
401.15987 0.03136
399.87411 0.03151
