3997.45528 0.04635
3996.16951 0.04561
3994.88374 0.04537
3993.59798 0.04518
3992.31221 0.04479
3991.02644 0.04446
3989.74067 0.04463
3988.45490 0.04546
3987.16913 0.04657
3985.88336 0.04724
3984.59759 0.04694
3983.31183 0.04583
3982.02606 0.04462
3980.74029 0.04398
3979.45452 0.04406
3978.16875 0.04462
3976.88298 0.04527
3975.59721 0.04565
3974.31144 0.04567
3973.02567 0.04559
3971.73991 0.04575
3970.45414 0.04621
3969.16837 0.04664
3967.88260 0.04668
3966.59683 0.04622
3965.31106 0.04542
3964.02529 0.04474
3962.73952 0.04456
3961.45376 0.04497
3960.16799 0.04581
3958.88222 0.04694
3957.59645 0.04808
3956.31068 0.04866
3955.02491 0.04809
3953.73914 0.04640
3952.45337 0.04445
3951.16760 0.04331
3949.88184 0.04345
3948.59607 0.04450
3947.31030 0.04565
3946.02453 0.04623
3944.73876 0.04616
3943.45299 0.04580
3942.16722 0.04550
3940.88145 0.04530
3939.59569 0.04500
3938.30992 0.04449
3937.02415 0.04389
3935.73838 0.04351
3934.45261 0.04355
3933.16684 0.04390
3931.88107 0.04435
3930.59530 0.04486
3929.30953 0.04561
3928.02377 0.04672
3926.73800 0.04800
3925.45223 0.04889
3924.16646 0.04889
3922.88069 0.04806
3921.59492 0.04719
3920.30915 0.04717
3919.02338 0.04823
3917.73762 0.04965
3916.45185 0.05045
3915.16608 0.05020
3913.88031 0.04925
3912.59454 0.04815
3911.30877 0.04726
3910.02300 0.04678
3908.73723 0.04686
3907.45146 0.04757
3906.16570 0.04869
3904.87993 0.04958
3903.59416 0.04958
3902.30839 0.04855
3901.02262 0.04703
3899.73685 0.04580
3898.45108 0.04534
3897.16531 0.04560
3895.87955 0.04622
3894.59378 0.04674
3893.30801 0.04680
3892.02224 0.04621
3890.73647 0.04507
3889.45070 0.04393
3888.16493 0.04354
3886.87916 0.04402
3885.59339 0.04467
3884.30763 0.04485
3883.02186 0.04463
3881.73609 0.04449
3880.45032 0.04469
3879.16455 0.04523
3877.87878 0.04605
3876.59301 0.04700
3875.30724 0.04762
3874.02148 0.04745
3872.73571 0.04652
3871.44994 0.04535
3870.16417 0.04444
3868.87840 0.04401
3867.59263 0.04410
3866.30686 0.04455
3865.02109 0.04503
3863.73532 0.04541
3862.44956 0.04575
3861.16379 0.04599
3859.87802 0.04592
3858.59225 0.04557
3857.30648 0.04528
3856.02071 0.04524
3854.73494 0.04517
3853.44917 0.04476
3852.16341 0.04433
3850.87764 0.04445
3849.59187 0.04507
3848.30610 0.04555
3847.02033 0.04555
3845.73456 0.04527
3844.44879 0.04482
3843.16302 0.04412
3841.87725 0.04335
3840.59149 0.04312
3839.30572 0.04369
3838.01995 0.04451
3836.73418 0.04481
3835.44841 0.04445
3834.16264 0.04380
3832.87687 0.04314
3831.59110 0.04256
3830.30534 0.04217
3829.01957 0.04214
3827.73380 0.04241
3826.44803 0.04276
3825.16226 0.04306
3823.87649 0.04339
3822.59072 0.04369
3821.30495 0.04366
3820.01918 0.04332
3818.73342 0.04324
3817.44765 0.04367
3816.16188 0.04403
3814.87611 0.04360
3813.59034 0.04249
3812.30457 0.04129
3811.01880 0.04058
3809.73303 0.04069
3808.44726 0.04153
3807.16150 0.04238
3805.87573 0.04266
3804.58996 0.04266
3803.30419 0.04304
3802.01842 0.04379
3800.73265 0.04431
3799.44688 0.04433
3798.16111 0.04409
3796.87535 0.04371
3795.58958 0.04319
3794.30381 0.04263
3793.01804 0.04224
3791.73227 0.04211
3790.44650 0.04223
3789.16073 0.04259
3787.87496 0.04310
3786.58919 0.04342
3785.30343 0.04306
3784.01766 0.04179
3782.73189 0.04009
3781.44612 0.03894
3780.16035 0.03891
3778.87458 0.03963
3777.58881 0.04035
3776.30304 0.04073
3775.01728 0.04085
3773.73151 0.04096
3772.44574 0.04119
3771.15997 0.04148
3769.87420 0.04161
3768.58843 0.04154
3767.30266 0.04161
3766.01689 0.04201
3764.73112 0.04258
3763.44536 0.04298
3762.15959 0.04311
3760.87382 0.04301
3759.58805 0.04271
3758.30228 0.04230
3757.01651 0.04191
3755.73074 0.04175
3754.44497 0.04198
3753.15921 0.04250
3751.87344 0.04295
3750.58767 0.04298
3749.30190 0.04261
3748.01613 0.04234
3746.73036 0.04276
3745.44459 0.04368
3744.15882 0.04422
3742.87305 0.04406
3741.58729 0.04376
3740.30152 0.04366
3739.01575 0.04344
3737.72998 0.04280
3736.44421 0.04184
3735.15844 0.04090
3733.87267 0.04022
3732.58690 0.03964
3731.30114 0.03889
3730.01537 0.03820
3728.72960 0.03811
3727.44383 0.03890
3726.15806 0.04018
3724.87229 0.04127
3723.58652 0.04171
3722.30075 0.04145
3721.01498 0.04086
3719.72922 0.04032
3718.44345 0.04001
3717.15768 0.03985
3715.87191 0.03990
3714.58614 0.04020
3713.30037 0.04052
3712.01460 0.04059
3710.72883 0.04048
3709.44307 0.04067
3708.15730 0.04137
3706.87153 0.04227
3705.58576 0.04286
3704.29999 0.04294
3703.01422 0.04261
3701.72845 0.04199
3700.44268 0.04104
3699.15691 0.03984
3697.87115 0.03859
3696.58538 0.03763
3695.29961 0.03726
3694.01384 0.03753
3692.72807 0.03822
3691.44230 0.03890
3690.15653 0.03919
3688.87076 0.03888
3687.58500 0.03809
3686.29923 0.03735
3685.01346 0.03696
3683.72769 0.03673
3682.44192 0.03645
3681.15615 0.03632
3679.87038 0.03684
3678.58461 0.03819
3677.29884 0.03990
3676.01308 0.04093
3674.72731 0.04074
3673.44154 0.03999
3672.15577 0.03974
3670.87000 0.04012
3669.58423 0.04054
3668.29846 0.04081
3667.01269 0.04114
3665.72693 0.04144
3664.44116 0.04134
3663.15539 0.04079
3661.86962 0.04019
3660.58385 0.03994
3659.29808 0.04009
3658.01231 0.04052
3656.72654 0.04107
3655.44077 0.04156
3654.15501 0.04181
3652.86924 0.04168
3651.58347 0.04111
3650.29770 0.04027
3649.01193 0.03956
3647.72616 0.03928
3646.44039 0.03946
3645.15462 0.03996
3643.86886 0.04066
3642.58309 0.04147
3641.29732 0.04226
3640.01155 0.04300
3638.72578 0.04370
3637.44001 0.04410
3636.15424 0.04368
3634.86847 0.04219
3633.58270 0.04024
3632.29694 0.03911
3631.01117 0.03950
3629.72540 0.04076
3628.43963 0.04143
3627.15386 0.04085
3625.86809 0.03969
3624.58232 0.03894
3623.29655 0.03897
3622.01079 0.03951
3620.72502 0.04024
3619.43925 0.04105
3618.15348 0.04195
3616.86771 0.04282
3615.58194 0.04345
3614.29617 0.04375
3613.01040 0.04396
3611.72463 0.04445
3610.43887 0.04544
3609.15310 0.04675
3607.86733 0.04800
3606.58156 0.04894
3605.29579 0.04949
3604.01002 0.04968
3602.72425 0.04963
3601.43848 0.04950
3600.15272 0.04937
3598.86695 0.04924
3597.58118 0.04907
3596.29541 0.04878
3595.00964 0.04823
3593.72387 0.04742
3592.43810 0.04661
3591.15233 0.04624
3589.86656 0.04660
3588.58080 0.04743
3587.29503 0.04815
3586.00926 0.04837
3584.72349 0.04813
3583.43772 0.04781
3582.15195 0.04773
3580.86618 0.04796
3579.58041 0.04830
3578.29464 0.04857
3577.00888 0.04872
3575.72311 0.04879
3574.43734 0.04883
3573.15157 0.04891
3571.86580 0.04909
3570.58003 0.04937
3569.29426 0.04966
3568.00849 0.04991
3566.72273 0.05021
3565.43696 0.05063
3564.15119 0.05100
3562.86542 0.05101
3561.57965 0.05051
3560.29388 0.04975
3559.00811 0.04919
3557.72234 0.04930
3556.43657 0.05022
3555.15081 0.05149
3553.86504 0.05227
3552.57927 0.05203
3551.29350 0.05109
3550.00773 0.05042
3548.72196 0.05072
3547.43619 0.05180
3546.15042 0.05295
3544.86466 0.05368
3543.57889 0.05400
3542.29312 0.05406
3541.00735 0.05388
3539.72158 0.05348
3538.43581 0.05301
3537.15004 0.05270
3535.86427 0.05261
3534.57850 0.05269
3533.29274 0.05290
3532.00697 0.05324
3530.72120 0.05370
3529.43543 0.05410
3528.14966 0.05436
3526.86389 0.05469
3525.57812 0.05540
3524.29235 0.05640
3523.00659 0.05709
3521.72082 0.05698
3520.43505 0.05621
3519.14928 0.05544
3517.86351 0.05524
3516.57774 0.05565
3515.29197 0.05637
3514.00620 0.05713
3512.72043 0.05788
3511.43467 0.05857
3510.14890 0.05890
3508.86313 0.05864
3507.57736 0.05802
3506.29159 0.05761
3505.00582 0.05768
3503.72005 0.05790
3502.43428 0.05784
3501.14852 0.05752
3499.86275 0.05739
3498.57698 0.05776
3497.29121 0.05850
3496.00544 0.05918
3494.71967 0.05947
3493.43390 0.05933
3492.14813 0.05898
3490.86236 0.05870
3489.57660 0.05862
3488.29083 0.05875
3487.00506 0.05914
3485.71929 0.05988
3484.43352 0.06091
3483.14775 0.06187
3481.86198 0.06230
3480.57621 0.06215
3479.29045 0.06176
3478.00468 0.06140
3476.71891 0.06105
3475.43314 0.06069
3474.14737 0.06061
3472.86160 0.06117
3471.57583 0.06230
3470.29006 0.06344
3469.00429 0.06405
3467.71853 0.06397
3466.43276 0.06333
3465.14699 0.06237
3463.86122 0.06141
3462.57545 0.06089
3461.28968 0.06108
3460.00391 0.06173
3458.71814 0.06228
3457.43238 0.06244
3456.14661 0.06239
3454.86084 0.06232
3453.57507 0.06216
3452.28930 0.06173
3451.00353 0.06119
3449.71776 0.06093
3448.43199 0.06111
3447.14622 0.06150
3445.86046 0.06176
3444.57469 0.06188
3443.28892 0.06216
3442.00315 0.06289
3440.71738 0.06405
3439.43161 0.06524
3438.14584 0.06597
3436.86007 0.06596
3435.57431 0.06535
3434.28854 0.06448
3433.00277 0.06374
3431.71700 0.06347
3430.43123 0.06386
3429.14546 0.06482
3427.85969 0.06591
3426.57392 0.06668
3425.28815 0.06696
3424.00239 0.06692
3422.71662 0.06681
3421.43085 0.06674
3420.14508 0.06668
3418.85931 0.06658
3417.57354 0.06651
3416.28777 0.06657
3415.00200 0.06682
3413.71624 0.06712
3412.43047 0.06719
3411.14470 0.06680
3409.85893 0.06603
3408.57316 0.06540
3407.28739 0.06549
3406.00162 0.06644
3404.71585 0.06774
3403.43008 0.06861
3402.14432 0.06881
3400.85855 0.06876
3399.57278 0.06853
3398.28701 0.06845
3397.00124 0.06894
3395.71547 0.06962
3394.42970 0.07000
3393.14393 0.06985
3391.85817 0.06926
3390.57240 0.06866
3389.28663 0.06855
3388.00086 0.06906
3386.71509 0.06995
3385.42932 0.07085
3384.14355 0.07154
3382.85778 0.07190
3381.57201 0.07190
3380.28625 0.07166
3379.00048 0.07130
3377.71471 0.07088
3376.42894 0.07046
3375.14317 0.07019
3373.85740 0.07027
3372.57163 0.07069
3371.28586 0.07120
3370.00010 0.07150
3368.71433 0.07142
3367.42856 0.07105
3366.14279 0.07062
3364.85702 0.07041
3363.57125 0.07050
3362.28548 0.07073
3360.99971 0.07084
3359.71394 0.07076
3358.42818 0.07070
3357.14241 0.07087
3355.85664 0.07121
3354.57087 0.07149
3353.28510 0.07162
3351.99933 0.07170
3350.71356 0.07186
3349.42779 0.07199
3348.14202 0.07184
3346.85626 0.07131
3345.57049 0.07066
3344.28472 0.07028
3342.99895 0.07029
3341.71318 0.07048
3340.42741 0.07056
3339.14164 0.07042
3337.85587 0.07024
3336.57011 0.07022
3335.28434 0.07041
3333.99857 0.07075
3332.71280 0.07109
3331.42703 0.07122
3330.14126 0.07102
3328.85549 0.07054
3327.56972 0.07003
3326.28395 0.06974
3324.99819 0.06976
3323.71242 0.07000
3322.42665 0.07045
3321.14088 0.07121
3319.85511 0.07225
3318.56934 0.07323
3317.28357 0.07371
3315.99780 0.07355
3314.71204 0.07302
3313.42627 0.07251
3312.14050 0.07214
3310.85473 0.07192
3309.56896 0.07196
3308.28319 0.07241
3306.99742 0.07314
3305.71165 0.07368
3304.42588 0.07366
3303.14012 0.07314
3301.85435 0.07252
3300.56858 0.07216
3299.28281 0.07209
3297.99704 0.07207
3296.71127 0.07188
3295.42550 0.07158
3294.13973 0.07148
3292.85397 0.07178
3291.56820 0.07234
3290.28243 0.07283
3288.99666 0.07304
3287.71089 0.07305
3286.42512 0.07302
3285.13935 0.07304
3283.85358 0.07316
3282.56781 0.07341
3281.28205 0.07372
3279.99628 0.07382
3278.71051 0.07347
3277.42474 0.07270
3276.13897 0.07185
3274.85320 0.07135
3273.56743 0.07139
3272.28166 0.07188
3270.99590 0.07245
3269.71013 0.07278
3268.42436 0.07282
3267.13859 0.07282
3265.85282 0.07296
3264.56705 0.07314
3263.28128 0.07313
3261.99551 0.07290
3260.70974 0.07261
3259.42398 0.07236
3258.13821 0.07217
3256.85244 0.07204
3255.56667 0.07204
3254.28090 0.07216
3252.99513 0.07219
3251.70936 0.07195
3250.42359 0.07154
3249.13783 0.07122
3247.85206 0.07115
3246.56629 0.07122
3245.28052 0.07126
3243.99475 0.07125
3242.70898 0.07126
3241.42321 0.07136
3240.13744 0.07157
3238.85167 0.07179
3237.56591 0.07179
3236.28014 0.07139
3234.99437 0.07067
3233.70860 0.06991
3232.42283 0.06948
3231.13706 0.06956
3229.85129 0.06998
3228.56552 0.07033
3227.27976 0.07028
3225.99399 0.06987
3224.70822 0.06942
3223.42245 0.06920
3222.13668 0.06931
3220.85091 0.06975
3219.56514 0.07041
3218.27937 0.07100
3216.99360 0.07120
3215.70784 0.07096
3214.42207 0.07057
3213.13630 0.07031
3211.85053 0.07019
3210.56476 0.07007
3209.27899 0.06995
3207.99322 0.06998
3206.70745 0.07017
3205.42169 0.07028
3204.13592 0.07005
3202.85015 0.06961
3201.56438 0.06936
3200.27861 0.06956
3198.99284 0.07001
3197.70707 0.07035
3196.42130 0.07041
3195.13553 0.07028
3193.84977 0.07005
3192.56400 0.06975
3191.27823 0.06945
3189.99246 0.06928
3188.70669 0.06932
3187.42092 0.06941
3186.13515 0.06930
3184.84938 0.06892
3183.56362 0.06854
3182.27785 0.06854
3180.99208 0.06900
3179.70631 0.06955
3178.42054 0.06974
3177.13477 0.06944
3175.84900 0.06890
3174.56323 0.06838
3173.27746 0.06789
3171.99170 0.06731
3170.70593 0.06666
3169.42016 0.06616
3168.13439 0.06608
3166.84862 0.06643
3165.56285 0.06695
3164.27708 0.06721
3162.99131 0.06702
3161.70555 0.06655
3160.41978 0.06612
3159.13401 0.06592
3157.84824 0.06588
3156.56247 0.06590
3155.27670 0.06591
3153.99093 0.06587
3152.70516 0.06585
3151.41939 0.06597
3150.13363 0.06628
3148.84786 0.06664
3147.56209 0.06687
3146.27632 0.06701
3144.99055 0.06726
3143.70478 0.06766
3142.41901 0.06804
3141.13324 0.06815
3139.84748 0.06795
3138.56171 0.06757
3137.27594 0.06712
3135.99017 0.06663
3134.70440 0.06613
3133.41863 0.06576
3132.13286 0.06562
3130.84709 0.06567
3129.56132 0.06571
3128.27556 0.06556
3126.98979 0.06523
3125.70402 0.06486
3124.41825 0.06456
3123.13248 0.06436
3121.84671 0.06420
3120.56094 0.06403
3119.27517 0.06398
3117.98940 0.06423
3116.70364 0.06476
3115.41787 0.06533
3114.13210 0.06564
3112.84633 0.06556
3111.56056 0.06515
3110.27479 0.06450
3108.98902 0.06376
3107.70325 0.06309
3106.41749 0.06263
3105.13172 0.06234
3103.84595 0.06223
3102.56018 0.06239
3101.27441 0.06284
3099.98864 0.06338
3098.70287 0.06373
3097.41710 0.06388
3096.13133 0.06399
3094.84557 0.06416
3093.55980 0.06428
3092.27403 0.06421
3090.98826 0.06395
3089.70249 0.06359
3088.41672 0.06327
3087.13095 0.06301
3085.84518 0.06280
3084.55942 0.06261
3083.27365 0.06245
3081.98788 0.06229
3080.70211 0.06212
3079.41634 0.06195
3078.13057 0.06195
3076.84480 0.06225
3075.55903 0.06278
3074.27326 0.06326
3072.98750 0.06343
3071.70173 0.06327
3070.41596 0.06304
3069.13019 0.06295
3067.84442 0.06298
3066.55865 0.06302
3065.27288 0.06301
3063.98711 0.06297
3062.70135 0.06284
3061.41558 0.06250
3060.12981 0.06200
3058.84404 0.06156
3057.55827 0.06133
3056.27250 0.06121
3054.98673 0.06103
3053.70096 0.06080
3052.41519 0.06067
3051.12943 0.06075
3049.84366 0.06093
3048.55789 0.06097
3047.27212 0.06074
3045.98635 0.06035
3044.70058 0.05993
3043.41481 0.05959
3042.12904 0.05939
3040.84328 0.05938
3039.55751 0.05955
3038.27174 0.05979
3036.98597 0.06000
3035.70020 0.06013
3034.41443 0.06017
3033.12866 0.06012
3031.84289 0.05999
3030.55712 0.05985
3029.27136 0.05984
3027.98559 0.05998
3026.69982 0.06015
3025.41405 0.06022
3024.12828 0.06016
3022.84251 0.06009
3021.55674 0.06012
3020.27097 0.06026
3018.98521 0.06034
3017.69944 0.06020
3016.41367 0.05984
3015.12790 0.05942
3013.84213 0.05909
3012.55636 0.05888
3011.27059 0.05873
3009.98482 0.05859
3008.69905 0.05849
3007.41329 0.05848
3006.12752 0.05857
3004.84175 0.05866
3003.55598 0.05871
3002.27021 0.05881
3000.98444 0.05882
2999.69867 0.05817
2998.41290 0.05781
2997.12714 0.05764
2995.84137 0.05768
2994.55560 0.05787
2993.26983 0.05808
2991.98406 0.05824
2990.69829 0.05830
2989.41252 0.05821
2988.12675 0.05800
2986.84098 0.05772
2985.55522 0.05751
2984.26945 0.05748
2982.98368 0.05771
2981.69791 0.05810
2980.41214 0.05848
2979.12637 0.05879
2977.84060 0.05905
2976.55483 0.05934
2975.26907 0.05967
2973.98330 0.06004
2972.69753 0.06047
2971.41176 0.06105
2970.12599 0.06177
2968.84022 0.06245
2967.55445 0.06298
2966.26868 0.06346
2964.98291 0.06413
2963.69715 0.06512
2962.41138 0.06630
2961.12561 0.06741
2959.83984 0.06828
2958.55407 0.06880
2957.26830 0.06908
2955.98253 0.06931
2954.69676 0.06960
2953.41100 0.06992
2952.12523 0.07018
2950.83946 0.07037
2949.55369 0.07059
2948.26792 0.07086
2946.98215 0.07108
2945.69638 0.07111
2944.41061 0.07089
2943.12484 0.07059
2941.83908 0.07056
2940.55331 0.07101
2939.26754 0.07182
2937.98177 0.07263
2936.69600 0.07323
2935.41023 0.07383
2934.12446 0.07477
2932.83869 0.07607
2931.55293 0.07744
2930.26716 0.07863
2928.98139 0.07966
2927.69562 0.08062
2926.40985 0.08142
2925.12408 0.08184
2923.83831 0.08186
2922.55254 0.08168
2921.26677 0.08154
2919.98101 0.08146
2918.69524 0.08125
2917.40947 0.08074
2916.12370 0.07992
2914.83793 0.07894
2913.55216 0.07791
2912.26639 0.07692
2910.98062 0.07609
2909.69486 0.07545
2908.40909 0.07483
2907.12332 0.07402
2905.83755 0.07297
2904.55178 0.07196
2903.26601 0.07127
2901.98024 0.07094
2900.69447 0.07077
2899.40870 0.07059
2898.12294 0.07034
2896.83717 0.06999
2895.55140 0.06949
2894.26563 0.06888
2892.97986 0.06822
2891.69409 0.06753
2890.40832 0.06672
2889.12255 0.06579
2887.83678 0.06488
2886.55102 0.06420
2885.26525 0.06381
2883.97948 0.06364
2882.69371 0.06366
2881.40794 0.06382
2880.12217 0.06396
2878.83640 0.06385
2877.55063 0.06356
2876.26487 0.06348
2874.97910 0.06388
2873.69333 0.06456
2872.40756 0.06507
2871.12179 0.06525
2869.83602 0.06535
2868.55025 0.06562
2867.26448 0.06596
2865.97871 0.06610
2864.69295 0.06595
2863.40718 0.06568
2862.12141 0.06549
2860.83564 0.06551
2859.54987 0.06580
2858.26410 0.06635
2856.97833 0.06709
2855.69256 0.06779
2854.40680 0.06823
2853.12103 0.06830
2851.83526 0.06805
2850.54949 0.06754
2849.26372 0.06677
2847.97795 0.06582
2846.69218 0.06491
2845.40641 0.06420
2844.12064 0.06368
2842.83488 0.06309
2841.54911 0.06222
2840.26334 0.06112
2838.97757 0.06002
2837.69180 0.05913
2836.40603 0.05848
2835.12026 0.05795
2833.83449 0.05742
2832.54873 0.05688
2831.26296 0.05637
2829.97719 0.05591
2828.69142 0.05548
2827.40565 0.05509
2826.11988 0.05472
2824.83411 0.05434
2823.54834 0.05400
2822.26257 0.05379
2820.97681 0.05376
2819.69104 0.05380
2818.40527 0.05378
2817.11950 0.05370
2815.83373 0.05362
2814.54796 0.05349
2813.26219 0.05321
2811.97642 0.05278
2810.69066 0.05231
2809.40489 0.05194
2808.11912 0.05171
2806.83335 0.05156
2805.54758 0.05138
2804.26181 0.05112
2802.97604 0.05082
2801.69027 0.05061
2800.40450 0.05055
2799.11874 0.05059
2797.83297 0.05060
2796.54720 0.05053
2795.26143 0.05047
2793.97566 0.05049
2792.68989 0.05055
2791.40412 0.05058
2790.11835 0.05058
2788.83259 0.05059
2787.54682 0.05054
2786.26105 0.05037
2784.97528 0.05010
2783.68951 0.04986
2782.40374 0.04972
2781.11797 0.04969
2779.83220 0.04974
2778.54643 0.04981
2777.26067 0.04985
2775.97490 0.04981
2774.68913 0.04968
2773.40336 0.04944
2772.11759 0.04911
2770.83182 0.04881
2769.54605 0.04868
2768.26028 0.04876
2766.97452 0.04885
2765.68875 0.04876
2764.40298 0.04853
2763.11721 0.04836
2761.83144 0.04831
2760.54567 0.04824
2759.25990 0.04807
2757.97413 0.04787
2756.68836 0.04777
2755.40260 0.04777
2754.11683 0.04780
2752.83106 0.04783
2751.54529 0.04782
2750.25952 0.04778
2748.97375 0.04771
2747.68798 0.04762
2746.40221 0.04749
2745.11645 0.04731
2743.83068 0.04717
2742.54491 0.04722
2741.25914 0.04744
2739.97337 0.04770
2738.68760 0.04788
2737.40183 0.04795
2736.11606 0.04791
2734.83029 0.04769
2733.54453 0.04733
2732.25876 0.04703
2730.97299 0.04694
2729.68722 0.04698
2728.40145 0.04690
2727.11568 0.04664
2725.82991 0.04632
2724.54414 0.04607
2723.25838 0.04590
2721.97261 0.04576
2720.68684 0.04562
2719.40107 0.04554
2718.11530 0.04558
2716.82953 0.04577
2715.54376 0.04600
2714.25799 0.04615
2712.97222 0.04614
2711.68646 0.04600
2710.40069 0.04578
2709.11492 0.04552
2707.82915 0.04527
2706.54338 0.04503
2705.25761 0.04483
2703.97184 0.04472
2702.68607 0.04473
2701.40031 0.04482
2700.11454 0.04488
2698.82877 0.04482
2697.54300 0.04470
2696.25723 0.04463
2694.97146 0.04466
2693.68569 0.04474
2692.39992 0.04473
2691.11415 0.04461
2689.82839 0.04449
2688.54262 0.04451
2687.25685 0.04463
2685.97108 0.04468
2684.68531 0.04455
2683.39954 0.04432
2682.11377 0.04412
2680.82800 0.04401
2679.54224 0.04396
2678.25647 0.04391
2676.97070 0.04381
2675.68493 0.04368
2674.39916 0.04360
2673.11339 0.04362
2671.82762 0.04376
2670.54185 0.04399
2669.25608 0.04421
2667.97032 0.04425
2666.68455 0.04396
2665.39878 0.04346
2664.11301 0.04310
2662.82724 0.04319
2661.54147 0.04369
2660.25570 0.04424
2658.96993 0.04451
2657.68417 0.04447
2656.39840 0.04426
2655.11263 0.04404
2653.82686 0.04387
2652.54109 0.04374
2651.25532 0.04354
2649.96955 0.04315
2648.68378 0.04258
2647.39801 0.04204
2646.11225 0.04173
2644.82648 0.04177
2643.54071 0.04205
2642.25494 0.04231
2640.96917 0.04237
2639.68340 0.04225
2638.39763 0.04209
2637.11186 0.04195
2635.82609 0.04174
2634.54033 0.04136
2633.25456 0.04091
2631.96879 0.04061
2630.68302 0.04058
2629.39725 0.04081
2628.11148 0.04120
2626.82571 0.04155
2625.53994 0.04169
2624.25418 0.04153
2622.96841 0.04112
2621.68264 0.04065
2620.39687 0.04028
2619.11110 0.04002
2617.82533 0.03979
2616.53956 0.03954
2615.25379 0.03941
2613.96802 0.03948
2612.68226 0.03960
2611.39649 0.03948
2610.11072 0.03911
2608.82495 0.03874
2607.53918 0.03853
2606.25341 0.03839
2604.96764 0.03821
2603.68187 0.03801
2602.39611 0.03789
2601.11034 0.03788
2599.82457 0.03793
2598.53880 0.03786
2597.25303 0.03752
2595.96726 0.03691
2594.68149 0.03624
2593.39572 0.03575
2592.10995 0.03557
2590.82419 0.03569
2589.53842 0.03599
2588.25265 0.03637
2586.96688 0.03673
2585.68111 0.03704
2584.39534 0.03720
2583.10957 0.03708
2581.82380 0.03666
2580.53804 0.03612
2579.25227 0.03572
2577.96650 0.03564
2576.68073 0.03581
2575.39496 0.03596
2574.10919 0.03593
2572.82342 0.03584
2571.53765 0.03586
2570.25188 0.03605
2568.96612 0.03626
2567.68035 0.03632
2566.39458 0.03616
2565.10881 0.03580
2563.82304 0.03536
2562.53727 0.03490
2561.25150 0.03449
2559.96573 0.03417
2558.67997 0.03399
2557.39420 0.03398
2556.10843 0.03411
2554.82266 0.03437
2553.53689 0.03466
2552.25112 0.03478
2550.96535 0.03459
2549.67958 0.03409
2548.39381 0.03337
2547.10805 0.03259
2545.82228 0.03196
2544.53651 0.03178
2543.25074 0.03213
2541.96497 0.03285
2540.67920 0.03348
2539.39343 0.03370
2538.10766 0.03344
2536.82190 0.03294
2535.53613 0.03247
2534.25036 0.03226
2532.96459 0.03246
2531.67882 0.03293
2530.39305 0.03331
2529.10728 0.03331
2527.82151 0.03297
2526.53574 0.03259
2525.24998 0.03239
2523.96421 0.03243
2522.67844 0.03271
2521.39267 0.03318
2520.10690 0.03367
2518.82113 0.03398
2517.53536 0.03403
2516.24959 0.03386
2514.96383 0.03364
2513.67806 0.03352
2512.39229 0.03356
2511.10652 0.03370
2509.82075 0.03380
2508.53498 0.03366
2507.24921 0.03318
2505.96344 0.03249
2504.67767 0.03191
2503.39191 0.03164
2502.10614 0.03160
2500.82037 0.03164
2499.53460 0.03174
2498.24883 0.03196
2496.96306 0.03237
2495.67729 0.03288
2494.39152 0.03332
2493.10576 0.03354
2491.81999 0.03347
2490.53422 0.03319
2489.24845 0.03283
2487.96268 0.03253
2486.67691 0.03239
2485.39114 0.03248
2484.10537 0.03277
2482.81960 0.03318
2481.53384 0.03354
2480.24807 0.03364
2478.96230 0.03342
2477.67653 0.03304
2476.39076 0.03274
2475.10499 0.03258
2473.81922 0.03246
2472.53345 0.03225
2471.24769 0.03195
2469.96192 0.03162
2468.67615 0.03129
2467.39038 0.03102
2466.10461 0.03093
2464.81884 0.03108
2463.53307 0.03138
2462.24730 0.03159
2460.96153 0.03153
2459.67577 0.03129
2458.39000 0.03104
2457.10423 0.03093
2455.81846 0.03092
2454.53269 0.03093
2453.24692 0.03098
2451.96115 0.03119
2450.67538 0.03157
2449.38962 0.03196
2448.10385 0.03214
2446.81808 0.03204
2445.53231 0.03179
2444.24654 0.03157
2442.96077 0.03148
2441.67500 0.03157
2440.38923 0.03183
2439.10346 0.03219
2437.81770 0.03250
2436.53193 0.03261
2435.24616 0.03244
2433.96039 0.03208
2432.67462 0.03181
2431.38885 0.03178
2430.10308 0.03179
2428.81731 0.03154
2427.53155 0.03099
2426.24578 0.03041
2424.96001 0.03008
2423.67424 0.03006
2422.38847 0.03016
2421.10270 0.03018
2419.81693 0.03007
2418.53116 0.02999
2417.24539 0.03004
2415.95963 0.03018
2414.67386 0.03027
2413.38809 0.03031
2412.10232 0.03035
2410.81655 0.03050
2409.53078 0.03079
2408.24501 0.03112
2406.95924 0.03130
2405.67347 0.03120
2404.38771 0.03087
2403.10194 0.03054
2401.81617 0.03039
2400.53040 0.03048
2399.24463 0.03155
2397.95886 0.03117
2396.67309 0.03091
2395.38732 0.03107
2394.10156 0.03129
2392.81579 0.03137
2391.53002 0.03124
2390.24425 0.03092
2388.95848 0.03053
2387.67271 0.03020
2386.38694 0.03001
2385.10117 0.02996
2383.81540 0.03000
2382.52964 0.03009
2381.24387 0.03012
2379.95810 0.03010
2378.67233 0.03002
2377.38656 0.02995
2376.10079 0.03001
2374.81502 0.03010
2373.52925 0.02998
2372.24349 0.02986
2370.95772 0.03000
2369.67195 0.03032
2368.38618 0.03067
2367.10041 0.03097
2365.81464 0.03121
2364.52887 0.03143
2363.24310 0.03163
2361.95733 0.03178
2360.67157 0.03184
2359.38580 0.03181
2358.10003 0.03165
2356.81426 0.03145
2355.52849 0.03141
2354.24272 0.03159
2352.95695 0.03184
2351.67118 0.03179
2350.38542 0.03163
2349.09965 0.03160
2347.81388 0.03157
2346.52811 0.03147
2345.24234 0.03144
2343.95657 0.03155
2342.67080 0.03192
2341.38503 0.03189
2340.09926 0.03169
2338.81350 0.03181
2337.52773 0.03208
2336.24196 0.03195
2334.95619 0.03180
2333.67042 0.03184
2332.38465 0.03201
2331.09888 0.03161
2329.81311 0.03153
2328.52735 0.03170
2327.24158 0.03177
2325.95581 0.03200
2324.67004 0.03227
2323.38427 0.03261
2322.09850 0.03266
2320.81273 0.03260
2319.52696 0.03244
2318.24119 0.03212
2316.95543 0.03159
2315.66966 0.03104
2314.38389 0.03071
2313.09812 0.03054
2311.81235 0.03041
2310.52658 0.03029
2309.24081 0.03014
2307.95504 0.02996
2306.66928 0.02975
2305.38351 0.02953
2304.09774 0.02934
2302.81197 0.02919
2301.52620 0.02904
2300.24043 0.02886
2298.95466 0.02865
2297.66889 0.02850
2296.38312 0.02848
2295.09736 0.02856
2293.81159 0.02865
2292.52582 0.02869
2291.24005 0.02876
2289.95428 0.02899
2288.66851 0.02938
2287.38274 0.02965
2286.09697 0.02949
2284.81121 0.02888
2283.52544 0.02813
2282.23967 0.02761
2280.95390 0.02740
2279.66813 0.02726
2278.38236 0.02694
2277.09659 0.02646
2275.81082 0.02612
2274.52505 0.02622
2273.23929 0.02669
2271.95352 0.02706
2270.66775 0.02687
2269.38198 0.02607
2268.09621 0.02510
2266.81044 0.02454
2265.52467 0.02461
2264.23890 0.02505
2262.95314 0.02539
2261.66737 0.02527
2260.38160 0.02476
2259.09583 0.02415
2257.81006 0.02371
2256.52429 0.02347
2255.23852 0.02336
2253.95275 0.02337
2252.66698 0.02345
2251.38122 0.02331
2250.09545 0.02316
2248.80968 0.02419
2247.52391 0.02390
2246.23814 0.02321
2244.95237 0.02251
2243.66660 0.02215
2242.38083 0.02216
2241.09507 0.02220
2239.80930 0.02206
2238.52353 0.02191
2237.23776 0.02191
2235.95199 0.02202
2234.66622 0.02210
2233.38045 0.02228
2232.09468 0.02272
2230.80891 0.02327
2229.52315 0.02354
2228.23738 0.02323
2226.95161 0.02243
2225.66584 0.02138
2224.38007 0.02034
2223.09430 0.01953
2221.80853 0.01905
2220.52276 0.01892
2219.23700 0.01911
2217.95123 0.01961
2216.66546 0.02015
2215.37969 0.02030
2214.09392 0.01994
2212.80815 0.01948
2211.52238 0.01941
2210.23661 0.01973
2208.95084 0.02005
2207.66508 0.01997
2206.37931 0.01930
2205.09354 0.01817
2203.80777 0.01705
2202.52200 0.01643
2201.23623 0.01638
2199.95046 0.01663
2198.66469 0.01693
2197.37893 0.01726
2196.09316 0.01754
2194.80739 0.01763
2193.52162 0.01751
2192.23585 0.01736
2190.95008 0.01729
2189.66431 0.01725
2188.37854 0.01721
2187.09277 0.01716
2185.80701 0.01706
2184.52124 0.01678
2183.23547 0.01634
2181.94970 0.01612
2180.66393 0.01665
2179.37816 0.01782
2178.09239 0.01860
2176.80662 0.01791
2175.52085 0.01584
2174.23509 0.01372
2172.94932 0.01271
2171.66355 0.01285
2170.37778 0.01345
2169.09201 0.01403
2167.80624 0.01438
2166.52047 0.01421
2165.23470 0.01311
2163.94894 0.01115
2162.66317 0.00902
2161.37740 0.00745
2160.09163 0.00673
2158.80586 0.00667
2157.52009 0.00707
2156.23432 0.00778
2154.94855 0.00838
2153.66278 0.00830
2152.37702 0.00753
2151.09125 0.00688
2149.80548 0.00727
2148.51971 0.00875
2147.23394 0.01057
2145.94817 0.01213
2144.66240 0.01342
2143.37663 0.01458
2142.09087 0.01547
2140.80510 0.01579
2139.51933 0.01547
2138.23356 0.01469
2136.94779 0.01383
2135.66202 0.01333
2134.37625 0.01355
2133.09048 0.01440
2131.80471 0.01535
2130.51895 0.01589
2129.23318 0.01593
2127.94741 0.01582
2126.66164 0.01593
2125.37587 0.01635
2124.09010 0.01691
2122.80433 0.01730
2121.51856 0.01740
2120.23280 0.01733
2118.94703 0.01739
2117.66126 0.01770
2116.37549 0.01812
2115.08972 0.01837
2113.80395 0.01834
2112.51818 0.01812
2111.23241 0.01797
2109.94664 0.01812
2108.66088 0.01853
2107.37511 0.01877
2106.08934 0.01852
2104.80357 0.01797
2103.51780 0.01766
2102.23203 0.01773
2100.94626 0.01783
2099.66049 0.01804
2098.37473 0.01823
2097.08896 0.01801
2095.80319 0.01757
2094.51742 0.01712
2093.23165 0.01687
2091.94588 0.01704
2090.66011 0.01744
2089.37434 0.01758
2088.08857 0.01717
2086.80281 0.01642
2085.51704 0.01580
2084.23127 0.01549
2082.94550 0.01540
2081.65973 0.01539
2080.37396 0.01552
2079.08819 0.01582
2077.80242 0.01620
2076.51666 0.01647
2075.23089 0.01658
2073.94512 0.01659
2072.65935 0.01655
2071.37358 0.01648
2070.08781 0.01643
2068.80204 0.01650
2067.51627 0.01665
2066.23050 0.01668
2064.94474 0.01636
2063.65897 0.01570
2062.37320 0.01494
2061.08743 0.01432
2059.80166 0.01393
2058.51589 0.01367
2057.23012 0.01325
2055.94435 0.01253
2054.65859 0.01178
2053.37282 0.01151
2052.08705 0.01190
2050.80128 0.01253
2049.51551 0.01275
2048.22974 0.01227
2046.94397 0.01129
2045.65820 0.01024
2044.37243 0.00959
2043.08667 0.00962
2041.80090 0.01030
2040.51513 0.01131
2039.22936 0.01236
2037.94359 0.01332
2036.65782 0.01406
2035.37205 0.01445
2034.08628 0.01435
2032.80052 0.01349
2031.51475 0.01168
2030.22898 0.00922
2028.94321 0.00713
2027.65744 0.00645
2026.37167 0.00727
2025.08590 0.00855
2023.80013 0.00918
2022.51436 0.00891
2021.22860 0.00817
2019.94283 0.00740
2018.65706 0.00681
2017.37129 0.00671
2016.08552 0.00743
2014.79975 0.00894
2013.51398 0.01058
2012.22821 0.01162
2010.94245 0.01177
2009.65668 0.01132
2008.37091 0.01078
2007.08514 0.01053
2005.79937 0.01060
2004.51360 0.01068
2003.22783 0.01049
2001.94206 0.01012
2000.65629 0.01002
1999.37053 0.01056
1998.08476 0.01162
1996.79899 0.01262
1995.51322 0.01299
1994.22745 0.01266
1992.94168 0.01196
1991.65591 0.01127
1990.37014 0.01076
1989.08438 0.01049
1987.79861 0.01049
1986.51284 0.01077
1985.22707 0.01127
1983.94130 0.01186
1982.65553 0.01243
1981.36976 0.01293
1980.08399 0.01336
1978.79822 0.01368
1977.51246 0.01380
1976.22669 0.01355
1974.94092 0.01291
1973.65515 0.01212
1972.36938 0.01160
1971.08361 0.01171
1969.79784 0.01248
1968.51207 0.01339
1967.22631 0.01375
1965.94054 0.01336
1964.65477 0.01269
1963.36900 0.01233
1962.08323 0.01236
1960.79746 0.01243
1959.51169 0.01235
1958.22592 0.01224
1956.94015 0.01217
1955.65439 0.01207
1954.36862 0.01198
1953.08285 0.01224
1951.79708 0.01314
1950.51131 0.01449
1949.22554 0.01568
1947.93977 0.01622
1946.65400 0.01604
1945.36823 0.01551
1944.08247 0.01503
1942.79670 0.01482
1941.51093 0.01489
1940.22516 0.01518
1938.93939 0.01560
1937.65362 0.01602
1936.36785 0.01628
1935.08208 0.01635
1933.79632 0.01631
1932.51055 0.01630
1931.22478 0.01642
1929.93901 0.01672
1928.65324 0.01716
1927.36747 0.01755
1926.08170 0.01764
1924.79593 0.01740
1923.51016 0.01708
1922.22440 0.01701
1920.93863 0.01729
1919.65286 0.01770
1918.36709 0.01792
1917.08132 0.01783
1915.79555 0.01756
1914.50978 0.01736
1913.22401 0.01736
1911.93825 0.01752
1910.65248 0.01769
1909.36671 0.01779
1908.08094 0.01778
1906.79517 0.01760
1905.50940 0.01722
1904.22363 0.01678
1902.93786 0.01659
1901.65209 0.01682
1900.36633 0.01728
1899.08056 0.01766
1897.79479 0.01785
1896.50902 0.01796
1895.22325 0.01816
1893.93748 0.01845
1892.65171 0.01876
1891.36594 0.01894
1890.08018 0.01887
1888.79441 0.01852
1887.50864 0.01801
1886.22287 0.01757
1884.93710 0.01733
1883.65133 0.01728
1882.36556 0.01731
1881.07979 0.01730
1879.79402 0.01727
1878.50826 0.01728
1877.22249 0.01743
1875.93672 0.01766
1874.65095 0.01792
1873.36518 0.01814
1872.07941 0.01834
1870.79364 0.01844
1869.50787 0.01835
1868.22211 0.01809
1866.93634 0.01782
1865.65057 0.01772
1864.36480 0.01778
1863.07903 0.01781
1861.79326 0.01768
1860.50749 0.01743
1859.22172 0.01725
1857.93595 0.01725
1856.65019 0.01742
1855.36442 0.01768
1854.07865 0.01801
1852.79288 0.01837
1851.50711 0.01863
1850.22134 0.01868
1848.93557 0.01845
1847.64980 0.01811
1846.36404 0.01793
1845.07827 0.01803
1843.79250 0.01830
1842.50673 0.01852
1841.22096 0.01862
1839.93519 0.01862
1838.64942 0.01857
1837.36365 0.01852
1836.07788 0.01855
1834.79212 0.01866
1833.50635 0.01878
1832.22058 0.01883
1830.93481 0.01876
1829.64904 0.01862
1828.36327 0.01849
1827.07750 0.01846
1825.79173 0.01854
1824.50597 0.01865
1823.22020 0.01876
1821.93443 0.01887
1820.64866 0.01896
1819.36289 0.01897
1818.07712 0.01885
1816.79135 0.01863
1815.50558 0.01841
1814.21981 0.01827
1812.93405 0.01820
1811.64828 0.01817
1810.36251 0.01813
1809.07674 0.01810
1807.79097 0.01809
1806.50520 0.01815
1805.21943 0.01829
1803.93366 0.01849
1802.64790 0.01864
1801.36213 0.01864
1800.07636 0.01854
1798.79059 0.01849
1797.50482 0.01855
1796.21905 0.01871
1794.93328 0.01887
1793.64751 0.01899
1792.36174 0.01906
1791.07598 0.01911
1789.79021 0.01918
1788.50444 0.01928
1787.21867 0.01937
1785.93290 0.01941
1784.64713 0.01942
1783.36136 0.01943
1782.07559 0.01946
1780.78983 0.01949
1779.50406 0.01946
1778.21829 0.01937
1776.93252 0.01927
1775.64675 0.01921
1774.36098 0.01924
1773.07521 0.01927
1771.78944 0.01925
1770.50367 0.01926
1769.21791 0.01936
1767.93214 0.01947
1766.64637 0.01952
1765.36060 0.01960
1764.07483 0.01983
1762.78906 0.02019
1761.50329 0.02048
1760.21752 0.02060
1758.93176 0.02061
1757.64599 0.02065
1756.36022 0.02075
1755.07445 0.02091
1753.78868 0.02119
1752.50291 0.02159
1751.21714 0.02201
1749.93137 0.02240
1748.64560 0.02280
1747.35984 0.02320
1746.07407 0.02353
1744.78830 0.02374
1743.50253 0.02389
1742.21676 0.02403
1740.93099 0.02418
1739.64522 0.02423
1738.35945 0.02418
1737.07369 0.02417
1735.78792 0.02433
1734.50215 0.02448
1733.21638 0.02438
1731.93061 0.02408
1730.64484 0.02383
1729.35907 0.02376
1728.07330 0.02381
1726.78753 0.02388
1725.50177 0.02397
1724.21600 0.02407
1722.93023 0.02419
1721.64446 0.02439
1720.35869 0.02475
1719.07292 0.02520
1717.78715 0.02556
1716.50138 0.02569
1715.21561 0.02571
1713.92985 0.02583
1712.64408 0.02610
1711.35831 0.02648
1710.07254 0.02687
1708.78677 0.02725
1707.50100 0.02764
1706.21523 0.02800
1704.92946 0.02832
1703.64370 0.02868
1702.35793 0.02922
1701.07216 0.02983
1699.78639 0.03028
1698.50062 0.03064
1697.21485 0.03114
1695.92908 0.03173
1694.64331 0.03213
1693.35754 0.03238
1692.07178 0.03274
1690.78601 0.03328
1689.50024 0.03389
1688.21447 0.03453
1686.92870 0.03529
1685.64293 0.03611
1684.35716 0.03672
1683.07139 0.03703
1681.78563 0.03728
1680.49986 0.03769
1679.21409 0.03827
1677.92832 0.03896
1676.64255 0.03969
1675.35678 0.04033
1674.07101 0.04080
1672.78524 0.04123
1671.49947 0.04180
1670.21371 0.04248
1668.92794 0.04311
1667.64217 0.04364
1666.35640 0.04415
1665.07063 0.04474
1663.78486 0.04539
1662.49909 0.04598
1661.21332 0.04646
1659.92756 0.04689
1658.64179 0.04733
1657.35602 0.04782
1656.07025 0.04846
1654.78448 0.04928
1653.49871 0.05001
1652.21294 0.05032
1650.92717 0.05026
1649.64140 0.05022
1648.35564 0.05042
1647.06987 0.05070
1645.78410 0.05085
1644.49833 0.05083
1643.21256 0.05074
1641.92679 0.05065
1640.64102 0.05054
1639.35525 0.05047
1638.06949 0.05053
1636.78372 0.05070
1635.49795 0.05075
1634.21218 0.05054
1632.92641 0.05019
1631.64064 0.04991
1630.35487 0.04975
1629.06910 0.04963
1627.78333 0.04947
1626.49757 0.04928
1625.21180 0.04912
1623.92603 0.04899
1622.64026 0.04880
1621.35449 0.04856
1620.06872 0.04837
1618.78295 0.04832
1617.49718 0.04829
1616.21142 0.04810
1614.92565 0.04774
1613.63988 0.04741
1612.35411 0.04726
1611.06834 0.04725
1609.78257 0.04728
1608.49680 0.04732
1607.21103 0.04737
1605.92526 0.04744
1604.63950 0.04752
1603.35373 0.04759
1602.06796 0.04764
1600.78219 0.04769
1599.49642 0.04775
1598.21065 0.04784
1596.92488 0.04798
1595.63911 0.04815
1594.35335 0.04838
1593.06758 0.04864
1591.78181 0.04890
1590.49604 0.04913
1589.21027 0.04933
1587.92450 0.04952
1586.63873 0.04974
1585.35296 0.04997
1584.06719 0.05020
1582.78143 0.05042
1581.49566 0.05066
1580.20989 0.05099
1578.92412 0.05150
1577.63835 0.05217
1576.35258 0.05278
1575.06681 0.05315
1573.78104 0.05336
1572.49528 0.05364
1571.20951 0.05405
1569.92374 0.05443
1568.63797 0.05470
1567.35220 0.05491
1566.06643 0.05513
1564.78066 0.05535
1563.49489 0.05558
1562.20912 0.05594
1560.92336 0.05647
1559.63759 0.05693
1558.35182 0.05710
1557.06605 0.05706
1555.78028 0.05710
1554.49451 0.05728
1553.20874 0.05748
1551.92297 0.05760
1550.63721 0.05768
1549.35144 0.05773
1548.06567 0.05776
1546.77990 0.05779
1545.49413 0.05780
1544.20836 0.05772
1542.92259 0.05760
1541.63682 0.05750
1540.35105 0.05735
1539.06529 0.05699
1537.77952 0.05641
1536.49375 0.05585
1535.20798 0.05553
1533.92221 0.05539
1532.63644 0.05527
1531.35067 0.05514
1530.06490 0.05509
1528.77914 0.05512
1527.49337 0.05520
1526.20760 0.05529
1524.92183 0.05542
1523.63606 0.05570
1522.35029 0.05612
1521.06452 0.05653
1519.77875 0.05688
1518.49298 0.05727
1517.20722 0.05775
1515.92145 0.05828
1514.63568 0.05886
1513.34991 0.05955
1512.06414 0.06034
1510.77837 0.06123
1509.49260 0.06223
1508.20683 0.06331
1506.92107 0.06430
1505.63530 0.06501
1504.34953 0.06551
1503.06376 0.06602
1501.77799 0.06664
1500.49222 0.06728
1499.20645 0.06786
1497.92068 0.06835
1496.63491 0.06874
1495.34915 0.06905
1494.06338 0.06937
1492.77761 0.06982
1491.49184 0.07041
1490.20607 0.07103
1488.92030 0.07163
1487.63453 0.07222
1486.34876 0.07284
1485.06299 0.07353
1483.77723 0.07432
1482.49146 0.07522
1481.20569 0.07618
1479.91992 0.07718
1478.63415 0.07823
1477.34838 0.07931
1476.06261 0.08039
1474.77684 0.08145
1473.49108 0.08249
1472.20531 0.08346
1470.91954 0.08434
1469.63377 0.08512
1468.34800 0.08581
1467.06223 0.08644
1465.77646 0.08698
1464.49069 0.08744
1463.20492 0.08786
1461.91916 0.08830
1460.63339 0.08886
1459.34762 0.08961
1458.06185 0.09046
1456.77608 0.09119
1455.49031 0.09168
1454.20454 0.09203
1452.91877 0.09238
1451.63301 0.09274
1450.34724 0.09305
1449.06147 0.09329
1447.77570 0.09348
1446.48993 0.09362
1445.20416 0.09372
1443.91839 0.09374
1442.63262 0.09366
1441.34685 0.09347
1440.06109 0.09325
1438.77532 0.09311
1437.48955 0.09306
1436.20378 0.09307
1434.91801 0.09315
1433.63224 0.09341
1432.34647 0.09391
1431.06070 0.09462
1429.77494 0.09547
1428.48917 0.09643
1427.20340 0.09749
1425.91763 0.09866
1424.63186 0.09989
1423.34609 0.10113
1422.06032 0.10238
1420.77455 0.10366
1419.48878 0.10489
1418.20302 0.10597
1416.91725 0.10687
1415.63148 0.10763
1414.34571 0.10825
1413.05994 0.10874
1411.77417 0.10906
1410.48840 0.10917
1409.20263 0.10905
1407.91687 0.10872
1406.63110 0.10821
1405.34533 0.10752
1404.05956 0.10664
1402.77379 0.10557
1401.48802 0.10436
1400.20225 0.10301
1398.91648 0.10152
1397.63071 0.09993
1396.34495 0.09831
1395.05918 0.09668
1393.77341 0.09500
1392.48764 0.09327
1391.20187 0.09153
1389.91610 0.08983
1388.63033 0.08818
1387.34456 0.08654
1386.05880 0.08490
1384.77303 0.08327
1383.48726 0.08167
1382.20149 0.08009
1380.91572 0.07853
1379.62995 0.07696
1378.34418 0.07536
1377.05841 0.07369
1375.77264 0.07196
1374.48688 0.07017
1373.20111 0.06834
1371.91534 0.06651
1370.62957 0.06472
1369.34380 0.06300
1368.05803 0.06134
1366.77226 0.05977
1365.48649 0.05831
1364.20073 0.05697
1362.91496 0.05569
1361.62919 0.05443
1360.34342 0.05319
1359.05765 0.05203
1357.77188 0.05101
1356.48611 0.05008
1355.20034 0.04920
1353.91457 0.04831
1352.62881 0.04744
1351.34304 0.04666
1350.05727 0.04598
1348.77150 0.04536
1347.48573 0.04476
1346.19996 0.04417
1344.91419 0.04363
1343.62842 0.04315
1342.34266 0.04270
1341.05689 0.04220
1339.77112 0.04165
1338.48535 0.04109
1337.19958 0.04058
1335.91381 0.04012
1334.62804 0.03973
1333.34227 0.03938
1332.05650 0.03910
1330.77074 0.03884
1329.48497 0.03855
1328.19920 0.03821
1326.91343 0.03784
1325.62766 0.03751
1324.34189 0.03721
1323.05612 0.03689
1321.77035 0.03655
1320.48459 0.03622
1319.19882 0.03593
1317.91305 0.03569
1316.62728 0.03547
1315.34151 0.03527
1314.05574 0.03506
1312.76997 0.03485
1311.48420 0.03463
1310.19843 0.03441
1308.91267 0.03418
1307.62690 0.03395
1306.34113 0.03370
1305.05536 0.03340
1303.76959 0.03309
1302.48382 0.03280
1301.19805 0.03254
1299.91228 0.03229
1298.62652 0.03205
1297.34075 0.03182
1296.05498 0.03160
1294.76921 0.03141
1293.48344 0.03123
1292.19767 0.03106
1290.91190 0.03093
1289.62613 0.03081
1288.34036 0.03068
1287.05460 0.03050
1285.76883 0.03029
1284.48306 0.03009
1283.19729 0.02995
1281.91152 0.02986
1280.62575 0.02976
1279.33998 0.02964
1278.05421 0.02947
1276.76845 0.02930
1275.48268 0.02917
1274.19691 0.02907
1272.91114 0.02897
1271.62537 0.02885
1270.33960 0.02869
1269.05383 0.02856
1267.76806 0.02849
1266.48229 0.02851
1265.19653 0.02854
1263.91076 0.02852
1262.62499 0.02841
1261.33922 0.02824
1260.05345 0.02807
1258.76768 0.02794
1257.48191 0.02785
1256.19614 0.02777
1254.91037 0.02771
1253.62461 0.02766
1252.33884 0.02764
1251.05307 0.02763
1249.76730 0.02760
1248.48153 0.02753
1247.19576 0.02743
1245.90999 0.02734
1244.62422 0.02728
1243.33846 0.02726
1242.05269 0.02725
1240.76692 0.02722
1239.48115 0.02716
1238.19538 0.02709
1236.90961 0.02702
1235.62384 0.02695
1234.33807 0.02687
1233.05230 0.02678
1231.76654 0.02672
1230.48077 0.02667
1229.19500 0.02660
1227.90923 0.02647
1226.62346 0.02629
1225.33769 0.02613
1224.05192 0.02604
1222.76615 0.02598
1221.48039 0.02593
1220.19462 0.02585
1218.90885 0.02575
1217.62308 0.02565
1216.33731 0.02555
1215.05154 0.02547
1213.76577 0.02542
1212.48000 0.02542
1211.19423 0.02545
1209.90847 0.02549
1208.62270 0.02554
1207.33693 0.02558
1206.05116 0.02561
1204.76539 0.02566
1203.47962 0.02573
1202.19385 0.02576
1200.90808 0.02572
1199.62232 0.02587
1198.33655 0.02591
1197.05078 0.02592
1195.76501 0.02594
1194.47924 0.02596
1193.19347 0.02602
1191.90770 0.02608
1190.62193 0.02612
1189.33616 0.02611
1188.05040 0.02608
1186.76463 0.02606
1185.47886 0.02608
1184.19309 0.02611
1182.90732 0.02614
1181.62155 0.02617
1180.33578 0.02621
1179.05001 0.02624
1177.76425 0.02629
1176.47848 0.02636
1175.19271 0.02647
1173.90694 0.02661
1172.62117 0.02676
1171.33540 0.02691
1170.04963 0.02703
1168.76386 0.02712
1167.47809 0.02722
1166.19233 0.02735
1164.90656 0.02752
1163.62079 0.02768
1162.33502 0.02784
1161.04925 0.02797
1159.76348 0.02806
1158.47771 0.02817
1157.19194 0.02834
1155.90618 0.02862
1154.62041 0.02897
1153.33464 0.02929
1152.04887 0.02953
1150.76310 0.02970
1149.47733 0.02986
1148.19156 0.03004
1146.90579 0.03027
1145.62002 0.03057
1144.33426 0.03098
1143.04849 0.03154
1141.76272 0.03227
1140.47695 0.03312
1139.19118 0.03400
1137.90541 0.03487
1136.61964 0.03576
1135.33387 0.03672
1134.04811 0.03781
1132.76234 0.03907
1131.47657 0.04054
1130.19080 0.04225
1128.90503 0.04423
1127.61926 0.04641
1126.33349 0.04876
1125.04772 0.05124
1123.76195 0.05384
1122.47619 0.05659
1121.19042 0.05946
1119.90465 0.06244
1118.61888 0.06552
1117.33311 0.06867
1116.04734 0.07181
1114.76157 0.07490
1113.47580 0.07793
1112.19004 0.08088
1110.90427 0.08376
1109.61850 0.08654
1108.33273 0.08926
1107.04696 0.09193
1105.76119 0.09456
1104.47542 0.09713
1103.18965 0.09960
1101.90388 0.10191
1100.61812 0.10408
1099.33235 0.10618
1098.04658 0.10832
1096.76081 0.11051
1095.47504 0.11265
1094.18927 0.11464
1092.90350 0.11641
1091.61773 0.11798
1090.33197 0.11941
1089.04620 0.12079
1087.76043 0.12216
1086.47466 0.12358
1085.18889 0.12500
1083.90312 0.12641
1082.61735 0.12785
1081.33158 0.12941
1080.04581 0.13115
1078.76005 0.13308
1077.47428 0.13514
1076.18851 0.13731
1074.90274 0.13956
1073.61697 0.14184
1072.33120 0.14417
1071.04543 0.14658
1069.75966 0.14911
1068.47390 0.15173
1067.18813 0.15442
1065.90236 0.15714
1064.61659 0.15990
1063.33082 0.16269
1062.04505 0.16553
1060.75928 0.16840
1059.47351 0.17123
1058.18774 0.17396
1056.90198 0.17653
1055.61621 0.17896
1054.33044 0.18135
1053.04467 0.18382
1051.75890 0.18641
1050.47313 0.18912
1049.18736 0.19192
1047.90159 0.19476
1046.61583 0.19763
1045.33006 0.20054
1044.04429 0.20352
1042.75852 0.20655
1041.47275 0.20959
1040.18698 0.21264
1038.90121 0.21577
1037.61544 0.21900
1036.32967 0.22233
1035.04391 0.22568
1033.75814 0.22898
1032.47237 0.23212
1031.18660 0.23499
1029.90083 0.23760
1028.61506 0.23998
1027.32929 0.24217
1026.04352 0.24415
1024.75775 0.24586
1023.47199 0.24728
1022.18622 0.24843
1020.90045 0.24935
1019.61468 0.25000
1018.32891 0.25035
1017.04314 0.25036
1015.75737 0.25009
1014.47160 0.24956
1013.18584 0.24871
1011.90007 0.24750
1010.61430 0.24588
1009.32853 0.24383
1008.04276 0.24135
1006.75699 0.23843
1005.47122 0.23513
1004.18545 0.23154
1002.89968 0.22774
1001.61392 0.22369
1000.32815 0.21930
999.04238 0.21452
997.75661 0.20943
996.47084 0.20419
995.18507 0.19890
993.89930 0.19354
992.61353 0.18807
991.32777 0.18247
990.04200 0.17682
988.75623 0.17124
987.47046 0.16584
986.18469 0.16062
984.89892 0.15556
983.61315 0.15062
982.32738 0.14584
981.04161 0.14129
979.75585 0.13699
978.47008 0.13295
977.18431 0.12916
975.89854 0.12562
974.61277 0.12239
973.32700 0.11954
972.04123 0.11713
970.75546 0.11521
969.46970 0.11384
968.18393 0.11309
966.89816 0.11293
965.61239 0.11323
964.32662 0.11374
963.04085 0.11421
961.75508 0.11450
960.46931 0.11450
959.18354 0.11409
957.89778 0.11310
956.61201 0.11152
955.32624 0.10953
954.04047 0.10739
952.75470 0.10524
951.46893 0.10310
950.18316 0.10087
948.89739 0.09851
947.61163 0.09609
946.32586 0.09373
945.04009 0.09151
943.75432 0.08940
942.46855 0.08735
941.18278 0.08533
939.89701 0.08337
938.61124 0.08143
937.32547 0.07952
936.03971 0.07767
934.75394 0.07597
933.46817 0.07448
932.18240 0.07320
930.89663 0.07204
929.61086 0.07089
928.32509 0.06973
927.03932 0.06858
925.75356 0.06747
924.46779 0.06646
923.18202 0.06556
921.89625 0.06474
920.61048 0.06389
919.32471 0.06297
918.03894 0.06202
916.75317 0.06117
915.46740 0.06050
914.18164 0.05999
912.89587 0.05952
911.61010 0.05894
910.32433 0.05821
909.03856 0.05745
907.75279 0.05681
906.46702 0.05634
905.18125 0.05595
903.89549 0.05554
902.60972 0.05506
901.32395 0.05453
900.03818 0.05400
898.75241 0.05348
897.46664 0.05296
896.18087 0.05244
894.89510 0.05197
893.60933 0.05156
892.32357 0.05121
891.03780 0.05091
889.75203 0.05069
888.46626 0.05069
887.18049 0.05105
885.89472 0.05193
884.60895 0.05344
883.32318 0.05564
882.03742 0.05837
880.75165 0.06118
879.46588 0.06356
878.18011 0.06532
876.89434 0.06665
875.60857 0.06793
874.32280 0.06934
873.03703 0.07071
871.75126 0.07170
870.46550 0.07203
869.17973 0.07161
867.89396 0.07049
866.60819 0.06879
865.32242 0.06669
864.03665 0.06445
862.75088 0.06226
861.46511 0.06021
860.17935 0.05834
858.89358 0.05666
857.60781 0.05522
856.32204 0.05401
855.03627 0.05295
853.75050 0.05200
852.46473 0.05118
851.17896 0.05052
849.89319 0.05005
848.60743 0.04967
847.32166 0.04928
846.03589 0.04882
844.75012 0.04828
843.46435 0.04775
842.17858 0.04736
840.89281 0.04712
839.60704 0.04696
838.32128 0.04679
837.03551 0.04653
835.74974 0.04623
834.46397 0.04594
833.17820 0.04569
831.89243 0.04543
830.60666 0.04514
829.32089 0.04486
828.03512 0.04466
826.74936 0.04456
825.46359 0.04452
824.17782 0.04447
822.89205 0.04436
821.60628 0.04418
820.32051 0.04395
819.03474 0.04372
817.74897 0.04351
816.46321 0.04328
815.17744 0.04306
813.89167 0.04289
812.60590 0.04281
811.32013 0.04281
810.03436 0.04278
808.74859 0.04269
807.46282 0.04256
806.17705 0.04245
804.89129 0.04236
803.60552 0.04225
802.31975 0.04214
801.03398 0.04206
799.74821 0.04203
798.46244 0.04199
797.17667 0.04190
795.89090 0.04179
794.60513 0.04170
793.31937 0.04164
792.03360 0.04158
790.74783 0.04150
789.46206 0.04146
788.17629 0.04150
786.89052 0.04162
785.60475 0.04171
784.31898 0.04164
783.03322 0.04139
781.74745 0.04103
780.46168 0.04074
779.17591 0.04058
777.89014 0.04053
776.60437 0.04050
775.31860 0.04048
774.03283 0.04051
772.74706 0.04057
771.46130 0.04064
770.17553 0.04067
768.88976 0.04067
767.60399 0.04064
766.31822 0.04062
765.03245 0.04066
763.74668 0.04076
762.46091 0.04088
761.17515 0.04095
759.88938 0.04095
758.60361 0.04086
757.31784 0.04074
756.03207 0.04065
754.74630 0.04066
753.46053 0.04078
752.17476 0.04089
750.88899 0.04087
749.60323 0.04072
748.31746 0.04053
747.03169 0.04042
745.74592 0.04038
744.46015 0.04034
743.17438 0.04024
741.88861 0.04012
740.60284 0.04002
739.31708 0.03998
738.03131 0.03994
736.74554 0.03988
735.45977 0.03983
734.17400 0.03986
732.88823 0.04000
731.60246 0.04021
730.31669 0.04043
729.03092 0.04059
727.74516 0.04062
726.45939 0.04052
725.17362 0.04037
723.88785 0.04047
722.60208 0.04028
721.31631 0.04022
720.03054 0.04028
718.74477 0.04032
717.45901 0.04029
716.17324 0.04020
714.88747 0.04004
713.60170 0.03986
712.31593 0.03972
711.03016 0.03965
709.74439 0.03961
708.45862 0.03955
707.17285 0.03946
705.88709 0.03938
704.60132 0.03935
703.31555 0.03938
702.02978 0.03940
700.74401 0.03934
699.45824 0.03922
698.17247 0.03908
696.88670 0.03897
695.60094 0.03890
694.31517 0.03886
693.02940 0.03884
691.74363 0.03881
690.45786 0.03877
689.17209 0.03870
687.88632 0.03863
686.60055 0.03859
685.31478 0.03853
684.02902 0.03841
682.74325 0.03823
681.45748 0.03803
680.17171 0.03785
678.88594 0.03768
677.60017 0.03756
676.31440 0.03750
675.02863 0.03753
673.74287 0.03761
672.45710 0.03771
671.17133 0.03780
669.88556 0.03786
668.59979 0.03789
667.31402 0.03788
666.02825 0.03778
664.74248 0.03761
663.45671 0.03740
662.17095 0.03722
660.88518 0.03713
659.59941 0.03711
658.31364 0.03707
657.02787 0.03696
655.74210 0.03676
654.45633 0.03653
653.17056 0.03634
651.88480 0.03620
650.59903 0.03611
649.31326 0.03607
648.02749 0.03609
646.74172 0.03615
645.45595 0.03623
644.17018 0.03634
642.88441 0.03642
641.59864 0.03646
640.31288 0.03646
639.02711 0.03648
637.74134 0.03657
636.45557 0.03675
635.16980 0.03701
633.88403 0.03737
632.59826 0.03772
631.31249 0.03748
630.02673 0.03659
628.74096 0.03773
627.45519 0.04007
626.16942 0.04287
624.88365 0.04584
623.59788 0.04869
622.31211 0.05123
621.02634 0.05345
619.74057 0.05539
618.45481 0.05716
617.16904 0.05883
615.88327 0.06044
614.59750 0.06240
613.31173 0.06574
612.02596 0.07116
610.74019 0.07796
609.45442 0.08451
608.16866 0.09003
606.88289 0.09480
605.59712 0.09895
604.31135 0.10200
603.02558 0.10358
601.73981 0.10379
600.45404 0.10290
599.16827 0.10112
597.88250 0.09872
596.59674 0.09601
595.31097 0.09334
594.02520 0.09093
592.73943 0.08889
591.45366 0.08725
590.16789 0.08602
588.88212 0.08524
587.59635 0.08498
586.31059 0.08532
585.02482 0.08633
583.73905 0.08798
582.45328 0.09013
581.16751 0.09257
579.88174 0.09511
578.59597 0.09762
577.31020 0.10007
576.02443 0.10242
574.73867 0.10465
573.45290 0.10681
572.16713 0.10905
570.88136 0.11155
569.59559 0.11444
568.30982 0.11773
567.02405 0.12132
565.73828 0.12496
564.45251 0.12832
563.16675 0.13101
561.88098 0.13265
560.59521 0.13297
559.30944 0.13193
558.02367 0.12958
556.73790 0.12605
555.45213 0.12153
554.16636 0.11632
552.88060 0.11080
551.59483 0.10536
550.30906 0.10021
549.02329 0.09538
547.73752 0.09088
546.45175 0.08681
545.16598 0.08324
543.88021 0.08015
542.59444 0.07745
541.30868 0.07505
540.02291 0.07288
538.73714 0.07079
537.45137 0.06868
536.16560 0.06655
534.87983 0.06457
533.59406 0.06290
532.30829 0.06155
531.02253 0.06036
529.73676 0.05914
528.45099 0.05780
527.16522 0.05638
525.87945 0.05504
524.59368 0.05390
523.30791 0.05296
522.02214 0.05208
520.73637 0.05108
519.45061 0.04991
518.16484 0.04870
516.87907 0.04761
515.59330 0.04673
514.30753 0.04604
513.02176 0.04546
511.73599 0.04490
510.45022 0.04432
509.16446 0.04371
507.87869 0.04307
506.59292 0.04245
505.30715 0.04187
504.02138 0.04135
502.73561 0.04087
501.44984 0.04041
500.16407 0.03997
498.87830 0.03953
497.59254 0.03908
496.30677 0.03858
495.02100 0.03805
493.73523 0.03755
492.44946 0.03718
491.16369 0.03696
489.87792 0.03681
488.59215 0.03661
487.30639 0.03633
486.02062 0.03603
484.73485 0.03582
483.44908 0.03572
482.16331 0.03572
480.87754 0.03578
479.59177 0.03587
478.30600 0.03598
477.02023 0.03609
475.73447 0.03620
474.44870 0.03633
473.16293 0.03647
471.87716 0.03657
470.59139 0.03657
469.30562 0.03646
468.01985 0.03628
466.73408 0.03606
465.44832 0.03581
464.16255 0.03547
462.87678 0.03500
461.59101 0.03443
460.30524 0.03387
459.01947 0.03344
457.73370 0.03318
456.44793 0.03300
455.16216 0.03278
453.87640 0.03247
452.59063 0.03214
451.30486 0.03188
450.01909 0.03167
448.73332 0.03139
447.44755 0.03103
446.16178 0.03066
444.87601 0.03037
443.59025 0.03018
442.30448 0.03005
441.01871 0.02994
439.73294 0.02987
438.44717 0.02981
437.16140 0.02971
435.87563 0.02957
434.58986 0.02942
433.30409 0.02928
432.01833 0.02916
430.73256 0.02898
429.44679 0.02872
428.16102 0.02845
426.87525 0.02823
425.58948 0.02809
424.30371 0.02797
423.01794 0.02785
421.73218 0.02776
420.44641 0.02771
419.16064 0.02763
417.87487 0.02747
416.58910 0.02725
415.30333 0.02707
414.01756 0.02696
412.73179 0.02692
411.44602 0.02693
410.16026 0.02695
408.87449 0.02696
407.58872 0.02697
406.30295 0.02697
405.01718 0.02700
403.73141 0.02705
402.44564 0.02710
401.15987 0.02713
399.87411 0.02714
