3997.45528	0.05836
3996.16951	0.05834
3994.88374	0.05812
3993.59798	0.05798
3992.31221	0.05812
3991.02644	0.05822
3989.74067	0.05764
3988.45490	0.05612
3987.16913	0.05405
3985.88336	0.05214
3984.59759	0.05083
3983.31183	0.05014
3982.02606	0.05015
3980.74029	0.05110
3979.45452	0.05295
3978.16875	0.05491
3976.88298	0.05591
3975.59721	0.05556
3974.31144	0.05438
3973.02567	0.05333
3971.73991	0.05304
3970.45414	0.05351
3969.16837	0.05434
3967.88260	0.05513
3966.59683	0.05567
3965.31106	0.05591
3964.02529	0.05591
3962.73952	0.05575
3961.45376	0.05539
3960.16799	0.05482
3958.88222	0.05416
3957.59645	0.05371
3956.31068	0.05364
3955.02491	0.05383
3953.73914	0.05414
3952.45337	0.05461
3951.16760	0.05533
3949.88184	0.05603
3948.59607	0.05624
3947.31030	0.05576
3946.02453	0.05501
3944.73876	0.05462
3943.45299	0.05488
3942.16722	0.05557
3940.88145	0.05617
3939.59569	0.05628
3938.30992	0.05574
3937.02415	0.05469
3935.73838	0.05357
3934.45261	0.05285
3933.16684	0.05279
3931.88107	0.05325
3930.59530	0.05390
3929.30953	0.05456
3928.02377	0.05528
3926.73800	0.05610
3925.45223	0.05670
3924.16646	0.05660
3922.88069	0.05578
3921.59492	0.05487
3920.30915	0.05450
3919.02338	0.05472
3917.73762	0.05509
3916.45185	0.05526
3915.16608	0.05513
3913.88031	0.05468
3912.59454	0.05403
3911.30877	0.05355
3910.02300	0.05354
3908.73723	0.05381
3907.45146	0.05385
3906.16570	0.05344
3904.87993	0.05278
3903.59416	0.05221
3902.30839	0.05199
3901.02262	0.05213
3899.73685	0.05243
3898.45108	0.05263
3897.16531	0.05265
3895.87955	0.05260
3894.59378	0.05255
3893.30801	0.05232
3892.02224	0.05157
3890.73647	0.05028
3889.45070	0.04907
3888.16493	0.04888
3886.87916	0.04997
3885.59339	0.05155
3884.30763	0.05255
3883.02186	0.05260
3881.73609	0.05205
3880.45032	0.05140
3879.16455	0.05090
3877.87878	0.05047
3876.59301	0.05001
3875.30724	0.04951
3874.02148	0.04922
3872.73571	0.04956
3871.44994	0.05068
3870.16417	0.05212
3868.87840	0.05317
3867.59263	0.05339
3866.30686	0.05296
3865.02109	0.05238
3863.73532	0.05211
3862.44956	0.05224
3861.16379	0.05237
3859.87802	0.05206
3858.59225	0.05114
3857.30648	0.04988
3856.02071	0.04891
3854.73494	0.04883
3853.44917	0.04959
3852.16341	0.05049
3850.87764	0.05083
3849.59187	0.05050
3848.30610	0.04998
3847.02033	0.04984
3845.73456	0.05016
3844.44879	0.05052
3843.16302	0.05045
3841.87725	0.04996
3840.59149	0.04960
3839.30572	0.04982
3838.01995	0.05043
3836.73418	0.05094
3835.44841	0.05117
3834.16264	0.05125
3832.87687	0.05112
3831.59110	0.05052
3830.30534	0.04946
3829.01957	0.04844
3827.73380	0.04806
3826.44803	0.04853
3825.16226	0.04964
3823.87649	0.05094
3822.59072	0.05183
3821.30495	0.05173
3820.01918	0.05065
3818.73342	0.04941
3817.44765	0.04892
3816.16188	0.04934
3814.87611	0.05014
3813.59034	0.05071
3812.30457	0.05084
3811.01880	0.05073
3809.73303	0.05095
3808.44726	0.05182
3807.16150	0.05296
3805.87573	0.05355
3804.58996	0.05324
3803.30419	0.05236
3802.01842	0.05136
3800.73265	0.05037
3799.44688	0.04942
3798.16111	0.04862
3796.87535	0.04803
3795.58958	0.04759
3794.30381	0.04738
3793.01804	0.04756
3791.73227	0.04808
3790.44650	0.04846
3789.16073	0.04819
3787.87496	0.04730
3786.58919	0.04653
3785.30343	0.04665
3784.01766	0.04758
3782.73189	0.04846
3781.44612	0.04855
3780.16035	0.04794
3778.87458	0.04727
3777.58881	0.04693
3776.30304	0.04681
3775.01728	0.04679
3773.73151	0.04708
3772.44574	0.04780
3771.15997	0.04861
3769.87420	0.04897
3768.58843	0.04886
3767.30266	0.04869
3766.01689	0.04875
3764.73112	0.04900
3763.44536	0.04938
3762.15959	0.04995
3760.87382	0.05056
3759.58805	0.05076
3758.30228	0.05022
3757.01651	0.04917
3755.73074	0.04820
3754.44497	0.04762
3753.15921	0.04725
3751.87344	0.04675
3750.58767	0.04600
3749.30190	0.04490
3748.01613	0.04361
3746.73036	0.04282
3745.44459	0.04320
3744.15882	0.04441
3742.87305	0.04559
3741.58729	0.04636
3740.30152	0.04707
3739.01575	0.04816
3737.72998	0.04954
3736.44421	0.05054
3735.15844	0.05061
3733.87267	0.04994
3732.58690	0.04912
3731.30114	0.04849
3730.01537	0.04801
3728.72960	0.04749
3727.44383	0.04683
3726.15806	0.04602
3724.87229	0.04517
3723.58652	0.04456
3722.30075	0.04450
3721.01498	0.04519
3719.72922	0.04637
3718.44345	0.04741
3717.15768	0.04782
3715.87191	0.04757
3714.58614	0.04699
3713.30037	0.04641
3712.01460	0.04610
3710.72883	0.04621
3709.44307	0.04662
3708.15730	0.04687
3706.87153	0.04666
3705.58576	0.04603
3704.29999	0.04527
3703.01422	0.04459
3701.72845	0.04412
3700.44268	0.04384
3699.15691	0.04362
3697.87115	0.04327
3696.58538	0.04285
3695.29961	0.04275
3694.01384	0.04337
3692.72807	0.04462
3691.44230	0.04599
3690.15653	0.04692
3688.87076	0.04713
3687.58500	0.04664
3686.29923	0.04586
3685.01346	0.04530
3683.72769	0.04515
3682.44192	0.04518
3681.15615	0.04503
3679.87038	0.04460
3678.58461	0.04427
3677.29884	0.04457
3676.01308	0.04546
3674.72731	0.04640
3673.44154	0.04696
3672.15577	0.04705
3670.87000	0.04668
3669.58423	0.04593
3668.29846	0.04513
3667.01269	0.04455
3665.72693	0.04416
3664.44116	0.04385
3663.15539	0.04367
3661.86962	0.04382
3660.58385	0.04431
3659.29808	0.04488
3658.01231	0.04524
3656.72654	0.04533
3655.44077	0.04528
3654.15501	0.04526
3652.86924	0.04529
3651.58347	0.04528
3650.29770	0.04537
3649.01193	0.04588
3647.72616	0.04689
3646.44039	0.04799
3645.15462	0.04867
3643.86886	0.04879
3642.58309	0.04865
3641.29732	0.04862
3640.01155	0.04876
3638.72578	0.04876
3637.44001	0.04821
3636.15424	0.04715
3634.86847	0.04608
3633.58270	0.04558
3632.29694	0.04591
3631.01117	0.04689
3629.72540	0.04796
3628.43963	0.04849
3627.15386	0.04843
3625.86809	0.04834
3624.58232	0.04872
3623.29655	0.04956
3622.01079	0.05045
3620.72502	0.05104
3619.43925	0.05117
3618.15348	0.05073
3616.86771	0.04978
3615.58194	0.04866
3614.29617	0.04792
3613.01040	0.04798
3611.72463	0.04885
3610.43887	0.05025
3609.15310	0.05175
3607.86733	0.05290
3606.58156	0.05332
3605.29579	0.05290
3604.01002	0.05188
3602.72425	0.05078
3601.43848	0.05004
3600.15272	0.04977
3598.86695	0.04988
3597.58118	0.05011
3596.29541	0.05027
3595.00964	0.05043
3593.72387	0.05087
3592.43810	0.05181
3591.15233	0.05298
3589.86656	0.05374
3588.58080	0.05369
3587.29503	0.05302
3586.00926	0.05233
3584.72349	0.05199
3583.43772	0.05204
3582.15195	0.05237
3580.86618	0.05302
3579.58041	0.05402
3578.29464	0.05517
3577.00888	0.05601
3575.72311	0.05611
3574.43734	0.05552
3573.15157	0.05479
3571.86580	0.05456
3570.58003	0.05492
3569.29426	0.05543
3568.00849	0.05566
3566.72273	0.05555
3565.43696	0.05526
3564.15119	0.05493
3562.86542	0.05469
3561.57965	0.05456
3560.29388	0.05449
3559.00811	0.05446
3557.72234	0.05462
3556.43657	0.05506
3555.15081	0.05554
3553.86504	0.05562
3552.57927	0.05514
3551.29350	0.05439
3550.00773	0.05387
3548.72196	0.05392
3547.43619	0.05459
3546.15042	0.05568
3544.86466	0.05687
3543.57889	0.05784
3542.29312	0.05841
3541.00735	0.05866
3539.72158	0.05888
3538.43581	0.05927
3537.15004	0.05974
3535.86427	0.06002
3534.57850	0.05997
3533.29274	0.05975
3532.00697	0.05964
3530.72120	0.05975
3529.43543	0.06000
3528.14966	0.06020
3526.86389	0.06021
3525.57812	0.06001
3524.29235	0.05965
3523.00659	0.05923
3521.72082	0.05886
3520.43505	0.05865
3519.14928	0.05865
3517.86351	0.05881
3516.57774	0.05897
3515.29197	0.05902
3514.00620	0.05894
3512.72043	0.05870
3511.43467	0.05833
3510.14890	0.05793
3508.86313	0.05772
3507.57736	0.05775
3506.29159	0.05788
3505.00582	0.05806
3503.72005	0.05843
3502.43428	0.05906
3501.14852	0.05973
3499.86275	0.06005
3498.57698	0.05995
3497.29121	0.05966
3496.00544	0.05944
3494.71967	0.05935
3493.43390	0.05924
3492.14813	0.05903
3490.86236	0.05892
3489.57660	0.05923
3488.29083	0.06002
3487.00506	0.06089
3485.71929	0.06139
3484.43352	0.06148
3483.14775	0.06150
3481.86198	0.06169
3480.57621	0.06194
3479.29045	0.06208
3478.00468	0.06214
3476.71891	0.06227
3475.43314	0.06242
3474.14737	0.06241
3472.86160	0.06218
3471.57583	0.06178
3470.29006	0.06136
3469.00429	0.06107
3467.71853	0.06110
3466.43276	0.06150
3465.14699	0.06209
3463.86122	0.06266
3462.57545	0.06311
3461.28968	0.06333
3460.00391	0.06319
3458.71814	0.06266
3457.43238	0.06209
3456.14661	0.06198
3454.86084	0.06258
3453.57507	0.06362
3452.28930	0.06458
3451.00353	0.06506
3449.71776	0.06498
3448.43199	0.06452
3447.14622	0.06398
3445.86046	0.06359
3444.57469	0.06338
3443.28892	0.06329
3442.00315	0.06322
3440.71738	0.06312
3439.43161	0.06305
3438.14584	0.06312
3436.86007	0.06335
3435.57431	0.06367
3434.28854	0.06401
3433.00277	0.06432
3431.71700	0.06448
3430.43123	0.06439
3429.14546	0.06403
3427.85969	0.06362
3426.57392	0.06345
3425.28815	0.06374
3424.00239	0.06444
3422.71662	0.06520
3421.43085	0.06562
3420.14508	0.06557
3418.85931	0.06531
3417.57354	0.06522
3416.28777	0.06540
3415.00200	0.06564
3413.71624	0.06568
3412.43047	0.06543
3411.14470	0.06495
3409.85893	0.06444
3408.57316	0.06411
3407.28739	0.06404
3406.00162	0.06418
3404.71585	0.06440
3403.43008	0.06462
3402.14432	0.06480
3400.85855	0.06484
3399.57278	0.06469
3398.28701	0.06456
3397.00124	0.06461
3395.71547	0.06479
3394.42970	0.06491
3393.14393	0.06485
3391.85817	0.06465
3390.57240	0.06437
3389.28663	0.06409
3388.00086	0.06393
3386.71509	0.06393
3385.42932	0.06402
3384.14355	0.06410
3382.85778	0.06420
3381.57201	0.06437
3380.28625	0.06458
3379.00048	0.06472
3377.71471	0.06480
3376.42894	0.06493
3375.14317	0.06503
3373.85740	0.06485
3372.57163	0.06419
3371.28586	0.06328
3370.00010	0.06262
3368.71433	0.06256
3367.42856	0.06299
3366.14279	0.06351
3364.85702	0.06389
3363.57125	0.06418
3362.28548	0.06454
3360.99971	0.06495
3359.71394	0.06529
3358.42818	0.06540
3357.14241	0.06526
3355.85664	0.06498
3354.57087	0.06473
3353.28510	0.06460
3351.99933	0.06454
3350.71356	0.06444
3349.42779	0.06424
3348.14202	0.06401
3346.85626	0.06382
3345.57049	0.06366
3344.28472	0.06349
3342.99895	0.06342
3341.71318	0.06365
3340.42741	0.06428
3339.14164	0.06510
3337.85587	0.06575
3336.57011	0.06590
3335.28434	0.06542
3333.99857	0.06441
3332.71280	0.06318
3331.42703	0.06217
3330.14126	0.06179
3328.85549	0.06214
3327.56972	0.06282
3326.28395	0.06329
3324.99819	0.06324
3323.71242	0.06278
3322.42665	0.06217
3321.14088	0.06168
3319.85511	0.06138
3318.56934	0.06120
3317.28357	0.06102
3315.99780	0.06084
3314.71204	0.06087
3313.42627	0.06126
3312.14050	0.06189
3310.85473	0.06244
3309.56896	0.06276
3308.28319	0.06289
3306.99742	0.06297
3305.71165	0.06303
3304.42588	0.06303
3303.14012	0.06299
3301.85435	0.06314
3300.56858	0.06363
3299.28281	0.06432
3297.99704	0.06475
3296.71127	0.06457
3295.42550	0.06380
3294.13973	0.06278
3292.85397	0.06185
3291.56820	0.06127
3290.28243	0.06123
3288.99666	0.06169
3287.71089	0.06233
3286.42512	0.06272
3285.13935	0.06267
3283.85358	0.06226
3282.56781	0.06170
3281.28205	0.06118
3279.99628	0.06084
3278.71051	0.06079
3277.42474	0.06099
3276.13897	0.06134
3274.85320	0.06176
3273.56743	0.06223
3272.28166	0.06269
3270.99590	0.06302
3269.71013	0.06311
3268.42436	0.06296
3267.13859	0.06269
3265.85282	0.06248
3264.56705	0.06240
3263.28128	0.06232
3261.99551	0.06205
3260.70974	0.06158
3259.42398	0.06113
3258.13821	0.06095
3256.85244	0.06108
3255.56667	0.06132
3254.28090	0.06136
3252.99513	0.06105
3251.70936	0.06043
3250.42359	0.05971
3249.13783	0.05913
3247.85206	0.05882
3246.56629	0.05881
3245.28052	0.05903
3243.99475	0.05944
3242.70898	0.05992
3241.42321	0.06034
3240.13744	0.06048
3238.85167	0.06020
3237.56591	0.05954
3236.28014	0.05875
3234.99437	0.05823
3233.70860	0.05830
3232.42283	0.05900
3231.13706	0.05997
3229.85129	0.06066
3228.56552	0.06077
3227.27976	0.06046
3225.99399	0.06010
3224.70822	0.05993
3223.42245	0.06000
3222.13668	0.06024
3220.85091	0.06046
3219.56514	0.06032
3218.27937	0.05969
3216.99360	0.05884
3215.70784	0.05825
3214.42207	0.05813
3213.13630	0.05831
3211.85053	0.05846
3210.56476	0.05841
3209.27899	0.05815
3207.99322	0.05784
3206.70745	0.05765
3205.42169	0.05767
3204.13592	0.05781
3202.85015	0.05792
3201.56438	0.05796
3200.27861	0.05802
3198.99284	0.05825
3197.70707	0.05869
3196.42130	0.05912
3195.13553	0.05925
3193.84977	0.05893
3192.56400	0.05824
3191.27823	0.05740
3189.99246	0.05658
3188.70669	0.05589
3187.42092	0.05542
3186.13515	0.05525
3184.84938	0.05543
3183.56362	0.05584
3182.27785	0.05619
3180.99208	0.05622
3179.70631	0.05597
3178.42054	0.05573
3177.13477	0.05573
3175.84900	0.05599
3174.56323	0.05633
3173.27746	0.05657
3171.99170	0.05656
3170.70593	0.05631
3169.42016	0.05595
3168.13439	0.05565
3166.84862	0.05547
3165.56285	0.05536
3164.27708	0.05529
3162.99131	0.05522
3161.70555	0.05514
3160.41978	0.05505
3159.13401	0.05505
3157.84824	0.05520
3156.56247	0.05537
3155.27670	0.05536
3153.99093	0.05519
3152.70516	0.05508
3151.41939	0.05510
3150.13363	0.05507
3148.84786	0.05480
3147.56209	0.05439
3146.27632	0.05410
3144.99055	0.05403
3143.70478	0.05413
3142.41901	0.05424
3141.13324	0.05431
3139.84748	0.05427
3138.56171	0.05413
3137.27594	0.05396
3135.99017	0.05391
3134.70440	0.05404
3133.41863	0.05419
3132.13286	0.05415
3130.84709	0.05386
3129.56132	0.05342
3128.27556	0.05292
3126.98979	0.05240
3125.70402	0.05201
3124.41825	0.05197
3123.13248	0.05233
3121.84671	0.05279
3120.56094	0.05290
3119.27517	0.05251
3117.98940	0.05188
3116.70364	0.05136
3115.41787	0.05117
3114.13210	0.05131
3112.84633	0.05176
3111.56056	0.05235
3110.27479	0.05275
3108.98902	0.05268
3107.70325	0.05217
3106.41749	0.05157
3105.13172	0.05124
3103.84595	0.05128
3102.56018	0.05155
3101.27441	0.05180
3099.98864	0.05180
3098.70287	0.05152
3097.41710	0.05115
3096.13133	0.05095
3094.84557	0.05100
3093.55980	0.05107
3092.27403	0.05091
3090.98826	0.05064
3089.70249	0.05058
3088.41672	0.05087
3087.13095	0.05132
3085.84518	0.05154
3084.55942	0.05138
3083.27365	0.05096
3081.98788	0.05053
3080.70211	0.05025
3079.41634	0.05017
3078.13057	0.05028
3076.84480	0.05048
3075.55903	0.05061
3074.27326	0.05046
3072.98750	0.05007
3071.70173	0.04969
3070.41596	0.04962
3069.13019	0.04991
3067.84442	0.05029
3066.55865	0.05039
3065.27288	0.05007
3063.98711	0.04948
3062.70135	0.04903
3061.41558	0.04899
3060.12981	0.04934
3058.84404	0.04986
3057.55827	0.05028
3056.27250	0.05042
3054.98673	0.05027
3053.70096	0.04993
3052.41519	0.04951
3051.12943	0.04907
3049.84366	0.04867
3048.55789	0.04843
3047.27212	0.04846
3045.98635	0.04873
3044.70058	0.04905
3043.41481	0.04917
3042.12904	0.04905
3040.84328	0.04886
3039.55751	0.04887
3038.27174	0.04908
3036.98597	0.04926
3035.70020	0.04916
3034.41443	0.04879
3033.12866	0.04831
3031.84289	0.04794
3030.55712	0.04778
3029.27136	0.04785
3027.98559	0.04809
3026.69982	0.04836
3025.41405	0.04855
3024.12828	0.04853
3022.84251	0.04830
3021.55674	0.04795
3020.27097	0.04758
3018.98521	0.04723
3017.69944	0.04695
3016.41367	0.04684
3015.12790	0.04694
3013.84213	0.04718
3012.55636	0.04740
3011.27059	0.04746
3009.98482	0.04730
3008.69905	0.04698
3007.41329	0.04666
3006.12752	0.04654
3004.84175	0.04663
3003.55598	0.04685
3002.27021	0.04711
3000.98444	0.04735
2999.69867	0.04749
2998.41290	0.04752
2997.12714	0.04743
2995.84137	0.04725
2994.55560	0.04704
2993.26983	0.04681
2991.98406	0.04654
2990.69829	0.04627
2989.41252	0.04615
2988.12675	0.04624
2986.84098	0.04644
2985.55522	0.04655
2984.26945	0.04653
2982.98368	0.04648
2981.69791	0.04650
2980.41214	0.04665
2979.12637	0.04694
2977.84060	0.04738
2976.55483	0.04793
2975.26907	0.04844
2973.98330	0.04875
2972.69753	0.04887
2971.41176	0.04898
2970.12599	0.04930
2968.84022	0.04979
2967.55445	0.05023
2966.26868	0.05045
2964.98291	0.05058
2963.69715	0.05091
2962.41138	0.05150
2961.12561	0.05215
2959.83984	0.05259
2958.55407	0.05270
2957.26830	0.05268
2955.98253	0.05281
2954.69676	0.05322
2953.41100	0.05374
2952.12523	0.05409
2950.83946	0.05413
2949.55369	0.05399
2948.26792	0.05391
2946.98215	0.05391
2945.69638	0.05384
2944.41061	0.05359
2943.12484	0.05320
2941.83908	0.05285
2940.55331	0.05271
2939.26754	0.05280
2937.98177	0.05305
2936.69600	0.05340
2935.41023	0.05384
2934.12446	0.05434
2932.83869	0.05475
2931.55293	0.05496
2930.26716	0.05507
2928.98139	0.05528
2927.69562	0.05567
2926.40985	0.05605
2925.12408	0.05622
2923.83831	0.05616
2922.55254	0.05597
2921.26677	0.05572
2919.98101	0.05543
2918.69524	0.05510
2917.40947	0.05470
2916.12370	0.05423
2914.83793	0.05380
2913.55216	0.05353
2912.26639	0.05343
2910.98062	0.05329
2909.69486	0.05291
2908.40909	0.05223
2907.12332	0.05141
2905.83755	0.05071
2904.55178	0.05027
2903.26601	0.05006
2901.98024	0.04991
2900.69447	0.04967
2899.40870	0.04934
2898.12294	0.04902
2896.83717	0.04877
2895.55140	0.04856
2894.26563	0.04823
2892.97986	0.04768
2891.69409	0.04701
2890.40832	0.04651
2889.12255	0.04642
2887.83678	0.04666
2886.55102	0.04698
2885.26525	0.04716
2883.97948	0.04718
2882.69371	0.04709
2881.40794	0.04699
2880.12217	0.04699
2878.83640	0.04716
2877.55063	0.04752
2876.26487	0.04798
2874.97910	0.04837
2873.69333	0.04859
2872.40756	0.04864
2871.12179	0.04860
2869.83602	0.04856
2868.55025	0.04849
2867.26448	0.04835
2865.97871	0.04806
2864.69295	0.04766
2863.40718	0.04730
2862.12141	0.04715
2860.83564	0.04726
2859.54987	0.04752
2858.26410	0.04773
2856.97833	0.04779
2855.69256	0.04772
2854.40680	0.04756
2853.12103	0.04734
2851.83526	0.04705
2850.54949	0.04670
2849.26372	0.04631
2847.97795	0.04591
2846.69218	0.04546
2845.40641	0.04496
2844.12064	0.04446
2842.83488	0.04406
2841.54911	0.04375
2840.26334	0.04338
2838.97757	0.04278
2837.69180	0.04200
2836.40603	0.04130
2835.12026	0.04092
2833.83449	0.04096
2832.54873	0.04122
2831.26296	0.04142
2829.97719	0.04138
2828.69142	0.04113
2827.40565	0.04086
2826.11988	0.04066
2824.83411	0.04050
2823.54834	0.04033
2822.26257	0.04018
2820.97681	0.04007
2819.69104	0.04000
2818.40527	0.03991
2817.11950	0.03975
2815.83373	0.03951
2814.54796	0.03915
2813.26219	0.03869
2811.97642	0.03831
2810.69066	0.03826
2809.40489	0.03862
2808.11912	0.03916
2806.83335	0.03946
2805.54758	0.03935
2804.26181	0.03894
2802.97604	0.03846
2801.69027	0.03813
2800.40450	0.03807
2799.11874	0.03828
2797.83297	0.03864
2796.54720	0.03895
2795.26143	0.03917
2793.97566	0.03931
2792.68989	0.03934
2791.40412	0.03918
2790.11835	0.03880
2788.83259	0.03833
2787.54682	0.03795
2786.26105	0.03778
2784.97528	0.03780
2783.68951	0.03784
2782.40374	0.03775
2781.11797	0.03749
2779.83220	0.03723
2778.54643	0.03715
2777.26067	0.03729
2775.97490	0.03748
2774.68913	0.03756
2773.40336	0.03753
2772.11759	0.03750
2770.83182	0.03753
2769.54605	0.03754
2768.26028	0.03744
2766.97452	0.03717
2765.68875	0.03683
2764.40298	0.03655
2763.11721	0.03644
2761.83144	0.03647
2760.54567	0.03652
2759.25990	0.03646
2757.97413	0.03629
2756.68836	0.03608
2755.40260	0.03591
2754.11683	0.03581
2752.83106	0.03583
2751.54529	0.03594
2750.25952	0.03609
2748.97375	0.03617
2747.68798	0.03610
2746.40221	0.03586
2745.11645	0.03557
2743.83068	0.03540
2742.54491	0.03545
2741.25914	0.03568
2739.97337	0.03594
2738.68760	0.03607
2737.40183	0.03604
2736.11606	0.03585
2734.83029	0.03556
2733.54453	0.03533
2732.25876	0.03531
2730.97299	0.03549
2729.68722	0.03570
2728.40145	0.03576
2727.11568	0.03565
2725.82991	0.03544
2724.54414	0.03524
2723.25838	0.03507
2721.97261	0.03492
2720.68684	0.03477
2719.40107	0.03468
2718.11530	0.03475
2716.82953	0.03500
2715.54376	0.03528
2714.25799	0.03537
2712.97222	0.03518
2711.68646	0.03479
2710.40069	0.03442
2709.11492	0.03424
2707.82915	0.03431
2706.54338	0.03454
2705.25761	0.03477
2703.97184	0.03487
2702.68607	0.03475
2701.40031	0.03447
2700.11454	0.03414
2698.82877	0.03384
2697.54300	0.03363
2696.25723	0.03351
2694.97146	0.03347
2693.68569	0.03352
2692.39992	0.03361
2691.11415	0.03367
2689.82839	0.03369
2688.54262	0.03372
2687.25685	0.03380
2685.97108	0.03385
2684.68531	0.03377
2683.39954	0.03355
2682.11377	0.03329
2680.82800	0.03316
2679.54224	0.03323
2678.25647	0.03342
2676.97070	0.03357
2675.68493	0.03358
2674.39916	0.03349
2673.11339	0.03340
2671.82762	0.03336
2670.54185	0.03343
2669.25608	0.03360
2667.97032	0.03380
2666.68455	0.03385
2665.39878	0.03366
2664.11301	0.03328
2662.82724	0.03286
2661.54147	0.03258
2660.25570	0.03251
2658.96993	0.03257
2657.68417	0.03260
2656.39840	0.03247
2655.11263	0.03222
2653.82686	0.03200
2652.54109	0.03195
2651.25532	0.03206
2649.96955	0.03226
2648.68378	0.03240
2647.39801	0.03234
2646.11225	0.03203
2644.82648	0.03155
2643.54071	0.03109
2642.25494	0.03088
2640.96917	0.03090
2639.68340	0.03092
2638.39763	0.03071
2637.11186	0.03031
2635.82609	0.02993
2634.54033	0.02972
2633.25456	0.02967
2631.96879	0.02974
2630.68302	0.02988
2629.39725	0.02998
2628.11148	0.02988
2626.82571	0.02955
2625.53994	0.02914
2624.25418	0.02880
2622.96841	0.02859
2621.68264	0.02848
2620.39687	0.02843
2619.11110	0.02843
2617.82533	0.02846
2616.53956	0.02854
2615.25379	0.02870
2613.96802	0.02887
2612.68226	0.02893
2611.39649	0.02877
2610.11072	0.02836
2608.82495	0.02779
2607.53918	0.02730
2606.25341	0.02710
2604.96764	0.02730
2603.68187	0.02773
2602.39611	0.02810
2601.11034	0.02817
2599.82457	0.02790
2598.53880	0.02749
2597.25303	0.02720
2595.96726	0.02709
2594.68149	0.02701
2593.39572	0.02685
2592.10995	0.02675
2590.82419	0.02698
2589.53842	0.02751
2588.25265	0.02792
2586.96688	0.02780
2585.68111	0.02724
2584.39534	0.02674
2583.10957	0.02663
2581.82380	0.02683
2580.53804	0.02707
2579.25227	0.02725
2577.96650	0.02740
2576.68073	0.02753
2575.39496	0.02762
2574.10919	0.02762
2572.82342	0.02748
2571.53765	0.02718
2570.25188	0.02683
2568.96612	0.02663
2567.68035	0.02671
2566.39458	0.02700
2565.10881	0.02734
2563.82304	0.02749
2562.53727	0.02733
2561.25150	0.02691
2559.96573	0.02650
2558.67997	0.02629
2557.39420	0.02620
2556.10843	0.02607
2554.82266	0.02597
2553.53689	0.02611
2552.25112	0.02657
2550.96535	0.02718
2549.67958	0.02762
2548.39381	0.02766
2547.10805	0.02728
2545.82228	0.02676
2544.53651	0.02648
2543.25074	0.02655
2541.96497	0.02674
2540.67920	0.02671
2539.39343	0.02641
2538.10766	0.02609
2536.82190	0.02604
2535.53613	0.02628
2534.25036	0.02655
2532.96459	0.02658
2531.67882	0.02630
2530.39305	0.02589
2529.10728	0.02557
2527.82151	0.02543
2526.53574	0.02547
2525.24998	0.02557
2523.96421	0.02556
2522.67844	0.02538
2521.39267	0.02519
2520.10690	0.02516
2518.82113	0.02528
2517.53536	0.02541
2516.24959	0.02544
2514.96383	0.02541
2513.67806	0.02542
2512.39229	0.02547
2511.10652	0.02540
2509.82075	0.02512
2508.53498	0.02476
2507.24921	0.02457
2505.96344	0.02464
2504.67767	0.02481
2503.39191	0.02485
2502.10614	0.02460
2500.82037	0.02415
2499.53460	0.02373
2498.24883	0.02367
2496.96306	0.02402
2495.67729	0.02455
2494.39152	0.02492
2493.10576	0.02498
2491.81999	0.02480
2490.53422	0.02455
2489.24845	0.02434
2487.96268	0.02424
2486.67691	0.02426
2485.39114	0.02439
2484.10537	0.02456
2482.81960	0.02478
2481.53384	0.02507
2480.24807	0.02531
2478.96230	0.02536
2477.67653	0.02515
2476.39076	0.02481
2475.10499	0.02452
2473.81922	0.02437
2472.53345	0.02440
2471.24769	0.02451
2469.96192	0.02456
2468.67615	0.02455
2467.39038	0.02463
2466.10461	0.02481
2464.81884	0.02490
2463.53307	0.02475
2462.24730	0.02454
2460.96153	0.02454
2459.67577	0.02481
2458.39000	0.02514
2457.10423	0.02529
2455.81846	0.02514
2454.53269	0.02477
2453.24692	0.02437
2451.96115	0.02413
2450.67538	0.02400
2449.38962	0.02382
2448.10385	0.02357
2446.81808	0.02337
2445.53231	0.02325
2444.24654	0.02303
2442.96077	0.02264
2441.67500	0.02237
2440.38923	0.02260
2439.10346	0.02327
2437.81770	0.02393
2436.53193	0.02421
2435.24616	0.02412
2433.96039	0.02396
2432.67462	0.02387
2431.38885	0.02377
2430.10308	0.02352
2428.81731	0.02317
2427.53155	0.02289
2426.24578	0.02278
2424.96001	0.02278
2423.67424	0.02276
2422.38847	0.02274
2421.10270	0.02289
2419.81693	0.02327
2418.53116	0.02374
2417.24539	0.02408
2415.95963	0.02421
2414.67386	0.02412
2413.38809	0.02379
2412.10232	0.02329
2410.81655	0.02282
2409.53078	0.02254
2408.24501	0.02248
2406.95924	0.02251
2405.67347	0.02253
2404.38771	0.02250
2403.10194	0.02244
2401.81617	0.02244
2400.53040	0.02257
2399.24463	0.02292
2397.95886	0.02316
2396.67309	0.02330
2395.38732	0.02343
2394.10156	0.02355
2392.81579	0.02366
2391.53002	0.02369
2390.24425	0.02361
2388.95848	0.02343
2387.67271	0.02322
2386.38694	0.02307
2385.10117	0.02304
2383.81540	0.02306
2382.52964	0.02299
2381.24387	0.02272
2379.95810	0.02225
2378.67233	0.02172
2377.38656	0.02121
2376.10079	0.02071
2374.81502	0.02020
2373.52925	0.01977
2372.24349	0.01957
2370.95772	0.01964
2369.67195	0.01978
2368.38618	0.01970
2367.10041	0.01932
2365.81464	0.01879
2364.52887	0.01841
2363.24310	0.01832
2361.95733	0.01843
2360.67157	0.01857
2359.38580	0.01872
2358.10003	0.01898
2356.81426	0.01945
2355.52849	0.02008
2354.24272	0.02066
2352.95695	0.02101
2351.67118	0.02103
2350.38542	0.02070
2349.09965	0.02016
2347.81388	0.01960
2346.52811	0.01923
2345.24234	0.01912
2343.95657	0.01920
2342.67080	0.01935
2341.38503	0.01951
2340.09926	0.01971
2338.81350	0.01991
2337.52773	0.02006
2336.24196	0.02014
2334.95619	0.02015
2333.67042	0.02013
2332.38465	0.02004
2331.09888	0.01978
2329.81311	0.01932
2328.52735	0.01876
2327.24158	0.01835
2325.95581	0.01826
2324.67004	0.01849
2323.38427	0.01889
2322.09850	0.01939
2320.81273	0.01994
2319.52696	0.02047
2318.24119	0.02087
2316.95543	0.02108
2315.66966	0.02117
2314.38389	0.02128
2313.09812	0.02145
2311.81235	0.02164
2310.52658	0.02178
2309.24081	0.02179
2307.95504	0.02160
2306.66928	0.02125
2305.38351	0.02096
2304.09774	0.02092
2302.81197	0.02115
2301.52620	0.02139
2300.24043	0.02136
2298.95466	0.02101
2297.66889	0.02045
2296.38312	0.01987
2295.09736	0.01939
2293.81159	0.01904
2292.52582	0.01882
2291.24005	0.01869
2289.95428	0.01861
2288.66851	0.01861
2287.38274	0.01875
2286.09697	0.01902
2284.81121	0.01932
2283.52544	0.01949
2282.23967	0.01948
2280.95390	0.01943
2279.66813	0.01954
2278.38236	0.01985
2277.09659	0.02013
2275.81082	0.02015
2274.52505	0.01985
2273.23929	0.01939
2271.95352	0.01891
2270.66775	0.01851
2269.38198	0.01824
2268.09621	0.01808
2266.81044	0.01796
2265.52467	0.01774
2264.23890	0.01734
2262.95314	0.01682
2261.66737	0.01634
2260.38160	0.01604
2259.09583	0.01598
2257.81006	0.01609
2256.52429	0.01628
2255.23852	0.01647
2253.95275	0.01661
2252.66698	0.01657
2251.38122	0.01630
2250.09545	0.01607
2248.80968	0.01629
2247.52391	0.01649
2246.23814	0.01678
2244.95237	0.01692
2243.66660	0.01684
2242.38083	0.01661
2241.09507	0.01614
2239.80930	0.01544
2238.52353	0.01487
2237.23776	0.01486
2235.95199	0.01537
2234.66622	0.01595
2233.38045	0.01622
2232.09468	0.01612
2230.80891	0.01575
2229.52315	0.01517
2228.23738	0.01440
2226.95161	0.01351
2225.66584	0.01275
2224.38007	0.01233
2223.09430	0.01234
2221.80853	0.01257
2220.52276	0.01276
2219.23700	0.01288
2217.95123	0.01316
2216.66546	0.01370
2215.37969	0.01423
2214.09392	0.01427
2212.80815	0.01363
2211.52238	0.01262
2210.23661	0.01174
2208.95084	0.01135
2207.66508	0.01152
2206.37931	0.01210
2205.09354	0.01278
2203.80777	0.01319
2202.52200	0.01301
2201.23623	0.01224
2199.95046	0.01120
2198.66469	0.01036
2197.37893	0.01011
2196.09316	0.01053
2194.80739	0.01138
2193.52162	0.01232
2192.23585	0.01312
2190.95008	0.01374
2189.66431	0.01423
2188.37854	0.01461
2187.09277	0.01472
2185.80701	0.01436
2184.52124	0.01356
2183.23547	0.01291
2181.94970	0.01298
2180.66393	0.01365
2179.37816	0.01407
2178.09239	0.01356
2176.80662	0.01231
2175.52085	0.01113
2174.23509	0.01069
2172.94932	0.01100
2171.66355	0.01159
2170.37778	0.01205
2169.09201	0.01216
2167.80624	0.01191
2166.52047	0.01149
2165.23470	0.01129
2163.94894	0.01147
2162.66317	0.01158
2161.37740	0.01095
2160.09163	0.00966
2158.80586	0.00860
2157.52009	0.00843
2156.23432	0.00877
2154.94855	0.00884
2153.66278	0.00835
2152.37702	0.00776
2151.09125	0.00766
2149.80548	0.00814
2148.51971	0.00884
2147.23394	0.00951
2145.94817	0.01025
2144.66240	0.01115
2143.37663	0.01186
2142.09087	0.01202
2140.80510	0.01182
2139.51933	0.01180
2138.23356	0.01222
2136.94779	0.01275
2135.66202	0.01304
2134.37625	0.01314
2133.09048	0.01333
2131.80471	0.01362
2130.51895	0.01375
2129.23318	0.01358
2127.94741	0.01331
2126.66164	0.01326
2125.37587	0.01352
2124.09010	0.01388
2122.80433	0.01409
2121.51856	0.01404
2120.23280	0.01380
2118.94703	0.01355
2117.66126	0.01346
2116.37549	0.01360
2115.08972	0.01374
2113.80395	0.01352
2112.51818	0.01281
2111.23241	0.01199
2109.94664	0.01169
2108.66088	0.01210
2107.37511	0.01280
2106.08934	0.01317
2104.80357	0.01290
2103.51780	0.01217
2102.23203	0.01142
2100.94626	0.01089
2099.66049	0.00982
2098.37473	0.00935
2097.08896	0.00949
2095.80319	0.01004
2094.51742	0.01085
2093.23165	0.01156
2091.94588	0.01185
2090.66011	0.01176
2089.37434	0.01159
2088.08857	0.01149
2086.80281	0.01127
2085.51704	0.01078
2084.23127	0.01022
2082.94550	0.01002
2081.65973	0.01028
2080.37396	0.01067
2079.08819	0.01072
2077.80242	0.01031
2076.51666	0.00970
2075.23089	0.00921
2073.94512	0.00886
2072.65935	0.00850
2071.37358	0.00810
2070.08781	0.00789
2068.80204	0.00800
2067.51627	0.00830
2066.23050	0.00854
2064.94474	0.00869
2063.65897	0.00893
2062.37320	0.00930
2061.08743	0.00953
2059.80166	0.00928
2058.51589	0.00853
2057.23012	0.00758
2055.94435	0.00688
2054.65859	0.00676
2053.37282	0.00724
2052.08705	0.00801
2050.80128	0.00852
2049.51551	0.00824
2048.22974	0.00706
2046.94397	0.00541
2045.65820	0.00405
2044.37243	0.00359
2043.08667	0.00402
2041.80090	0.00476
2040.51513	0.00519
2039.22936	0.00518
2037.94359	0.00517
2036.65782	0.00563
2035.37205	0.00656
2034.08628	0.00749
2032.80052	0.00785
2031.51475	0.00741
2030.22898	0.00643
2028.94321	0.00532
2027.65744	0.00418
2026.37167	0.00287
2025.08590	0.00139
2023.80013	0.00019
2022.51436	-0.00009
2021.22860	0.00086
2019.94283	0.00271
2018.65706	0.00471
2017.37129	0.00608
2016.08552	0.00647
2014.79975	0.00609
2013.51398	0.00541
2012.22821	0.00463
2010.94245	0.00372
2009.65668	0.00271
2008.37091	0.00197
2007.08514	0.00197
2005.79937	0.00291
2004.51360	0.00447
2003.22783	0.00611
2001.94206	0.00743
2000.65629	0.00836
1999.37053	0.00908
1998.08476	0.00972
1996.79899	0.01025
1995.51322	0.01053
1994.22745	0.01046
1992.94168	0.01009
1991.65591	0.00973
1990.37014	0.00973
1989.08438	0.01018
1987.79861	0.01075
1986.51284	0.01106
1985.22707	0.01094
1983.94130	0.01043
1982.65553	0.00946
1981.36976	0.00802
1980.08399	0.00639
1978.79822	0.00511
1977.51246	0.00459
1976.22669	0.00476
1974.94092	0.00527
1973.65515	0.00582
1972.36938	0.00625
1971.08361	0.00658
1969.79784	0.00697
1968.51207	0.00753
1967.22631	0.00821
1965.94054	0.00877
1964.65477	0.00890
1963.36900	0.00853
1962.08323	0.00790
1960.79746	0.00737
1959.51169	0.00729
1958.22592	0.00774
1956.94015	0.00857
1955.65439	0.00946
1954.36862	0.01019
1953.08285	0.01071
1951.79708	0.01113
1950.51131	0.01154
1949.22554	0.01202
1947.93977	0.01253
1946.65400	0.01298
1945.36823	0.01324
1944.08247	0.01329
1942.79670	0.01312
1941.51093	0.01280
1940.22516	0.01249
1938.93939	0.01236
1937.65362	0.01251
1936.36785	0.01282
1935.08208	0.01305
1933.79632	0.01301
1932.51055	0.01276
1931.22478	0.01250
1929.93901	0.01244
1928.65324	0.01251
1927.36747	0.01244
1926.08170	0.01206
1924.79593	0.01151
1923.51016	0.01111
1922.22440	0.01105
1920.93863	0.01124
1919.65286	0.01141
1918.36709	0.01137
1917.08132	0.01120
1915.79555	0.01113
1914.50978	0.01131
1913.22401	0.01167
1911.93825	0.01193
1910.65248	0.01188
1909.36671	0.01152
1908.08094	0.01109
1906.79517	0.01084
1905.50940	0.01085
1904.22363	0.01095
1902.93786	0.01094
1901.65209	0.01085
1900.36633	0.01088
1899.08056	0.01116
1897.79479	0.01158
1896.50902	0.01190
1895.22325	0.01194
1893.93748	0.01169
1892.65171	0.01131
1891.36594	0.01110
1890.08018	0.01131
1888.79441	0.01193
1887.50864	0.01267
1886.22287	0.01313
1884.93710	0.01314
1883.65133	0.01285
1882.36556	0.01254
1881.07979	0.01241
1879.79402	0.01245
1878.50826	0.01258
1877.22249	0.01270
1875.93672	0.01276
1874.65095	0.01274
1873.36518	0.01266
1872.07941	0.01253
1870.79364	0.01239
1869.50787	0.01226
1868.22211	0.01217
1866.93634	0.01215
1865.65057	0.01216
1864.36480	0.01212
1863.07903	0.01198
1861.79326	0.01182
1860.50749	0.01177
1859.22172	0.01193
1857.93595	0.01226
1856.65019	0.01260
1855.36442	0.01276
1854.07865	0.01273
1852.79288	0.01264
1851.50711	0.01261
1850.22134	0.01264
1848.93557	0.01263
1847.64980	0.01250
1846.36404	0.01232
1845.07827	0.01223
1843.79250	0.01225
1842.50673	0.01237
1841.22096	0.01249
1839.93519	0.01252
1838.64942	0.01241
1837.36365	0.01220
1836.07788	0.01198
1834.79212	0.01184
1833.50635	0.01181
1832.22058	0.01188
1830.93481	0.01201
1829.64904	0.01209
1828.36327	0.01209
1827.07750	0.01203
1825.79173	0.01194
1824.50597	0.01184
1823.22020	0.01178
1821.93443	0.01183
1820.64866	0.01201
1819.36289	0.01228
1818.07712	0.01258
1816.79135	0.01285
1815.50558	0.01302
1814.21981	0.01313
1812.93405	0.01322
1811.64828	0.01331
1810.36251	0.01328
1809.07674	0.01311
1807.79097	0.01289
1806.50520	0.01277
1805.21943	0.01282
1803.93366	0.01295
1802.64790	0.01303
1801.36213	0.01299
1800.07636	0.01289
1798.79059	0.01284
1797.50482	0.01284
1796.21905	0.01281
1794.93328	0.01269
1793.64751	0.01253
1792.36174	0.01243
1791.07598	0.01246
1789.79021	0.01265
1788.50444	0.01293
1787.21867	0.01320
1785.93290	0.01334
1784.64713	0.01330
1783.36136	0.01312
1782.07559	0.01293
1780.78983	0.01284
1779.50406	0.01290
1778.21829	0.01302
1776.93252	0.01308
1775.64675	0.01305
1774.36098	0.01300
1773.07521	0.01301
1771.78944	0.01312
1770.50367	0.01329
1769.21791	0.01347
1767.93214	0.01356
1766.64637	0.01352
1765.36060	0.01343
1764.07483	0.01340
1762.78906	0.01345
1761.50329	0.01351
1760.21752	0.01357
1758.93176	0.01367
1757.64599	0.01383
1756.36022	0.01400
1755.07445	0.01409
1753.78868	0.01408
1752.50291	0.01399
1751.21714	0.01390
1749.93137	0.01390
1748.64560	0.01404
1747.35984	0.01427
1746.07407	0.01447
1744.78830	0.01456
1743.50253	0.01458
1742.21676	0.01459
1740.93099	0.01463
1739.64522	0.01462
1738.35945	0.01451
1737.07369	0.01437
1735.78792	0.01434
1734.50215	0.01444
1733.21638	0.01460
1731.93061	0.01480
1730.64484	0.01504
1729.35907	0.01526
1728.07330	0.01537
1726.78753	0.01541
1725.50177	0.01548
1724.21600	0.01563
1722.93023	0.01581
1721.64446	0.01591
1720.35869	0.01597
1719.07292	0.01606
1717.78715	0.01623
1716.50138	0.01646
1715.21561	0.01673
1713.92985	0.01703
1712.64408	0.01731
1711.35831	0.01754
1710.07254	0.01771
1708.78677	0.01782
1707.50100	0.01794
1706.21523	0.01808
1704.92946	0.01822
1703.64370	0.01838
1702.35793	0.01862
1701.07216	0.01890
1699.78639	0.01911
1698.50062	0.01929
1697.21485	0.01961
1695.92908	0.02005
1694.64331	0.02045
1693.35754	0.02078
1692.07178	0.02109
1690.78601	0.02139
1689.50024	0.02159
1688.21447	0.02168
1686.92870	0.02177
1685.64293	0.02195
1684.35716	0.02224
1683.07139	0.02258
1681.78563	0.02296
1680.49986	0.02331
1679.21409	0.02356
1677.92832	0.02376
1676.64255	0.02403
1675.35678	0.02438
1674.07101	0.02472
1672.78524	0.02501
1671.49947	0.02528
1670.21371	0.02559
1668.92794	0.02590
1667.64217	0.02618
1666.35640	0.02644
1665.07063	0.02671
1663.78486	0.02700
1662.49909	0.02729
1661.21332	0.02755
1659.92756	0.02775
1658.64179	0.02783
1657.35602	0.02776
1656.07025	0.02761
1654.78448	0.02762
1653.49871	0.02787
1652.21294	0.02822
1650.92717	0.02852
1649.64140	0.02874
1648.35564	0.02893
1647.06987	0.02912
1645.78410	0.02933
1644.49833	0.02956
1643.21256	0.02976
1641.92679	0.02987
1640.64102	0.02988
1639.35525	0.02983
1638.06949	0.02984
1636.78372	0.02997
1635.49795	0.03017
1634.21218	0.03037
1632.92641	0.03058
1631.64064	0.03084
1630.35487	0.03112
1629.06910	0.03134
1627.78333	0.03145
1626.49757	0.03149
1625.21180	0.03158
1623.92603	0.03180
1622.64026	0.03216
1621.35449	0.03257
1620.06872	0.03299
1618.78295	0.03341
1617.49718	0.03383
1616.21142	0.03422
1614.92565	0.03456
1613.63988	0.03492
1612.35411	0.03535
1611.06834	0.03580
1609.78257	0.03624
1608.49680	0.03664
1607.21103	0.03702
1605.92526	0.03740
1604.63950	0.03778
1603.35373	0.03814
1602.06796	0.03843
1600.78219	0.03869
1599.49642	0.03893
1598.21065	0.03921
1596.92488	0.03954
1595.63911	0.03987
1594.35335	0.04017
1593.06758	0.04040
1591.78181	0.04057
1590.49604	0.04069
1589.21027	0.04079
1587.92450	0.04090
1586.63873	0.04101
1585.35296	0.04114
1584.06719	0.04131
1582.78143	0.04153
1581.49566	0.04175
1580.20989	0.04191
1578.92412	0.04202
1577.63835	0.04215
1576.35258	0.04233
1575.06681	0.04253
1573.78104	0.04271
1572.49528	0.04288
1571.20951	0.04305
1569.92374	0.04321
1568.63797	0.04338
1567.35220	0.04358
1566.06643	0.04377
1564.78066	0.04388
1563.49489	0.04381
1562.20912	0.04364
1560.92336	0.04353
1559.63759	0.04355
1558.35182	0.04363
1557.06605	0.04368
1555.78028	0.04370
1554.49451	0.04370
1553.20874	0.04370
1551.92297	0.04370
1550.63721	0.04369
1549.35144	0.04357
1548.06567	0.04331
1546.77990	0.04295
1545.49413	0.04250
1544.20836	0.04198
1542.92259	0.04143
1541.63682	0.04097
1540.35105	0.04065
1539.06529	0.04038
1537.77952	0.04004
1536.49375	0.03966
1535.20798	0.03934
1533.92221	0.03913
1532.63644	0.03898
1531.35067	0.03889
1530.06490	0.03882
1528.77914	0.03877
1527.49337	0.03874
1526.20760	0.03875
1524.92183	0.03884
1523.63606	0.03906
1522.35029	0.03946
1521.06452	0.03997
1519.77875	0.04052
1518.49298	0.04112
1517.20722	0.04176
1515.92145	0.04242
1514.63568	0.04311
1513.34991	0.04387
1512.06414	0.04467
1510.77837	0.04548
1509.49260	0.04633
1508.20683	0.04728
1506.92107	0.04834
1505.63530	0.04941
1504.34953	0.05041
1503.06376	0.05134
1501.77799	0.05219
1500.49222	0.05291
1499.20645	0.05355
1497.92068	0.05418
1496.63491	0.05480
1495.34915	0.05540
1494.06338	0.05597
1492.77761	0.05657
1491.49184	0.05723
1490.20607	0.05797
1488.92030	0.05878
1487.63453	0.05967
1486.34876	0.06062
1485.06299	0.06158
1483.77723	0.06253
1482.49146	0.06347
1481.20569	0.06440
1479.91992	0.06534
1478.63415	0.06631
1477.34838	0.06730
1476.06261	0.06827
1474.77684	0.06918
1473.49108	0.07003
1472.20531	0.07083
1470.91954	0.07158
1469.63377	0.07228
1468.34800	0.07294
1467.06223	0.07352
1465.77646	0.07404
1464.49069	0.07446
1463.20492	0.07480
1461.91916	0.07513
1460.63339	0.07553
1459.34762	0.07607
1458.06185	0.07674
1456.77608	0.07742
1455.49031	0.07799
1454.20454	0.07848
1452.91877	0.07890
1451.63301	0.07928
1450.34724	0.07961
1449.06147	0.07988
1447.77570	0.08001
1446.48993	0.07998
1445.20416	0.07979
1443.91839	0.07949
1442.63262	0.07911
1441.34685	0.07866
1440.06109	0.07820
1438.77532	0.07781
1437.48955	0.07756
1436.20378	0.07741
1434.91801	0.07739
1433.63224	0.07754
1432.34647	0.07789
1431.06070	0.07843
1429.77494	0.07915
1428.48917	0.08005
1427.20340	0.08110
1425.91763	0.08226
1424.63186	0.08340
1423.34609	0.08448
1422.06032	0.08552
1420.77455	0.08659
1419.48878	0.08764
1418.20302	0.08855
1416.91725	0.08927
1415.63148	0.08979
1414.34571	0.09010
1413.05994	0.09018
1411.77417	0.09005
1410.48840	0.08970
1409.20263	0.08914
1407.91687	0.08834
1406.63110	0.08732
1405.34533	0.08611
1404.05956	0.08471
1402.77379	0.08316
1401.48802	0.08148
1400.20225	0.07972
1398.91648	0.07788
1397.63071	0.07601
1396.34495	0.07415
1395.05918	0.07231
1393.77341	0.07048
1392.48764	0.06864
1391.20187	0.06683
1389.91610	0.06508
1388.63033	0.06341
1387.34456	0.06184
1386.05880	0.06035
1384.77303	0.05890
1383.48726	0.05746
1382.20149	0.05598
1380.91572	0.05445
1379.62995	0.05287
1378.34418	0.05128
1377.05841	0.04969
1375.77264	0.04812
1374.48688	0.04655
1373.20111	0.04498
1371.91534	0.04344
1370.62957	0.04200
1369.34380	0.04069
1368.05803	0.03947
1366.77226	0.03834
1365.48649	0.03728
1364.20073	0.03629
1362.91496	0.03539
1361.62919	0.03458
1360.34342	0.03385
1359.05765	0.03319
1357.77188	0.03258
1356.48611	0.03197
1355.20034	0.03136
1353.91457	0.03078
1352.62881	0.03022
1351.34304	0.02968
1350.05727	0.02917
1348.77150	0.02870
1347.48573	0.02828
1346.19996	0.02788
1344.91419	0.02748
1343.62842	0.02708
1342.34266	0.02669
1341.05689	0.02631
1339.77112	0.02594
1338.48535	0.02553
1337.19958	0.02509
1335.91381	0.02462
1334.62804	0.02415
1333.34227	0.02375
1332.05650	0.02343
1330.77074	0.02320
1329.48497	0.02299
1328.19920	0.02277
1326.91343	0.02253
1325.62766	0.02232
1324.34189	0.02216
1323.05612	0.02202
1321.77035	0.02184
1320.48459	0.02160
1319.19882	0.02133
1317.91305	0.02106
1316.62728	0.02084
1315.34151	0.02067
1314.05574	0.02054
1312.76997	0.02045
1311.48420	0.02035
1310.19843	0.02022
1308.91267	0.02002
1307.62690	0.01978
1306.34113	0.01953
1305.05536	0.01931
1303.76959	0.01916
1302.48382	0.01907
1301.19805	0.01900
1299.91228	0.01892
1298.62652	0.01882
1297.34075	0.01873
1296.05498	0.01864
1294.76921	0.01855
1293.48344	0.01846
1292.19767	0.01837
1290.91190	0.01828
1289.62613	0.01818
1288.34036	0.01804
1287.05460	0.01788
1285.76883	0.01773
1284.48306	0.01763
1283.19729	0.01759
1281.91152	0.01755
1280.62575	0.01747
1279.33998	0.01732
1278.05421	0.01717
1276.76845	0.01706
1275.48268	0.01702
1274.19691	0.01703
1272.91114	0.01702
1271.62537	0.01697
1270.33960	0.01690
1269.05383	0.01682
1267.76806	0.01674
1266.48229	0.01666
1265.19653	0.01659
1263.91076	0.01654
1262.62499	0.01655
1261.33922	0.01659
1260.05345	0.01660
1258.76768	0.01654
1257.48191	0.01643
1256.19614	0.01629
1254.91037	0.01618
1253.62461	0.01613
1252.33884	0.01612
1251.05307	0.01613
1249.76730	0.01614
1248.48153	0.01616
1247.19576	0.01614
1245.90999	0.01608
1244.62422	0.01600
1243.33846	0.01594
1242.05269	0.01593
1240.76692	0.01593
1239.48115	0.01591
1238.19538	0.01583
1236.90961	0.01571
1235.62384	0.01559
1234.33807	0.01553
1233.05230	0.01552
1231.76654	0.01552
1230.48077	0.01549
1229.19500	0.01545
1227.90923	0.01542
1226.62346	0.01538
1225.33769	0.01535
1224.05192	0.01532
1222.76615	0.01531
1221.48039	0.01530
1220.19462	0.01528
1218.90885	0.01523
1217.62308	0.01513
1216.33731	0.01503
1215.05154	0.01499
1213.76577	0.01504
1212.48000	0.01515
1211.19423	0.01525
1209.90847	0.01528
1208.62270	0.01523
1207.33693	0.01515
1206.05116	0.01511
1204.76539	0.01511
1203.47962	0.01515
1202.19385	0.01520
1200.90808	0.01530
1199.62232	0.01545
1198.33655	0.01545
1197.05078	0.01542
1195.76501	0.01540
1194.47924	0.01541
1193.19347	0.01541
1191.90770	0.01539
1190.62193	0.01534
1189.33616	0.01533
1188.05040	0.01542
1186.76463	0.01557
1185.47886	0.01567
1184.19309	0.01566
1182.90732	0.01558
1181.62155	0.01553
1180.33578	0.01555
1179.05001	0.01564
1177.76425	0.01571
1176.47848	0.01574
1175.19271	0.01570
1173.90694	0.01568
1172.62117	0.01571
1171.33540	0.01581
1170.04963	0.01594
1168.76386	0.01611
1167.47809	0.01633
1166.19233	0.01659
1164.90656	0.01681
1163.62079	0.01697
1162.33502	0.01708
1161.04925	0.01720
1159.76348	0.01737
1158.47771	0.01755
1157.19194	0.01772
1155.90618	0.01790
1154.62041	0.01814
1153.33464	0.01842
1152.04887	0.01873
1150.76310	0.01905
1149.47733	0.01938
1148.19156	0.01976
1146.90579	0.02021
1145.62002	0.02071
1144.33426	0.02129
1143.04849	0.02194
1141.76272	0.02267
1140.47695	0.02348
1139.19118	0.02434
1137.90541	0.02530
1136.61964	0.02642
1135.33387	0.02768
1134.04811	0.02906
1132.76234	0.03057
1131.47657	0.03227
1130.19080	0.03422
1128.90503	0.03638
1127.61926	0.03872
1126.33349	0.04125
1125.04772	0.04397
1123.76195	0.04685
1122.47619	0.04988
1121.19042	0.05305
1119.90465	0.05633
1118.61888	0.05968
1117.33311	0.06306
1116.04734	0.06642
1114.76157	0.06972
1113.47580	0.07293
1112.19004	0.07605
1110.90427	0.07910
1109.61850	0.08214
1108.33273	0.08516
1107.04696	0.08810
1105.76119	0.09090
1104.47542	0.09354
1103.18965	0.09608
1101.90388	0.09858
1100.61812	0.10102
1099.33235	0.10334
1098.04658	0.10550
1096.76081	0.10752
1095.47504	0.10945
1094.18927	0.11135
1092.90350	0.11322
1091.61773	0.11505
1090.33197	0.11685
1089.04620	0.11860
1087.76043	0.12029
1086.47466	0.12192
1085.18889	0.12345
1083.90312	0.12492
1082.61735	0.12642
1081.33158	0.12809
1080.04581	0.13004
1078.76005	0.13224
1077.47428	0.13461
1076.18851	0.13709
1074.90274	0.13970
1073.61697	0.14248
1072.33120	0.14538
1071.04543	0.14837
1069.75966	0.15141
1068.47390	0.15451
1067.18813	0.15770
1065.90236	0.16099
1064.61659	0.16435
1063.33082	0.16775
1062.04505	0.17117
1060.75928	0.17463
1059.47351	0.17813
1058.18774	0.18162
1056.90198	0.18504
1055.61621	0.18835
1054.33044	0.19156
1053.04467	0.19475
1051.75890	0.19798
1050.47313	0.20137
1049.18736	0.20493
1047.90159	0.20859
1046.61583	0.21220
1045.33006	0.21576
1044.04429	0.21934
1042.75852	0.22302
1041.47275	0.22677
1040.18698	0.23049
1038.90121	0.23418
1037.61544	0.23785
1036.32967	0.24153
1035.04391	0.24518
1033.75814	0.24870
1032.47237	0.25199
1031.18660	0.25494
1029.90083	0.25749
1028.61506	0.25959
1027.32929	0.26131
1026.04352	0.26268
1024.75775	0.26368
1023.47199	0.26425
1022.18622	0.26434
1020.90045	0.26396
1019.61468	0.26309
1018.32891	0.26163
1017.04314	0.25949
1015.75737	0.25667
1014.47160	0.25328
1013.18584	0.24938
1011.90007	0.24494
1010.61430	0.23991
1009.32853	0.23430
1008.04276	0.22822
1006.75699	0.22178
1005.47122	0.21505
1004.18545	0.20803
1002.89968	0.20072
1001.61392	0.19316
1000.32815	0.18539
999.04238	0.17752
997.75661	0.16970
996.47084	0.16199
995.18507	0.15441
993.89930	0.14695
992.61353	0.13969
991.32777	0.13272
990.04200	0.12610
988.75623	0.11987
987.47046	0.11404
986.18469	0.10858
984.89892	0.10343
983.61315	0.09853
982.32738	0.09391
981.04161	0.08960
979.75585	0.08565
978.47008	0.08211
977.18431	0.07904
975.89854	0.07646
974.61277	0.07433
973.32700	0.07262
972.04123	0.07133
970.75546	0.07056
969.46970	0.07036
968.18393	0.07076
966.89816	0.07168
965.61239	0.07297
964.32662	0.07446
963.04085	0.07589
961.75508	0.07695
960.46931	0.07737
959.18354	0.07703
957.89778	0.07596
956.61201	0.07428
955.32624	0.07215
954.04047	0.06974
952.75470	0.06722
951.46893	0.06470
950.18316	0.06225
948.89739	0.05990
947.61163	0.05772
946.32586	0.05571
945.04009	0.05382
943.75432	0.05197
942.46855	0.05016
941.18278	0.04848
939.89701	0.04698
938.61124	0.04564
937.32547	0.04440
936.03971	0.04322
934.75394	0.04207
933.46817	0.04096
932.18240	0.03988
930.89663	0.03886
929.61086	0.03794
928.32509	0.03716
927.03932	0.03651
925.75356	0.03596
924.46779	0.03544
923.18202	0.03492
921.89625	0.03441
920.61048	0.03397
919.32471	0.03364
918.03894	0.03335
916.75317	0.03299
915.46740	0.03254
914.18164	0.03210
912.89587	0.03177
911.61010	0.03156
910.32433	0.03139
909.03856	0.03118
907.75279	0.03088
906.46702	0.03050
905.18125	0.03013
903.89549	0.02980
902.60972	0.02953
901.32395	0.02930
900.03818	0.02911
898.75241	0.02897
897.46664	0.02887
896.18087	0.02881
894.89510	0.02880
893.60933	0.02887
892.32357	0.02900
891.03780	0.02916
889.75203	0.02934
888.46626	0.02966
887.18049	0.03032
885.89472	0.03150
884.60895	0.03333
883.32318	0.03573
882.03742	0.03845
880.75165	0.04109
879.46588	0.04328
878.18011	0.04489
876.89434	0.04616
875.60857	0.04743
874.32280	0.04878
873.03703	0.04990
871.75126	0.05031
870.46550	0.04978
869.17973	0.04843
867.89396	0.04657
866.60819	0.04439
865.32242	0.04201
864.03665	0.03955
862.75088	0.03724
861.46511	0.03528
860.17935	0.03372
858.89358	0.03244
857.60781	0.03131
856.32204	0.03030
855.03627	0.02947
853.75050	0.02887
852.46473	0.02851
851.17896	0.02833
849.89319	0.02820
848.60743	0.02799
847.32166	0.02765
846.03589	0.02726
844.75012	0.02695
843.46435	0.02674
842.17858	0.02658
840.89281	0.02642
839.60704	0.02626
838.32128	0.02610
837.03551	0.02593
835.74974	0.02578
834.46397	0.02569
833.17820	0.02568
831.89243	0.02565
830.60666	0.02554
829.32089	0.02537
828.03512	0.02520
826.74936	0.02504
825.46359	0.02487
824.17782	0.02472
822.89205	0.02463
821.60628	0.02463
820.32051	0.02465
819.03474	0.02465
817.74897	0.02469
816.46321	0.02480
815.17744	0.02491
813.89167	0.02489
812.60590	0.02472
811.32013	0.02452
810.03436	0.02439
808.74859	0.02437
807.46282	0.02440
806.17705	0.02443
804.89129	0.02445
803.60552	0.02442
802.31975	0.02436
801.03398	0.02426
799.74821	0.02415
798.46244	0.02407
797.17667	0.02406
795.89090	0.02412
794.60513	0.02422
793.31937	0.02429
792.03360	0.02426
790.74783	0.02420
789.46206	0.02420
788.17629	0.02429
786.89052	0.02437
785.60475	0.02435
784.31898	0.02420
783.03322	0.02402
781.74745	0.02389
780.46168	0.02383
779.17591	0.02384
777.89014	0.02390
776.60437	0.02399
775.31860	0.02406
774.03283	0.02405
772.74706	0.02397
771.46130	0.02388
770.17553	0.02387
768.88976	0.02396
767.60399	0.02411
766.31822	0.02424
765.03245	0.02429
763.74668	0.02423
762.46091	0.02410
761.17515	0.02399
759.88938	0.02399
758.60361	0.02414
757.31784	0.02434
756.03207	0.02449
754.74630	0.02452
753.46053	0.02446
752.17476	0.02441
750.88899	0.02441
749.60323	0.02440
748.31746	0.02434
747.03169	0.02422
745.74592	0.02405
744.46015	0.02383
743.17438	0.02358
741.88861	0.02333
740.60284	0.02314
739.31708	0.02308
738.03131	0.02314
736.74554	0.02326
735.45977	0.02339
734.17400	0.02347
732.88823	0.02353
731.60246	0.02366
730.31669	0.02388
729.03092	0.02410
727.74516	0.02421
726.45939	0.02420
725.17362	0.02413
723.88785	0.02403
722.60208	0.02409
721.31631	0.02423
720.03054	0.02435
718.74477	0.02448
717.45901	0.02461
716.17324	0.02473
714.88747	0.02475
713.60170	0.02466
712.31593	0.02449
711.03016	0.02431
709.74439	0.02416
708.45862	0.02408
707.17285	0.02402
705.88709	0.02396
704.60132	0.02389
703.31555	0.02383
702.02978	0.02377
700.74401	0.02372
699.45824	0.02368
698.17247	0.02365
696.88670	0.02367
695.60094	0.02377
694.31517	0.02392
693.02940	0.02408
691.74363	0.02418
690.45786	0.02420
689.17209	0.02414
687.88632	0.02403
686.60055	0.02389
685.31478	0.02378
684.02902	0.02373
682.74325	0.02371
681.45748	0.02369
680.17171	0.02366
678.88594	0.02365
677.60017	0.02370
676.31440	0.02379
675.02863	0.02393
673.74287	0.02412
672.45710	0.02434
671.17133	0.02457
669.88556	0.02476
668.59979	0.02496
667.31402	0.02515
666.02825	0.02528
664.74248	0.02528
663.45671	0.02516
662.17095	0.02500
660.88518	0.02485
659.59941	0.02474
658.31364	0.02467
657.02787	0.02462
655.74210	0.02460
654.45633	0.02461
653.17056	0.02468
651.88480	0.02481
650.59903	0.02499
649.31326	0.02519
648.02749	0.02541
646.74172	0.02563
645.45595	0.02582
644.17018	0.02595
642.88441	0.02604
641.59864	0.02615
640.31288	0.02631
639.02711	0.02651
637.74134	0.02674
636.45557	0.02700
635.16980	0.02733
633.88403	0.02772
632.59826	0.02809
631.31249	0.02820
630.02673	0.02757
628.74096	0.02667
627.45519	0.02731
626.16942	0.02638
624.88365	0.02444
623.59788	0.02294
622.31211	0.02294
621.02634	0.02525
619.74057	0.02995
618.45481	0.03610
617.16904	0.04246
615.88327	0.04801
614.59750	0.05221
613.31173	0.05517
612.02596	0.05779
610.74019	0.06126
609.45442	0.06597
608.16866	0.07118
606.88289	0.07603
605.59712	0.08051
604.31135	0.08489
603.02558	0.08881
601.73981	0.09135
600.45404	0.09180
599.16827	0.09018
597.88250	0.08701
596.59674	0.08302
595.31097	0.07899
594.02520	0.07554
592.73943	0.07300
591.45366	0.07135
590.16789	0.07040
588.88212	0.07007
587.59635	0.07038
586.31059	0.07133
585.02482	0.07283
583.73905	0.07470
582.45328	0.07689
581.16751	0.07939
579.88174	0.08215
578.59597	0.08502
577.31020	0.08790
576.02443	0.09076
574.73867	0.09361
573.45290	0.09634
572.16713	0.09888
570.88136	0.10135
569.59559	0.10407
568.30982	0.10731
567.02405	0.11108
565.73828	0.11511
564.45251	0.11890
563.16675	0.12178
561.88098	0.12304
560.59521	0.12218
559.30944	0.11912
558.02367	0.11417
556.73790	0.10791
555.45213	0.10093
554.16636	0.09372
552.88060	0.08665
551.59483	0.07997
550.30906	0.07392
549.02329	0.06873
547.73752	0.06443
546.45175	0.06084
545.16598	0.05768
543.88021	0.05481
542.59444	0.05220
541.30868	0.04988
540.02291	0.04778
538.73714	0.04588
537.45137	0.04414
536.16560	0.04253
534.87983	0.04105
533.59406	0.03971
532.30829	0.03853
531.02253	0.03751
529.73676	0.03658
528.45099	0.03566
527.16522	0.03472
525.87945	0.03373
524.59368	0.03270
523.30791	0.03168
522.02214	0.03078
520.73637	0.03007
519.45061	0.02960
518.16484	0.02930
516.87907	0.02900
515.59330	0.02855
514.30753	0.02793
513.02176	0.02728
511.73599	0.02674
510.45022	0.02636
509.16446	0.02607
507.87869	0.02574
506.59292	0.02533
505.30715	0.02491
504.02138	0.02457
502.73561	0.02435
501.44984	0.02420
500.16407	0.02402
498.87830	0.02378
497.59254	0.02346
496.30677	0.02312
495.02100	0.02281
493.73523	0.02258
492.44946	0.02245
491.16369	0.02239
489.87792	0.02237
488.59215	0.02232
487.30639	0.02224
486.02062	0.02215
484.73485	0.02207
483.44908	0.02200
482.16331	0.02200
480.87754	0.02213
479.59177	0.02239
478.30600	0.02273
477.02023	0.02307
475.73447	0.02335
474.44870	0.02359
473.16293	0.02382
471.87716	0.02402
470.59139	0.02412
469.30562	0.02407
468.01985	0.02387
466.73408	0.02359
465.44832	0.02329
464.16255	0.02296
462.87678	0.02261
461.59101	0.02225
460.30524	0.02194
459.01947	0.02173
457.73370	0.02157
456.44793	0.02136
455.16216	0.02105
453.87640	0.02068
452.59063	0.02034
451.30486	0.02009
450.01909	0.01993
448.73332	0.01982
447.44755	0.01976
446.16178	0.01968
444.87601	0.01957
443.59025	0.01941
442.30448	0.01923
441.01871	0.01905
439.73294	0.01885
438.44717	0.01865
437.16140	0.01849
435.87563	0.01841
434.58986	0.01840
433.30409	0.01844
432.01833	0.01850
430.73256	0.01856
429.44679	0.01861
428.16102	0.01861
426.87525	0.01853
425.58948	0.01838
424.30371	0.01819
423.01794	0.01802
421.73218	0.01791
420.44641	0.01785
419.16064	0.01780
417.87487	0.01772
416.58910	0.01761
415.30333	0.01749
414.01756	0.01741
412.73179	0.01740
411.44602	0.01746
410.16026	0.01755
408.87449	0.01763
407.58872	0.01768
406.30295	0.01772
405.01718	0.01778
403.73141	0.01787
402.44564	0.01800
401.15987	0.01814
399.87411	0.01827
