3997.45528	0.05990
3996.16951	0.06005
3994.88374	0.06016
3993.59798	0.06036
3992.31221	0.06087
3991.02644	0.06160
3989.74067	0.06209
3988.45490	0.06189
3987.16913	0.06113
3985.88336	0.06048
3984.59759	0.06053
3983.31183	0.06127
3982.02606	0.06220
3980.74029	0.06293
3979.45452	0.06344
3978.16875	0.06395
3976.88298	0.06459
3975.59721	0.06512
3974.31144	0.06493
3973.02567	0.06356
3971.73991	0.06127
3970.45414	0.05901
3969.16837	0.05779
3967.88260	0.05792
3966.59683	0.05907
3965.31106	0.06057
3964.02529	0.06177
3962.73952	0.06225
3961.45376	0.06197
3960.16799	0.06127
3958.88222	0.06060
3957.59645	0.06031
3956.31068	0.06052
3955.02491	0.06112
3953.73914	0.06180
3952.45337	0.06227
3951.16760	0.06249
3949.88184	0.06250
3948.59607	0.06220
3947.31030	0.06138
3946.02453	0.06018
3944.73876	0.05930
3943.45299	0.05943
3942.16722	0.06049
3940.88145	0.06167
3939.59569	0.06222
3938.30992	0.06194
3937.02415	0.06110
3935.73838	0.06016
3934.45261	0.05958
3933.16684	0.05972
3931.88107	0.06060
3930.59530	0.06190
3929.30953	0.06306
3928.02377	0.06370
3926.73800	0.06376
3925.45223	0.06344
3924.16646	0.06305
3922.88069	0.06293
3921.59492	0.06328
3920.30915	0.06396
3919.02338	0.06447
3917.73762	0.06431
3916.45185	0.06344
3915.16608	0.06233
3913.88031	0.06152
3912.59454	0.06106
3911.30877	0.06053
3910.02300	0.05958
3908.73723	0.05832
3907.45146	0.05727
3906.16570	0.05683
3904.87993	0.05689
3903.59416	0.05708
3902.30839	0.05719
3901.02262	0.05728
3899.73685	0.05748
3898.45108	0.05781
3897.16531	0.05825
3895.87955	0.05870
3894.59378	0.05899
3893.30801	0.05902
3892.02224	0.05877
3890.73647	0.05829
3889.45070	0.05775
3888.16493	0.05740
3886.87916	0.05743
3885.59339	0.05770
3884.30763	0.05790
3883.02186	0.05790
3881.73609	0.05786
3880.45032	0.05793
3879.16455	0.05812
3877.87878	0.05832
3876.59301	0.05848
3875.30724	0.05866
3874.02148	0.05901
3872.73571	0.05967
3871.44994	0.06043
3870.16417	0.06064
3868.87840	0.05987
3867.59263	0.05843
3866.30686	0.05705
3865.02109	0.05610
3863.73532	0.05553
3862.44956	0.05523
3861.16379	0.05518
3859.87802	0.05533
3858.59225	0.05559
3857.30648	0.05601
3856.02071	0.05665
3854.73494	0.05722
3853.44917	0.05721
3852.16341	0.05648
3850.87764	0.05558
3849.59187	0.05515
3848.30610	0.05527
3847.02033	0.05550
3845.73456	0.05540
3844.44879	0.05502
3843.16302	0.05477
3841.87725	0.05488
3840.59149	0.05524
3839.30572	0.05557
3838.01995	0.05570
3836.73418	0.05563
3835.44841	0.05549
3834.16264	0.05539
3832.87687	0.05542
3831.59110	0.05559
3830.30534	0.05588
3829.01957	0.05625
3827.73380	0.05671
3826.44803	0.05716
3825.16226	0.05754
3823.87649	0.05790
3822.59072	0.05824
3821.30495	0.05831
3820.01918	0.05781
3818.73342	0.05688
3817.44765	0.05607
3816.16188	0.05570
3814.87611	0.05572
3813.59034	0.05590
3812.30457	0.05588
3811.01880	0.05538
3809.73303	0.05448
3808.44726	0.05372
3807.16150	0.05358
3805.87573	0.05396
3804.58996	0.05443
3803.30419	0.05463
3802.01842	0.05451
3800.73265	0.05419
3799.44688	0.05391
3798.16111	0.05391
3796.87535	0.05425
3795.58958	0.05481
3794.30381	0.05536
3793.01804	0.05562
3791.73227	0.05552
3790.44650	0.05534
3789.16073	0.05543
3787.87496	0.05571
3786.58919	0.05578
3785.30343	0.05541
3784.01766	0.05472
3782.73189	0.05395
3781.44612	0.05325
3780.16035	0.05267
3778.87458	0.05231
3777.58881	0.05221
3776.30304	0.05212
3775.01728	0.05167
3773.73151	0.05084
3772.44574	0.05015
3771.15997	0.05029
3769.87420	0.05143
3768.58843	0.05290
3767.30266	0.05386
3766.01689	0.05399
3764.73112	0.05372
3763.44536	0.05373
3762.15959	0.05418
3760.87382	0.05452
3759.58805	0.05403
3758.30228	0.05257
3757.01651	0.05073
3755.73074	0.04936
3754.44497	0.04904
3753.15921	0.04973
3751.87344	0.05084
3750.58767	0.05159
3749.30190	0.05146
3748.01613	0.05059
3746.73036	0.04976
3745.44459	0.04952
3744.15882	0.04969
3742.87305	0.04981
3741.58729	0.04978
3740.30152	0.04966
3739.01575	0.04950
3737.72998	0.04933
3736.44421	0.04931
3735.15844	0.04959
3733.87267	0.05020
3732.58690	0.05081
3731.30114	0.05097
3730.01537	0.05067
3728.72960	0.05044
3727.44383	0.05071
3726.15806	0.05136
3724.87229	0.05197
3723.58652	0.05223
3722.30075	0.05212
3721.01498	0.05182
3719.72922	0.05158
3718.44345	0.05152
3717.15768	0.05165
3715.87191	0.05184
3714.58614	0.05191
3713.30037	0.05171
3712.01460	0.05128
3710.72883	0.05084
3709.44307	0.05074
3708.15730	0.05116
3706.87153	0.05197
3705.58576	0.05262
3704.29999	0.05253
3703.01422	0.05152
3701.72845	0.05007
3700.44268	0.04885
3699.15691	0.04823
3697.87115	0.04817
3696.58538	0.04852
3695.29961	0.04926
3694.01384	0.05019
3692.72807	0.05083
3691.44230	0.05085
3690.15653	0.05055
3688.87076	0.05044
3687.58500	0.05065
3686.29923	0.05090
3685.01346	0.05085
3683.72769	0.05045
3682.44192	0.04985
3681.15615	0.04924
3679.87038	0.04873
3678.58461	0.04868
3677.29884	0.04955
3676.01308	0.05124
3674.72731	0.05298
3673.44154	0.05409
3672.15577	0.05451
3670.87000	0.05439
3669.58423	0.05378
3668.29846	0.05286
3667.01269	0.05195
3665.72693	0.05128
3664.44116	0.05075
3663.15539	0.05023
3661.86962	0.04978
3660.58385	0.04953
3659.29808	0.04955
3658.01231	0.04976
3656.72654	0.05008
3655.44077	0.05041
3654.15501	0.05058
3652.86924	0.05052
3651.58347	0.05031
3650.29770	0.05019
3649.01193	0.05031
3647.72616	0.05061
3646.44039	0.05101
3645.15462	0.05167
3643.86886	0.05280
3642.58309	0.05426
3641.29732	0.05550
3640.01155	0.05593
3638.72578	0.05530
3637.44001	0.05398
3636.15424	0.05276
3634.86847	0.05237
3633.58270	0.05281
3632.29694	0.05350
3631.01117	0.05383
3629.72540	0.05374
3628.43963	0.05354
3627.15386	0.05352
3625.86809	0.05358
3624.58232	0.05346
3623.29655	0.05333
3622.01079	0.05373
3620.72502	0.05497
3619.43925	0.05652
3618.15348	0.05761
3616.86771	0.05798
3615.58194	0.05805
3614.29617	0.05818
3613.01040	0.05833
3611.72463	0.05828
3610.43887	0.05808
3609.15310	0.05804
3607.86733	0.05824
3606.58156	0.05849
3605.29579	0.05873
3604.01002	0.05915
3602.72425	0.05984
3601.43848	0.06037
3600.15272	0.06014
3598.86695	0.05902
3597.58118	0.05766
3596.29541	0.05694
3595.00964	0.05735
3593.72387	0.05870
3592.43810	0.06020
3591.15233	0.06112
3589.86656	0.06138
3588.58080	0.06140
3587.29503	0.06162
3586.00926	0.06211
3584.72349	0.06263
3583.43772	0.06284
3582.15195	0.06255
3580.86618	0.06193
3579.58041	0.06145
3578.29464	0.06151
3577.00888	0.06205
3575.72311	0.06269
3574.43734	0.06318
3573.15157	0.06351
3571.86580	0.06380
3570.58003	0.06401
3569.29426	0.06405
3568.00849	0.06410
3566.72273	0.06453
3565.43696	0.06549
3564.15119	0.06663
3562.86542	0.06736
3561.57965	0.06738
3560.29388	0.06686
3559.00811	0.06612
3557.72234	0.06540
3556.43657	0.06485
3555.15081	0.06460
3553.86504	0.06464
3552.57927	0.06479
3551.29350	0.06499
3550.00773	0.06548
3548.72196	0.06648
3547.43619	0.06772
3546.15042	0.06856
3544.86466	0.06867
3543.57889	0.06836
3542.29312	0.06809
3541.00735	0.06805
3539.72158	0.06820
3538.43581	0.06855
3537.15004	0.06907
3535.86427	0.06959
3534.57850	0.06994
3533.29274	0.07018
3532.00697	0.07042
3530.72120	0.07055
3529.43543	0.07039
3528.14966	0.07000
3526.86389	0.06976
3525.57812	0.06997
3524.29235	0.07051
3523.00659	0.07102
3521.72082	0.07132
3520.43505	0.07156
3519.14928	0.07199
3517.86351	0.07264
3516.57774	0.07321
3515.29197	0.07337
3514.00620	0.07312
3512.72043	0.07278
3511.43467	0.07262
3510.14890	0.07258
3508.86313	0.07243
3507.57736	0.07208
3506.29159	0.07177
3505.00582	0.07176
3503.72005	0.07215
3502.43428	0.07284
3501.14852	0.07362
3499.86275	0.07423
3498.57698	0.07453
3497.29121	0.07459
3496.00544	0.07469
3494.71967	0.07499
3493.43390	0.07535
3492.14813	0.07553
3490.86236	0.07559
3489.57660	0.07582
3488.29083	0.07633
3487.00506	0.07690
3485.71929	0.07715
3484.43352	0.07696
3483.14775	0.07645
3481.86198	0.07582
3480.57621	0.07537
3479.29045	0.07538
3478.00468	0.07596
3476.71891	0.07688
3475.43314	0.07770
3474.14737	0.07814
3472.86160	0.07816
3471.57583	0.07793
3470.29006	0.07765
3469.00429	0.07747
3467.71853	0.07757
3466.43276	0.07797
3465.14699	0.07849
3463.86122	0.07884
3462.57545	0.07888
3461.28968	0.07874
3460.00391	0.07868
3458.71814	0.07874
3457.43238	0.07875
3456.14661	0.07863
3454.86084	0.07859
3453.57507	0.07890
3452.28930	0.07945
3451.00353	0.07983
3449.71776	0.07984
3448.43199	0.07970
3447.14622	0.07970
3445.86046	0.07985
3444.57469	0.08002
3443.28892	0.08027
3442.00315	0.08082
3440.71738	0.08162
3439.43161	0.08233
3438.14584	0.08273
3436.86007	0.08296
3435.57431	0.08329
3434.28854	0.08376
3433.00277	0.08414
3431.71700	0.08426
3430.43123	0.08410
3429.14546	0.08376
3427.85969	0.08336
3426.57392	0.08306
3425.28815	0.08296
3424.00239	0.08302
3422.71662	0.08317
3421.43085	0.08338
3420.14508	0.08364
3418.85931	0.08381
3417.57354	0.08361
3416.28777	0.08296
3415.00200	0.08227
3413.71624	0.08216
3412.43047	0.08289
3411.14470	0.08407
3409.85893	0.08510
3408.57316	0.08566
3407.28739	0.08583
3406.00162	0.08580
3404.71585	0.08567
3403.43008	0.08551
3402.14432	0.08530
3400.85855	0.08498
3399.57278	0.08443
3398.28701	0.08377
3397.00124	0.08338
3395.71547	0.08356
3394.42970	0.08415
3393.14393	0.08481
3391.85817	0.08539
3390.57240	0.08604
3389.28663	0.08679
3388.00086	0.08733
3386.71509	0.08738
3385.42932	0.08702
3384.14355	0.08663
3382.85778	0.08646
3381.57201	0.08644
3380.28625	0.08639
3379.00048	0.08624
3377.71471	0.08596
3376.42894	0.08554
3375.14317	0.08499
3373.85740	0.08445
3372.57163	0.08408
3371.28586	0.08395
3370.00010	0.08406
3368.71433	0.08441
3367.42856	0.08499
3366.14279	0.08576
3364.85702	0.08661
3363.57125	0.08742
3362.28548	0.08796
3360.99971	0.08808
3359.71394	0.08791
3358.42818	0.08775
3357.14241	0.08770
3355.85664	0.08766
3354.57087	0.08756
3353.28510	0.08758
3351.99933	0.08794
3350.71356	0.08859
3349.42779	0.08919
3348.14202	0.08935
3346.85626	0.08888
3345.57049	0.08786
3344.28472	0.08661
3342.99895	0.08561
3341.71318	0.08523
3340.42741	0.08547
3339.14164	0.08597
3337.85587	0.08638
3336.57011	0.08660
3335.28434	0.08676
3333.99857	0.08690
3332.71280	0.08687
3331.42703	0.08657
3330.14126	0.08613
3328.85549	0.08583
3327.56972	0.08588
3326.28395	0.08619
3324.99819	0.08647
3323.71242	0.08650
3322.42665	0.08634
3321.14088	0.08622
3319.85511	0.08625
3318.56934	0.08637
3317.28357	0.08644
3315.99780	0.08642
3314.71204	0.08639
3313.42627	0.08643
3312.14050	0.08646
3310.85473	0.08633
3309.56896	0.08606
3308.28319	0.08586
3306.99742	0.08599
3305.71165	0.08643
3304.42588	0.08689
3303.14012	0.08705
3301.85435	0.08680
3300.56858	0.08625
3299.28281	0.08572
3297.99704	0.08554
3296.71127	0.08576
3295.42550	0.08619
3294.13973	0.08652
3292.85397	0.08667
3291.56820	0.08674
3290.28243	0.08684
3288.99666	0.08689
3287.71089	0.08673
3286.42512	0.08632
3285.13935	0.08577
3283.85358	0.08532
3282.56781	0.08512
3281.28205	0.08512
3279.99628	0.08512
3278.71051	0.08505
3277.42474	0.08504
3276.13897	0.08524
3274.85320	0.08557
3273.56743	0.08574
3272.28166	0.08568
3270.99590	0.08562
3269.71013	0.08579
3268.42436	0.08619
3267.13859	0.08654
3265.85282	0.08658
3264.56705	0.08627
3263.28128	0.08563
3261.99551	0.08474
3260.70974	0.08376
3259.42398	0.08299
3258.13821	0.08268
3256.85244	0.08286
3255.56667	0.08340
3254.28090	0.08405
3252.99513	0.08454
3251.70936	0.08467
3250.42359	0.08453
3249.13783	0.08440
3247.85206	0.08442
3246.56629	0.08445
3245.28052	0.08426
3243.99475	0.08376
3242.70898	0.08307
3241.42321	0.08254
3240.13744	0.08256
3238.85167	0.08317
3237.56591	0.08386
3236.28014	0.08391
3234.99437	0.08311
3233.70860	0.08193
3232.42283	0.08112
3231.13706	0.08104
3229.85129	0.08145
3228.56552	0.08187
3227.27976	0.08194
3225.99399	0.08165
3224.70822	0.08125
3223.42245	0.08105
3222.13668	0.08126
3220.85091	0.08183
3219.56514	0.08244
3218.27937	0.08277
3216.99360	0.08274
3215.70784	0.08249
3214.42207	0.08221
3213.13630	0.08202
3211.85053	0.08199
3210.56476	0.08213
3209.27899	0.08234
3207.99322	0.08250
3206.70745	0.08254
3205.42169	0.08244
3204.13592	0.08217
3202.85015	0.08166
3201.56438	0.08091
3200.27861	0.08011
3198.99284	0.07955
3197.70707	0.07942
3196.42130	0.07967
3195.13553	0.07995
3193.84977	0.07993
3192.56400	0.07954
3191.27823	0.07911
3189.99246	0.07903
3188.70669	0.07933
3187.42092	0.07972
3186.13515	0.07991
3184.84938	0.07989
3183.56362	0.07980
3182.27785	0.07961
3180.99208	0.07921
3179.70631	0.07863
3178.42054	0.07814
3177.13477	0.07788
3175.84900	0.07777
3174.56323	0.07764
3173.27746	0.07747
3171.99170	0.07743
3170.70593	0.07759
3169.42016	0.07783
3168.13439	0.07795
3166.84862	0.07785
3165.56285	0.07751
3164.27708	0.07705
3162.99131	0.07668
3161.70555	0.07658
3160.41978	0.07676
3159.13401	0.07703
3157.84824	0.07718
3156.56247	0.07722
3155.27670	0.07729
3153.99093	0.07738
3152.70516	0.07731
3151.41939	0.07698
3150.13363	0.07652
3148.84786	0.07613
3147.56209	0.07586
3146.27632	0.07563
3144.99055	0.07542
3143.70478	0.07528
3142.41901	0.07521
3141.13324	0.07513
3139.84748	0.07502
3138.56171	0.07497
3137.27594	0.07501
3135.99017	0.07503
3134.70440	0.07489
3133.41863	0.07454
3132.13286	0.07411
3130.84709	0.07383
3129.56132	0.07376
3128.27556	0.07381
3126.98979	0.07384
3125.70402	0.07387
3124.41825	0.07396
3123.13248	0.07409
3121.84671	0.07405
3120.56094	0.07371
3119.27517	0.07323
3117.98940	0.07287
3116.70364	0.07276
3115.41787	0.07283
3114.13210	0.07297
3112.84633	0.07315
3111.56056	0.07336
3110.27479	0.07351
3108.98902	0.07345
3107.70325	0.07307
3106.41749	0.07245
3105.13172	0.07184
3103.84595	0.07147
3102.56018	0.07129
3101.27441	0.07115
3099.98864	0.07097
3098.70287	0.07079
3097.41710	0.07066
3096.13133	0.07051
3094.84557	0.07030
3093.55980	0.07011
3092.27403	0.07015
3090.98826	0.07045
3089.70249	0.07081
3088.41672	0.07097
3087.13095	0.07087
3085.84518	0.07071
3084.55942	0.07067
3083.27365	0.07067
3081.98788	0.07057
3080.70211	0.07040
3079.41634	0.07035
3078.13057	0.07056
3076.84480	0.07098
3075.55903	0.07139
3074.27326	0.07159
3072.98750	0.07140
3071.70173	0.07086
3070.41596	0.07021
3069.13019	0.06977
3067.84442	0.06961
3066.55865	0.06961
3065.27288	0.06961
3063.98711	0.06964
3062.70135	0.06977
3061.41558	0.06997
3060.12981	0.07015
3058.84404	0.07020
3057.55827	0.07012
3056.27250	0.06988
3054.98673	0.06954
3053.70096	0.06919
3052.41519	0.06900
3051.12943	0.06909
3049.84366	0.06938
3048.55789	0.06966
3047.27212	0.06966
3045.98635	0.06929
3044.70058	0.06868
3043.41481	0.06809
3042.12904	0.06777
3040.84328	0.06778
3039.55751	0.06798
3038.27174	0.06816
3036.98597	0.06819
3035.70020	0.06807
3034.41443	0.06787
3033.12866	0.06765
3031.84289	0.06746
3030.55712	0.06729
3029.27136	0.06713
3027.98559	0.06695
3026.69982	0.06667
3025.41405	0.06630
3024.12828	0.06592
3022.84251	0.06571
3021.55674	0.06574
3020.27097	0.06587
3018.98521	0.06587
3017.69944	0.06559
3016.41367	0.06510
3015.12790	0.06460
3013.84213	0.06427
3012.55636	0.06420
3011.27059	0.06434
3009.98482	0.06452
3008.69905	0.06457
3007.41329	0.06447
3006.12752	0.06429
3004.84175	0.06412
3003.55598	0.06400
3002.27021	0.06388
3000.98444	0.06374
2999.69867	0.06359
2998.41290	0.06347
2997.12714	0.06347
2995.84137	0.06366
2994.55560	0.06399
2993.26983	0.06422
2991.98406	0.06415
2990.69829	0.06387
2989.41252	0.06361
2988.12675	0.06353
2986.84098	0.06361
2985.55522	0.06381
2984.26945	0.06419
2982.98368	0.06471
2981.69791	0.06523
2980.41214	0.06565
2979.12637	0.06603
2977.84060	0.06642
2976.55483	0.06681
2975.26907	0.06714
2973.98330	0.06749
2972.69753	0.06805
2971.41176	0.06892
2970.12599	0.06992
2968.84022	0.07081
2967.55445	0.07154
2966.26868	0.07232
2964.98291	0.07336
2963.69715	0.07462
2962.41138	0.07587
2961.12561	0.07690
2959.83984	0.07769
2958.55407	0.07835
2957.26830	0.07898
2955.98253	0.07958
2954.69676	0.08003
2953.41100	0.08021
2952.12523	0.08012
2950.83946	0.07992
2949.55369	0.07979
2948.26792	0.07985
2946.98215	0.08005
2945.69638	0.08030
2944.41061	0.08050
2943.12484	0.08057
2941.83908	0.08048
2940.55331	0.08036
2939.26754	0.08053
2937.98177	0.08124
2936.69600	0.08240
2935.41023	0.08358
2934.12446	0.08443
2932.83869	0.08494
2931.55293	0.08534
2930.26716	0.08587
2928.98139	0.08660
2927.69562	0.08745
2926.40985	0.08825
2925.12408	0.08880
2923.83831	0.08899
2922.55254	0.08879
2921.26677	0.08838
2919.98101	0.08803
2918.69524	0.08789
2917.40947	0.08779
2916.12370	0.08738
2914.83793	0.08660
2913.55216	0.08569
2912.26639	0.08485
2910.98062	0.08394
2909.69486	0.08275
2908.40909	0.08138
2907.12332	0.08022
2905.83755	0.07958
2904.55178	0.07935
2903.26601	0.07923
2901.98024	0.07899
2900.69447	0.07861
2899.40870	0.07814
2898.12294	0.07755
2896.83717	0.07686
2895.55140	0.07611
2894.26563	0.07540
2892.97986	0.07482
2891.69409	0.07439
2890.40832	0.07407
2889.12255	0.07370
2887.83678	0.07319
2886.55102	0.07257
2885.26525	0.07205
2883.97948	0.07176
2882.69371	0.07167
2881.40794	0.07163
2880.12217	0.07153
2878.83640	0.07140
2877.55063	0.07131
2876.26487	0.07137
2874.97910	0.07165
2873.69333	0.07213
2872.40756	0.07266
2871.12179	0.07300
2869.83602	0.07301
2868.55025	0.07277
2867.26448	0.07250
2865.97871	0.07245
2864.69295	0.07273
2863.40718	0.07321
2862.12141	0.07359
2860.83564	0.07372
2859.54987	0.07363
2858.26410	0.07346
2856.97833	0.07326
2855.69256	0.07305
2854.40680	0.07286
2853.12103	0.07274
2851.83526	0.07260
2850.54949	0.07231
2849.26372	0.07176
2847.97795	0.07102
2846.69218	0.07020
2845.40641	0.06942
2844.12064	0.06870
2842.83488	0.06797
2841.54911	0.06715
2840.26334	0.06621
2838.97757	0.06522
2837.69180	0.06437
2836.40603	0.06379
2835.12026	0.06346
2833.83449	0.06317
2832.54873	0.06272
2831.26296	0.06207
2829.97719	0.06140
2828.69142	0.06087
2827.40565	0.06049
2826.11988	0.06015
2824.83411	0.05969
2823.54834	0.05908
2822.26257	0.05841
2820.97681	0.05794
2819.69104	0.05782
2818.40527	0.05791
2817.11950	0.05792
2815.83373	0.05771
2814.54796	0.05740
2813.26219	0.05713
2811.97642	0.05688
2810.69066	0.05655
2809.40489	0.05615
2808.11912	0.05577
2806.83335	0.05554
2805.54758	0.05545
2804.26181	0.05547
2802.97604	0.05552
2801.69027	0.05557
2800.40450	0.05556
2799.11874	0.05544
2797.83297	0.05517
2796.54720	0.05479
2795.26143	0.05439
2793.97566	0.05412
2792.68989	0.05404
2791.40412	0.05410
2790.11835	0.05414
2788.83259	0.05400
2787.54682	0.05372
2786.26105	0.05349
2784.97528	0.05349
2783.68951	0.05372
2782.40374	0.05393
2781.11797	0.05393
2779.83220	0.05374
2778.54643	0.05353
2777.26067	0.05340
2775.97490	0.05325
2774.68913	0.05299
2773.40336	0.05271
2772.11759	0.05256
2770.83182	0.05260
2769.54605	0.05271
2768.26028	0.05278
2766.97452	0.05273
2765.68875	0.05251
2764.40298	0.05211
2763.11721	0.05162
2761.83144	0.05122
2760.54567	0.05109
2759.25990	0.05129
2757.97413	0.05168
2756.68836	0.05210
2755.40260	0.05242
2754.11683	0.05256
2752.83106	0.05250
2751.54529	0.05234
2750.25952	0.05225
2748.97375	0.05227
2747.68798	0.05226
2746.40221	0.05205
2745.11645	0.05165
2743.83068	0.05125
2742.54491	0.05106
2741.25914	0.05106
2739.97337	0.05111
2738.68760	0.05110
2737.40183	0.05103
2736.11606	0.05094
2734.83029	0.05082
2733.54453	0.05063
2732.25876	0.05034
2730.97299	0.05006
2729.68722	0.04998
2728.40145	0.05024
2727.11568	0.05069
2725.82991	0.05095
2724.54414	0.05076
2723.25838	0.05023
2721.97261	0.04968
2720.68684	0.04935
2719.40107	0.04926
2718.11530	0.04924
2716.82953	0.04913
2715.54376	0.04889
2714.25799	0.04867
2712.97222	0.04862
2711.68646	0.04874
2710.40069	0.04892
2709.11492	0.04906
2707.82915	0.04915
2706.54338	0.04916
2705.25761	0.04910
2703.97184	0.04902
2702.68607	0.04895
2701.40031	0.04885
2700.11454	0.04864
2698.82877	0.04834
2697.54300	0.04805
2696.25723	0.04787
2694.97146	0.04785
2693.68569	0.04795
2692.39992	0.04806
2691.11415	0.04807
2689.82839	0.04797
2688.54262	0.04776
2687.25685	0.04750
2685.97108	0.04720
2684.68531	0.04696
2683.39954	0.04686
2682.11377	0.04692
2680.82800	0.04705
2679.54224	0.04715
2678.25647	0.04723
2676.97070	0.04736
2675.68493	0.04756
2674.39916	0.04768
2673.11339	0.04759
2671.82762	0.04731
2670.54185	0.04705
2669.25608	0.04692
2667.97032	0.04685
2666.68455	0.04677
2665.39878	0.04674
2664.11301	0.04682
2662.82724	0.04691
2661.54147	0.04682
2660.25570	0.04648
2658.96993	0.04591
2657.68417	0.04531
2656.39840	0.04488
2655.11263	0.04474
2653.82686	0.04472
2652.54109	0.04460
2651.25532	0.04433
2649.96955	0.04412
2648.68378	0.04410
2647.39801	0.04416
2646.11225	0.04414
2644.82648	0.04405
2643.54071	0.04400
2642.25494	0.04397
2640.96917	0.04376
2639.68340	0.04332
2638.39763	0.04282
2637.11186	0.04252
2635.82609	0.04254
2634.54033	0.04273
2633.25456	0.04280
2631.96879	0.04262
2630.68302	0.04223
2629.39725	0.04182
2628.11148	0.04149
2626.82571	0.04124
2625.53994	0.04109
2624.25418	0.04110
2622.96841	0.04133
2621.68264	0.04156
2620.39687	0.04147
2619.11110	0.04095
2617.82533	0.04038
2616.53956	0.04017
2615.25379	0.04032
2613.96802	0.04043
2612.68226	0.04023
2611.39649	0.03986
2610.11072	0.03954
2608.82495	0.03922
2607.53918	0.03868
2606.25341	0.03793
2604.96764	0.03721
2603.68187	0.03682
2602.39611	0.03684
2601.11034	0.03718
2599.82457	0.03767
2598.53880	0.03813
2597.25303	0.03844
2595.96726	0.03857
2594.68149	0.03855
2593.39572	0.03843
2592.10995	0.03816
2590.82419	0.03776
2589.53842	0.03748
2588.25265	0.03761
2586.96688	0.03811
2585.68111	0.03855
2584.39534	0.03852
2583.10957	0.03806
2581.82380	0.03757
2580.53804	0.03734
2579.25227	0.03728
2577.96650	0.03708
2576.68073	0.03663
2575.39496	0.03619
2574.10919	0.03604
2572.82342	0.03619
2571.53765	0.03639
2570.25188	0.03642
2568.96612	0.03628
2567.68035	0.03613
2566.39458	0.03616
2565.10881	0.03642
2563.82304	0.03669
2562.53727	0.03663
2561.25150	0.03619
2559.96573	0.03562
2558.67997	0.03521
2557.39420	0.03504
2556.10843	0.03504
2554.82266	0.03513
2553.53689	0.03528
2552.25112	0.03551
2550.96535	0.03577
2549.67958	0.03591
2548.39381	0.03581
2547.10805	0.03555
2545.82228	0.03531
2544.53651	0.03518
2543.25074	0.03509
2541.96497	0.03504
2540.67920	0.03519
2539.39343	0.03561
2538.10766	0.03610
2536.82190	0.03636
2535.53613	0.03627
2534.25036	0.03602
2532.96459	0.03581
2531.67882	0.03571
2530.39305	0.03568
2529.10728	0.03576
2527.82151	0.03595
2526.53574	0.03614
2525.24998	0.03609
2523.96421	0.03571
2522.67844	0.03515
2521.39267	0.03475
2520.10690	0.03475
2518.82113	0.03503
2517.53536	0.03527
2516.24959	0.03522
2514.96383	0.03490
2513.67806	0.03446
2512.39229	0.03402
2511.10652	0.03368
2509.82075	0.03353
2508.53498	0.03368
2507.24921	0.03415
2505.96344	0.03476
2504.67767	0.03521
2503.39191	0.03530
2502.10614	0.03508
2500.82037	0.03481
2499.53460	0.03462
2498.24883	0.03444
2496.96306	0.03425
2495.67729	0.03414
2494.39152	0.03423
2493.10576	0.03440
2491.81999	0.03449
2490.53422	0.03447
2489.24845	0.03443
2487.96268	0.03437
2486.67691	0.03419
2485.39114	0.03390
2484.10537	0.03367
2482.81960	0.03375
2481.53384	0.03408
2480.24807	0.03432
2478.96230	0.03413
2477.67653	0.03361
2476.39076	0.03317
2475.10499	0.03312
2473.81922	0.03340
2472.53345	0.03381
2471.24769	0.03416
2469.96192	0.03431
2468.67615	0.03416
2467.39038	0.03375
2466.10461	0.03329
2464.81884	0.03309
2463.53307	0.03330
2462.24730	0.03382
2460.96153	0.03429
2459.67577	0.03442
2458.39000	0.03423
2457.10423	0.03394
2455.81846	0.03371
2454.53269	0.03356
2453.24692	0.03341
2451.96115	0.03315
2450.67538	0.03274
2449.38962	0.03230
2448.10385	0.03201
2446.81808	0.03197
2445.53231	0.03215
2444.24654	0.03241
2442.96077	0.03260
2441.67500	0.03258
2440.38923	0.03238
2439.10346	0.03221
2437.81770	0.03227
2436.53193	0.03254
2435.24616	0.03284
2433.96039	0.03299
2432.67462	0.03290
2431.38885	0.03264
2430.10308	0.03227
2428.81731	0.03185
2427.53155	0.03141
2426.24578	0.03112
2424.96001	0.03119
2423.67424	0.03169
2422.38847	0.03241
2421.10270	0.03297
2419.81693	0.03308
2418.53116	0.03275
2417.24539	0.03230
2415.95963	0.03206
2414.67386	0.03212
2413.38809	0.03237
2412.10232	0.03260
2410.81655	0.03266
2409.53078	0.03252
2408.24501	0.03224
2406.95924	0.03197
2405.67347	0.03186
2404.38771	0.03200
2403.10194	0.03240
2401.81617	0.03290
2400.53040	0.03327
2399.24463	0.03352
2397.95886	0.03338
2396.67309	0.03295
2395.38732	0.03245
2394.10156	0.03208
2392.81579	0.03191
2391.53002	0.03185
2390.24425	0.03177
2388.95848	0.03165
2387.67271	0.03153
2386.38694	0.03148
2385.10117	0.03149
2383.81540	0.03152
2382.52964	0.03150
2381.24387	0.03134
2379.95810	0.03095
2378.67233	0.03034
2377.38656	0.02965
2376.10079	0.02900
2374.81502	0.02849
2373.52925	0.02813
2372.24349	0.02795
2370.95772	0.02803
2369.67195	0.02837
2368.38618	0.02877
2367.10041	0.02899
2365.81464	0.02895
2364.52887	0.02877
2363.24310	0.02870
2361.95733	0.02884
2360.67157	0.02916
2359.38580	0.02958
2358.10003	0.03005
2356.81426	0.03058
2355.52849	0.03113
2354.24272	0.03159
2352.95695	0.03178
2351.67118	0.03155
2350.38542	0.03088
2349.09965	0.02997
2347.81388	0.02917
2346.52811	0.02879
2345.24234	0.02891
2343.95657	0.02935
2342.67080	0.02981
2341.38503	0.03002
2340.09926	0.02988
2338.81350	0.02953
2337.52773	0.02914
2336.24196	0.02886
2334.95619	0.02870
2333.67042	0.02863
2332.38465	0.02860
2331.09888	0.02853
2329.81311	0.02838
2328.52735	0.02816
2327.24158	0.02800
2325.95581	0.02799
2324.67004	0.02823
2323.38427	0.02868
2322.09850	0.02926
2320.81273	0.02988
2319.52696	0.03046
2318.24119	0.03095
2316.95543	0.03124
2315.66966	0.03124
2314.38389	0.03095
2313.09812	0.03054
2311.81235	0.03019
2310.52658	0.03001
2309.24081	0.02994
2307.95504	0.02985
2306.66928	0.02963
2305.38351	0.02929
2304.09774	0.02895
2302.81197	0.02870
2301.52620	0.02865
2300.24043	0.02881
2298.95466	0.02905
2297.66889	0.02913
2296.38312	0.02891
2295.09736	0.02844
2293.81159	0.02792
2292.52582	0.02753
2291.24005	0.02741
2289.95428	0.02752
2288.66851	0.02770
2287.38274	0.02774
2286.09697	0.02764
2284.81121	0.02756
2283.52544	0.02757
2282.23967	0.02755
2280.95390	0.02734
2279.66813	0.02696
2278.38236	0.02656
2277.09659	0.02622
2275.81082	0.02586
2274.52505	0.02540
2273.23929	0.02485
2271.95352	0.02432
2270.66775	0.02394
2269.38198	0.02377
2268.09621	0.02377
2266.81044	0.02387
2265.52467	0.02399
2264.23890	0.02411
2262.95314	0.02427
2261.66737	0.02446
2260.38160	0.02460
2259.09583	0.02463
2257.81006	0.02462
2256.52429	0.02469
2255.23852	0.02480
2253.95275	0.02479
2252.66698	0.02447
2251.38122	0.02384
2250.09545	0.02322
2248.80968	0.02293
2247.52391	0.02227
2246.23814	0.02177
2244.95237	0.02146
2243.66660	0.02134
2242.38083	0.02140
2241.09507	0.02160
2239.80930	0.02180
2238.52353	0.02184
2237.23776	0.02167
2235.95199	0.02147
2234.66622	0.02144
2233.38045	0.02154
2232.09468	0.02157
2230.80891	0.02136
2229.52315	0.02084
2228.23738	0.02017
2226.95161	0.01973
2225.66584	0.01980
2224.38007	0.02029
2223.09430	0.02078
2221.80853	0.02106
2220.52276	0.02116
2219.23700	0.02103
2217.95123	0.02040
2216.66546	0.01918
2215.37969	0.01774
2214.09392	0.01671
2212.80815	0.01659
2211.52238	0.01732
2210.23661	0.01832
2208.95084	0.01890
2207.66508	0.01890
2206.37931	0.01864
2205.09354	0.01835
2203.80777	0.01797
2202.52200	0.01747
2201.23623	0.01714
2199.95046	0.01723
2198.66469	0.01755
2197.37893	0.01766
2196.09316	0.01726
2194.80739	0.01637
2193.52162	0.01530
2192.23585	0.01465
2190.95008	0.01502
2189.66431	0.01637
2188.37854	0.01775
2187.09277	0.01801
2185.80701	0.01690
2184.52124	0.01528
2183.23547	0.01436
2181.94970	0.01458
2180.66393	0.01531
2179.37816	0.01552
2178.09239	0.01475
2176.80662	0.01345
2175.52085	0.01250
2174.23509	0.01243
2172.94932	0.01303
2171.66355	0.01356
2170.37778	0.01345
2169.09201	0.01277
2167.80624	0.01225
2166.52047	0.01258
2165.23470	0.01363
2163.94894	0.01440
2162.66317	0.01397
2161.37740	0.01239
2160.09163	0.01065
2158.80586	0.00990
2157.52009	0.01064
2156.23432	0.01237
2154.94855	0.01399
2153.66278	0.01473
2152.37702	0.01465
2151.09125	0.01433
2149.80548	0.01408
2148.51971	0.01375
2147.23394	0.01336
2145.94817	0.01330
2144.66240	0.01390
2143.37663	0.01491
2142.09087	0.01593
2140.80510	0.01682
2139.51933	0.01761
2138.23356	0.01814
2136.94779	0.01813
2135.66202	0.01755
2134.37625	0.01681
2133.09048	0.01644
2131.80471	0.01674
2130.51895	0.01748
2129.23318	0.01816
2127.94741	0.01844
2126.66164	0.01847
2125.37587	0.01863
2124.09010	0.01905
2122.80433	0.01950
2121.51856	0.01966
2120.23280	0.01959
2118.94703	0.01957
2117.66126	0.01972
2116.37549	0.01990
2115.08972	0.01993
2113.80395	0.01984
2112.51818	0.01976
2111.23241	0.01969
2109.94664	0.01953
2108.66088	0.01918
2107.37511	0.01860
2106.08934	0.01787
2104.80357	0.01711
2103.51780	0.01645
2102.23203	0.01598
2100.94626	0.01573
2099.66049	0.01528
2098.37473	0.01546
2097.08896	0.01613
2095.80319	0.01685
2094.51742	0.01732
2093.23165	0.01742
2091.94588	0.01714
2090.66011	0.01664
2089.37434	0.01620
2088.08857	0.01607
2086.80281	0.01629
2085.51704	0.01660
2084.23127	0.01664
2082.94550	0.01624
2081.65973	0.01564
2080.37396	0.01521
2079.08819	0.01510
2077.80242	0.01504
2076.51666	0.01463
2075.23089	0.01382
2073.94512	0.01299
2072.65935	0.01263
2071.37358	0.01294
2070.08781	0.01378
2068.80204	0.01469
2067.51627	0.01510
2066.23050	0.01469
2064.94474	0.01363
2063.65897	0.01246
2062.37320	0.01168
2061.08743	0.01144
2059.80166	0.01162
2058.51589	0.01198
2057.23012	0.01229
2055.94435	0.01240
2054.65859	0.01228
2053.37282	0.01189
2052.08705	0.01119
2050.80128	0.01024
2049.51551	0.00929
2048.22974	0.00864
2046.94397	0.00830
2045.65820	0.00801
2044.37243	0.00750
2043.08667	0.00681
2041.80090	0.00622
2040.51513	0.00614
2039.22936	0.00677
2037.94359	0.00787
2036.65782	0.00876
2035.37205	0.00875
2034.08628	0.00778
2032.80052	0.00657
2031.51475	0.00591
2030.22898	0.00601
2028.94321	0.00647
2027.65744	0.00685
2026.37167	0.00700
2025.08590	0.00699
2023.80013	0.00693
2022.51436	0.00690
2021.22860	0.00694
2019.94283	0.00693
2018.65706	0.00674
2017.37129	0.00652
2016.08552	0.00663
2014.79975	0.00715
2013.51398	0.00759
2012.22821	0.00745
2010.94245	0.00693
2009.65668	0.00679
2008.37091	0.00755
2007.08514	0.00888
2005.79937	0.00997
2004.51360	0.01033
2003.22783	0.01020
2001.94206	0.01026
2000.65629	0.01088
1999.37053	0.01180
1998.08476	0.01235
1996.79899	0.01214
1995.51322	0.01139
1994.22745	0.01063
1992.94168	0.01018
1991.65591	0.01003
1990.37014	0.01011
1989.08438	0.01031
1987.79861	0.01046
1986.51284	0.01038
1985.22707	0.01012
1983.94130	0.00985
1982.65553	0.00955
1981.36976	0.00906
1980.08399	0.00843
1978.79822	0.00800
1977.51246	0.00799
1976.22669	0.00827
1974.94092	0.00860
1973.65515	0.00896
1972.36938	0.00952
1971.08361	0.01032
1969.79784	0.01126
1968.51207	0.01215
1967.22631	0.01281
1965.94054	0.01323
1964.65477	0.01348
1963.36900	0.01365
1962.08323	0.01380
1960.79746	0.01401
1959.51169	0.01447
1958.22592	0.01520
1956.94015	0.01604
1955.65439	0.01668
1954.36862	0.01692
1953.08285	0.01679
1951.79708	0.01646
1950.51131	0.01614
1949.22554	0.01609
1947.93977	0.01644
1946.65400	0.01708
1945.36823	0.01770
1944.08247	0.01794
1942.79670	0.01771
1941.51093	0.01715
1940.22516	0.01648
1938.93939	0.01583
1937.65362	0.01529
1936.36785	0.01501
1935.08208	0.01518
1933.79632	0.01577
1932.51055	0.01639
1931.22478	0.01663
1929.93901	0.01651
1928.65324	0.01642
1927.36747	0.01670
1926.08170	0.01733
1924.79593	0.01802
1923.51016	0.01853
1922.22440	0.01877
1920.93863	0.01874
1919.65286	0.01849
1918.36709	0.01810
1917.08132	0.01765
1915.79555	0.01726
1914.50978	0.01701
1913.22401	0.01691
1911.93825	0.01691
1910.65248	0.01693
1909.36671	0.01692
1908.08094	0.01691
1906.79517	0.01700
1905.50940	0.01727
1904.22363	0.01767
1902.93786	0.01797
1901.65209	0.01806
1900.36633	0.01799
1899.08056	0.01794
1897.79479	0.01797
1896.50902	0.01799
1895.22325	0.01793
1893.93748	0.01784
1892.65171	0.01787
1891.36594	0.01805
1890.08018	0.01827
1888.79441	0.01839
1887.50864	0.01844
1886.22287	0.01846
1884.93710	0.01842
1883.65133	0.01827
1882.36556	0.01802
1881.07979	0.01777
1879.79402	0.01759
1878.50826	0.01752
1877.22249	0.01757
1875.93672	0.01772
1874.65095	0.01796
1873.36518	0.01824
1872.07941	0.01849
1870.79364	0.01861
1869.50787	0.01856
1868.22211	0.01846
1866.93634	0.01843
1865.65057	0.01852
1864.36480	0.01858
1863.07903	0.01845
1861.79326	0.01813
1860.50749	0.01782
1859.22172	0.01774
1857.93595	0.01792
1856.65019	0.01820
1855.36442	0.01839
1854.07865	0.01846
1852.79288	0.01849
1851.50711	0.01852
1850.22134	0.01851
1848.93557	0.01843
1847.64980	0.01833
1846.36404	0.01824
1845.07827	0.01812
1843.79250	0.01792
1842.50673	0.01775
1841.22096	0.01777
1839.93519	0.01805
1838.64942	0.01841
1837.36365	0.01869
1836.07788	0.01884
1834.79212	0.01896
1833.50635	0.01909
1832.22058	0.01926
1830.93481	0.01942
1829.64904	0.01946
1828.36327	0.01933
1827.07750	0.01910
1825.79173	0.01886
1824.50597	0.01868
1823.22020	0.01855
1821.93443	0.01848
1820.64866	0.01845
1819.36289	0.01846
1818.07712	0.01853
1816.79135	0.01867
1815.50558	0.01885
1814.21981	0.01901
1812.93405	0.01913
1811.64828	0.01918
1810.36251	0.01918
1809.07674	0.01916
1807.79097	0.01910
1806.50520	0.01904
1805.21943	0.01901
1803.93366	0.01907
1802.64790	0.01917
1801.36213	0.01923
1800.07636	0.01918
1798.79059	0.01906
1797.50482	0.01893
1796.21905	0.01885
1794.93328	0.01888
1793.64751	0.01904
1792.36174	0.01922
1791.07598	0.01932
1789.79021	0.01934
1788.50444	0.01937
1787.21867	0.01944
1785.93290	0.01947
1784.64713	0.01940
1783.36136	0.01927
1782.07559	0.01920
1780.78983	0.01925
1779.50406	0.01933
1778.21829	0.01936
1776.93252	0.01932
1775.64675	0.01927
1774.36098	0.01930
1773.07521	0.01941
1771.78944	0.01954
1770.50367	0.01965
1769.21791	0.01974
1767.93214	0.01980
1766.64637	0.01979
1765.36060	0.01972
1764.07483	0.01965
1762.78906	0.01961
1761.50329	0.01959
1760.21752	0.01955
1758.93176	0.01954
1757.64599	0.01955
1756.36022	0.01956
1755.07445	0.01958
1753.78868	0.01965
1752.50291	0.01978
1751.21714	0.01987
1749.93137	0.01985
1748.64560	0.01974
1747.35984	0.01965
1746.07407	0.01963
1744.78830	0.01964
1743.50253	0.01965
1742.21676	0.01966
1740.93099	0.01969
1739.64522	0.01972
1738.35945	0.01969
1737.07369	0.01966
1735.78792	0.01977
1734.50215	0.02002
1733.21638	0.02030
1731.93061	0.02052
1730.64484	0.02067
1729.35907	0.02072
1728.07330	0.02069
1726.78753	0.02066
1725.50177	0.02067
1724.21600	0.02074
1722.93023	0.02079
1721.64446	0.02081
1720.35869	0.02087
1719.07292	0.02103
1717.78715	0.02128
1716.50138	0.02154
1715.21561	0.02180
1713.92985	0.02206
1712.64408	0.02235
1711.35831	0.02271
1710.07254	0.02313
1708.78677	0.02360
1707.50100	0.02412
1706.21523	0.02464
1704.92946	0.02511
1703.64370	0.02558
1702.35793	0.02617
1701.07216	0.02684
1699.78639	0.02744
1698.50062	0.02797
1697.21485	0.02857
1695.92908	0.02925
1694.64331	0.02992
1693.35754	0.03057
1692.07178	0.03130
1690.78601	0.03210
1689.50024	0.03283
1688.21447	0.03345
1686.92870	0.03407
1685.64293	0.03484
1684.35716	0.03570
1683.07139	0.03651
1681.78563	0.03717
1680.49986	0.03773
1679.21409	0.03825
1677.92832	0.03885
1676.64255	0.03957
1675.35678	0.04032
1674.07101	0.04098
1672.78524	0.04156
1671.49947	0.04217
1670.21371	0.04284
1668.92794	0.04353
1667.64217	0.04419
1666.35640	0.04484
1665.07063	0.04553
1663.78486	0.04625
1662.49909	0.04692
1661.21332	0.04748
1659.92756	0.04794
1658.64179	0.04830
1657.35602	0.04859
1656.07025	0.04887
1654.78448	0.04930
1653.49871	0.04985
1652.21294	0.05032
1650.92717	0.05057
1649.64140	0.05064
1648.35564	0.05070
1647.06987	0.05080
1645.78410	0.05094
1644.49833	0.05110
1643.21256	0.05124
1641.92679	0.05131
1640.64102	0.05123
1639.35525	0.05100
1638.06949	0.05072
1636.78372	0.05046
1635.49795	0.05020
1634.21218	0.04987
1632.92641	0.04948
1631.64064	0.04909
1630.35487	0.04869
1629.06910	0.04824
1627.78333	0.04771
1626.49757	0.04718
1625.21180	0.04670
1623.92603	0.04630
1622.64026	0.04590
1621.35449	0.04543
1620.06872	0.04494
1618.78295	0.04451
1617.49718	0.04414
1616.21142	0.04381
1614.92565	0.04348
1613.63988	0.04318
1612.35411	0.04292
1611.06834	0.04268
1609.78257	0.04245
1608.49680	0.04226
1607.21103	0.04211
1605.92526	0.04198
1604.63950	0.04185
1603.35373	0.04174
1602.06796	0.04165
1600.78219	0.04159
1599.49642	0.04153
1598.21065	0.04147
1596.92488	0.04144
1595.63911	0.04147
1594.35335	0.04155
1593.06758	0.04169
1591.78181	0.04187
1590.49604	0.04208
1589.21027	0.04231
1587.92450	0.04254
1586.63873	0.04277
1585.35296	0.04303
1584.06719	0.04339
1582.78143	0.04384
1581.49566	0.04428
1580.20989	0.04463
1578.92412	0.04491
1577.63835	0.04529
1576.35258	0.04581
1575.06681	0.04638
1573.78104	0.04692
1572.49528	0.04746
1571.20951	0.04803
1569.92374	0.04860
1568.63797	0.04912
1567.35220	0.04959
1566.06643	0.04999
1564.78066	0.05032
1563.49489	0.05056
1562.20912	0.05080
1560.92336	0.05122
1559.63759	0.05182
1558.35182	0.05245
1557.06605	0.05302
1555.78028	0.05354
1554.49451	0.05401
1553.20874	0.05443
1551.92297	0.05480
1550.63721	0.05516
1549.35144	0.05545
1548.06567	0.05568
1546.77990	0.05585
1545.49413	0.05596
1544.20836	0.05600
1542.92259	0.05601
1541.63682	0.05605
1540.35105	0.05615
1539.06529	0.05621
1537.77952	0.05619
1536.49375	0.05616
1535.20798	0.05621
1533.92221	0.05632
1532.63644	0.05645
1531.35067	0.05658
1530.06490	0.05678
1528.77914	0.05706
1527.49337	0.05740
1526.20760	0.05772
1524.92183	0.05797
1523.63606	0.05824
1522.35029	0.05865
1521.06452	0.05920
1519.77875	0.05986
1518.49298	0.06065
1517.20722	0.06156
1515.92145	0.06251
1514.63568	0.06344
1513.34991	0.06436
1512.06414	0.06525
1510.77837	0.06615
1509.49260	0.06713
1508.20683	0.06828
1506.92107	0.06953
1505.63530	0.07072
1504.34953	0.07177
1503.06376	0.07269
1501.77799	0.07354
1500.49222	0.07434
1499.20645	0.07511
1497.92068	0.07586
1496.63491	0.07655
1495.34915	0.07710
1494.06338	0.07753
1492.77761	0.07795
1491.49184	0.07849
1490.20607	0.07918
1488.92030	0.08001
1487.63453	0.08092
1486.34876	0.08185
1485.06299	0.08279
1483.77723	0.08376
1482.49146	0.08482
1481.20569	0.08595
1479.91992	0.08711
1478.63415	0.08829
1477.34838	0.08949
1476.06261	0.09072
1474.77684	0.09199
1473.49108	0.09324
1472.20531	0.09440
1470.91954	0.09538
1469.63377	0.09620
1468.34800	0.09693
1467.06223	0.09765
1465.77646	0.09837
1464.49069	0.09903
1463.20492	0.09959
1461.91916	0.10004
1460.63339	0.10051
1459.34762	0.10117
1458.06185	0.10207
1456.77608	0.10307
1455.49031	0.10397
1454.20454	0.10471
1452.91877	0.10530
1451.63301	0.10576
1450.34724	0.10609
1449.06147	0.10632
1447.77570	0.10649
1446.48993	0.10657
1445.20416	0.10653
1443.91839	0.10632
1442.63262	0.10590
1441.34685	0.10529
1440.06109	0.10460
1438.77532	0.10399
1437.48955	0.10354
1436.20378	0.10322
1434.91801	0.10303
1433.63224	0.10306
1432.34647	0.10337
1431.06070	0.10397
1429.77494	0.10477
1428.48917	0.10573
1427.20340	0.10684
1425.91763	0.10812
1424.63186	0.10953
1423.34609	0.11102
1422.06032	0.11257
1420.77455	0.11414
1419.48878	0.11563
1418.20302	0.11692
1416.91725	0.11793
1415.63148	0.11870
1414.34571	0.11929
1413.05994	0.11967
1411.77417	0.11981
1410.48840	0.11968
1409.20263	0.11929
1407.91687	0.11868
1406.63110	0.11787
1405.34533	0.11686
1404.05956	0.11562
1402.77379	0.11415
1401.48802	0.11249
1400.20225	0.11065
1398.91648	0.10864
1397.63071	0.10647
1396.34495	0.10423
1395.05918	0.10196
1393.77341	0.09971
1392.48764	0.09748
1391.20187	0.09527
1389.91610	0.09309
1388.63033	0.09096
1387.34456	0.08890
1386.05880	0.08691
1384.77303	0.08497
1383.48726	0.08304
1382.20149	0.08111
1380.91572	0.07922
1379.62995	0.07736
1378.34418	0.07550
1377.05841	0.07359
1375.77264	0.07158
1374.48688	0.06947
1373.20111	0.06727
1371.91534	0.06504
1370.62957	0.06286
1369.34380	0.06076
1368.05803	0.05879
1366.77226	0.05695
1365.48649	0.05528
1364.20073	0.05372
1362.91496	0.05225
1361.62919	0.05081
1360.34342	0.04941
1359.05765	0.04809
1357.77188	0.04689
1356.48611	0.04582
1355.20034	0.04488
1353.91457	0.04401
1352.62881	0.04320
1351.34304	0.04245
1350.05727	0.04176
1348.77150	0.04114
1347.48573	0.04055
1346.19996	0.04000
1344.91419	0.03946
1343.62842	0.03895
1342.34266	0.03845
1341.05689	0.03797
1339.77112	0.03752
1338.48535	0.03709
1337.19958	0.03667
1335.91381	0.03626
1334.62804	0.03585
1333.34227	0.03543
1332.05650	0.03499
1330.77074	0.03453
1329.48497	0.03408
1328.19920	0.03367
1326.91343	0.03334
1325.62766	0.03306
1324.34189	0.03281
1323.05612	0.03255
1321.77035	0.03228
1320.48459	0.03202
1319.19882	0.03179
1317.91305	0.03158
1316.62728	0.03134
1315.34151	0.03104
1314.05574	0.03073
1312.76997	0.03046
1311.48420	0.03024
1310.19843	0.03006
1308.91267	0.02990
1307.62690	0.02971
1306.34113	0.02949
1305.05536	0.02923
1303.76959	0.02894
1302.48382	0.02864
1301.19805	0.02837
1299.91228	0.02812
1298.62652	0.02790
1297.34075	0.02771
1296.05498	0.02759
1294.76921	0.02750
1293.48344	0.02743
1292.19767	0.02733
1290.91190	0.02722
1289.62613	0.02709
1288.34036	0.02695
1287.05460	0.02678
1285.76883	0.02660
1284.48306	0.02642
1283.19729	0.02625
1281.91152	0.02611
1280.62575	0.02601
1279.33998	0.02595
1278.05421	0.02593
1276.76845	0.02591
1275.48268	0.02587
1274.19691	0.02579
1272.91114	0.02567
1271.62537	0.02551
1270.33960	0.02534
1269.05383	0.02516
1267.76806	0.02499
1266.48229	0.02483
1265.19653	0.02471
1263.91076	0.02461
1262.62499	0.02454
1261.33922	0.02447
1260.05345	0.02438
1258.76768	0.02429
1257.48191	0.02427
1256.19614	0.02432
1254.91037	0.02439
1253.62461	0.02438
1252.33884	0.02425
1251.05307	0.02405
1249.76730	0.02389
1248.48153	0.02382
1247.19576	0.02381
1245.90999	0.02382
1244.62422	0.02378
1243.33846	0.02368
1242.05269	0.02353
1240.76692	0.02335
1239.48115	0.02321
1238.19538	0.02313
1236.90961	0.02307
1235.62384	0.02300
1234.33807	0.02288
1233.05230	0.02271
1231.76654	0.02254
1230.48077	0.02239
1229.19500	0.02225
1227.90923	0.02212
1226.62346	0.02196
1225.33769	0.02177
1224.05192	0.02156
1222.76615	0.02133
1221.48039	0.02113
1220.19462	0.02095
1218.90885	0.02081
1217.62308	0.02069
1216.33731	0.02060
1215.05154	0.02055
1213.76577	0.02048
1212.48000	0.02038
1211.19423	0.02025
1209.90847	0.02014
1208.62270	0.02006
1207.33693	0.02002
1206.05116	0.01999
1204.76539	0.01997
1203.47962	0.01993
1202.19385	0.01987
1200.90808	0.01982
1199.62232	0.01983
1198.33655	0.01977
1197.05078	0.01971
1195.76501	0.01962
1194.47924	0.01948
1193.19347	0.01929
1191.90770	0.01911
1190.62193	0.01899
1189.33616	0.01894
1188.05040	0.01892
1186.76463	0.01890
1185.47886	0.01884
1184.19309	0.01875
1182.90732	0.01867
1181.62155	0.01862
1180.33578	0.01857
1179.05001	0.01848
1177.76425	0.01839
1176.47848	0.01836
1175.19271	0.01842
1173.90694	0.01850
1172.62117	0.01855
1171.33540	0.01858
1170.04963	0.01861
1168.76386	0.01869
1167.47809	0.01885
1166.19233	0.01903
1164.90656	0.01922
1163.62079	0.01939
1162.33502	0.01956
1161.04925	0.01975
1159.76348	0.01994
1158.47771	0.02010
1157.19194	0.02025
1155.90618	0.02040
1154.62041	0.02059
1153.33464	0.02081
1152.04887	0.02109
1150.76310	0.02146
1149.47733	0.02192
1148.19156	0.02243
1146.90579	0.02293
1145.62002	0.02344
1144.33426	0.02400
1143.04849	0.02466
1141.76272	0.02545
1140.47695	0.02635
1139.19118	0.02735
1137.90541	0.02844
1136.61964	0.02963
1135.33387	0.03098
1134.04811	0.03252
1132.76234	0.03423
1131.47657	0.03608
1130.19080	0.03810
1128.90503	0.04037
1127.61926	0.04299
1126.33349	0.04591
1125.04772	0.04904
1123.76195	0.05230
1122.47619	0.05569
1121.19042	0.05922
1119.90465	0.06282
1118.61888	0.06642
1117.33311	0.07005
1116.04734	0.07376
1114.76157	0.07759
1113.47580	0.08143
1112.19004	0.08517
1110.90427	0.08881
1109.61850	0.09235
1108.33273	0.09580
1107.04696	0.09918
1105.76119	0.10254
1104.47542	0.10586
1103.18965	0.10906
1101.90388	0.11212
1100.61812	0.11506
1099.33235	0.11797
1098.04658	0.12078
1096.76081	0.12342
1095.47504	0.12589
1094.18927	0.12824
1092.90350	0.13052
1091.61773	0.13266
1090.33197	0.13464
1089.04620	0.13653
1087.76043	0.13842
1086.47466	0.14034
1085.18889	0.14228
1083.90312	0.14423
1082.61735	0.14621
1081.33158	0.14829
1080.04581	0.15052
1078.76005	0.15293
1077.47428	0.15557
1076.18851	0.15845
1074.90274	0.16151
1073.61697	0.16471
1072.33120	0.16802
1071.04543	0.17146
1069.75966	0.17498
1068.47390	0.17857
1067.18813	0.18222
1065.90236	0.18602
1064.61659	0.18998
1063.33082	0.19409
1062.04505	0.19823
1060.75928	0.20231
1059.47351	0.20634
1058.18774	0.21038
1056.90198	0.21443
1055.61621	0.21843
1054.33044	0.22233
1053.04467	0.22618
1051.75890	0.23010
1050.47313	0.23412
1049.18736	0.23819
1047.90159	0.24228
1046.61583	0.24640
1045.33006	0.25061
1044.04429	0.25495
1042.75852	0.25938
1041.47275	0.26383
1040.18698	0.26828
1038.90121	0.27276
1037.61544	0.27735
1036.32967	0.28206
1035.04391	0.28673
1033.75814	0.29118
1032.47237	0.29534
1031.18660	0.29921
1029.90083	0.30278
1028.61506	0.30604
1027.32929	0.30892
1026.04352	0.31137
1024.75775	0.31332
1023.47199	0.31475
1022.18622	0.31568
1020.90045	0.31617
1019.61468	0.31625
1018.32891	0.31588
1017.04314	0.31494
1015.75737	0.31338
1014.47160	0.31117
1013.18584	0.30831
1011.90007	0.30480
1010.61430	0.30064
1009.32853	0.29590
1008.04276	0.29063
1006.75699	0.28487
1005.47122	0.27863
1004.18545	0.27194
1002.89968	0.26489
1001.61392	0.25751
1000.32815	0.24980
999.04238	0.24180
997.75661	0.23360
996.47084	0.22531
995.18507	0.21705
993.89930	0.20890
992.61353	0.20091
991.32777	0.19315
990.04200	0.18568
988.75623	0.17852
987.47046	0.17165
986.18469	0.16505
984.89892	0.15873
983.61315	0.15275
982.32738	0.14714
981.04161	0.14186
979.75585	0.13685
978.47008	0.13212
977.18431	0.12777
975.89854	0.12386
974.61277	0.12043
973.32700	0.11750
972.04123	0.11513
970.75546	0.11339
969.46970	0.11230
968.18393	0.11184
966.89816	0.11200
965.61239	0.11271
964.32662	0.11382
963.04085	0.11506
961.75508	0.11608
960.46931	0.11658
959.18354	0.11636
957.89778	0.11537
956.61201	0.11365
955.32624	0.11133
954.04047	0.10862
952.75470	0.10572
951.46893	0.10280
950.18316	0.09995
948.89739	0.09720
947.61163	0.09453
946.32586	0.09193
945.04009	0.08942
943.75432	0.08698
942.46855	0.08461
941.18278	0.08231
939.89701	0.08013
938.61124	0.07813
937.32547	0.07632
936.03971	0.07466
934.75394	0.07308
933.46817	0.07155
932.18240	0.07007
930.89663	0.06867
929.61086	0.06739
928.32509	0.06625
927.03932	0.06520
925.75356	0.06417
924.46779	0.06310
923.18202	0.06203
921.89625	0.06103
920.61048	0.06014
919.32471	0.05936
918.03894	0.05864
916.75317	0.05793
915.46740	0.05723
914.18164	0.05657
912.89587	0.05594
911.61010	0.05533
910.32433	0.05472
909.03856	0.05408
907.75279	0.05340
906.46702	0.05270
905.18125	0.05207
903.89549	0.05159
902.60972	0.05133
901.32395	0.05116
900.03818	0.05091
898.75241	0.05049
897.46664	0.05003
896.18087	0.04971
894.89510	0.04958
893.60933	0.04951
892.32357	0.04937
891.03780	0.04917
889.75203	0.04903
888.46626	0.04912
887.18049	0.04961
885.89472	0.05070
884.60895	0.05259
883.32318	0.05532
882.03742	0.05863
880.75165	0.06200
879.46588	0.06481
878.18011	0.06677
876.89434	0.06813
875.60857	0.06942
874.32280	0.07090
873.03703	0.07236
871.75126	0.07332
870.46550	0.07347
869.17973	0.07274
867.89396	0.07124
866.60819	0.06912
865.32242	0.06659
864.03665	0.06394
862.75088	0.06141
861.46511	0.05910
860.17935	0.05703
858.89358	0.05519
857.60781	0.05362
856.32204	0.05233
855.03627	0.05128
853.75050	0.05041
852.46473	0.04966
851.17896	0.04898
849.89319	0.04833
848.60743	0.04769
847.32166	0.04707
846.03589	0.04652
844.75012	0.04607
843.46435	0.04571
842.17858	0.04538
840.89281	0.04504
839.60704	0.04468
838.32128	0.04430
837.03551	0.04389
835.74974	0.04343
834.46397	0.04293
833.17820	0.04245
831.89243	0.04204
830.60666	0.04173
829.32089	0.04147
828.03512	0.04125
826.74936	0.04110
825.46359	0.04102
824.17782	0.04100
822.89205	0.04099
821.60628	0.04097
820.32051	0.04096
819.03474	0.04096
817.74897	0.04093
816.46321	0.04082
815.17744	0.04069
813.89167	0.04058
812.60590	0.04050
811.32013	0.04042
810.03436	0.04033
808.74859	0.04020
807.46282	0.04006
806.17705	0.03990
804.89129	0.03975
803.60552	0.03963
802.31975	0.03952
801.03398	0.03938
799.74821	0.03920
798.46244	0.03905
797.17667	0.03896
795.89090	0.03898
794.60513	0.03908
793.31937	0.03917
792.03360	0.03919
790.74783	0.03914
789.46206	0.03903
788.17629	0.03887
786.89052	0.03867
785.60475	0.03843
784.31898	0.03820
783.03322	0.03805
781.74745	0.03804
780.46168	0.03812
779.17591	0.03817
777.89014	0.03809
776.60437	0.03791
775.31860	0.03774
774.03283	0.03763
772.74706	0.03758
771.46130	0.03755
770.17553	0.03750
768.88976	0.03746
767.60399	0.03745
766.31822	0.03752
765.03245	0.03764
763.74668	0.03778
762.46091	0.03789
761.17515	0.03799
759.88938	0.03808
758.60361	0.03818
757.31784	0.03820
756.03207	0.03812
754.74630	0.03801
753.46053	0.03797
752.17476	0.03799
750.88899	0.03796
749.60323	0.03778
748.31746	0.03752
747.03169	0.03730
745.74592	0.03718
744.46015	0.03708
743.17438	0.03691
741.88861	0.03670
740.60284	0.03656
739.31708	0.03653
738.03131	0.03659
736.74554	0.03665
735.45977	0.03667
734.17400	0.03663
732.88823	0.03653
731.60246	0.03643
730.31669	0.03637
729.03092	0.03635
727.74516	0.03638
726.45939	0.03645
725.17362	0.03659
723.88785	0.03663
722.60208	0.03694
721.31631	0.03733
720.03054	0.03765
718.74477	0.03786
717.45901	0.03795
716.17324	0.03792
714.88747	0.03776
713.60170	0.03749
712.31593	0.03718
711.03016	0.03692
709.74439	0.03676
708.45862	0.03670
707.17285	0.03671
705.88709	0.03674
704.60132	0.03673
703.31555	0.03664
702.02978	0.03649
700.74401	0.03634
699.45824	0.03629
698.17247	0.03634
696.88670	0.03645
695.60094	0.03657
694.31517	0.03665
693.02940	0.03670
691.74363	0.03671
690.45786	0.03667
689.17209	0.03657
687.88632	0.03640
686.60055	0.03618
685.31478	0.03597
684.02902	0.03583
682.74325	0.03577
681.45748	0.03576
680.17171	0.03574
678.88594	0.03567
677.60017	0.03558
676.31440	0.03553
675.02863	0.03555
673.74287	0.03560
672.45710	0.03565
671.17133	0.03570
669.88556	0.03579
668.59979	0.03595
667.31402	0.03612
666.02825	0.03619
664.74248	0.03609
663.45671	0.03588
662.17095	0.03564
660.88518	0.03541
659.59941	0.03520
658.31364	0.03505
657.02787	0.03499
655.74210	0.03500
654.45633	0.03502
653.17056	0.03503
651.88480	0.03508
650.59903	0.03519
649.31326	0.03533
648.02749	0.03546
646.74172	0.03555
645.45595	0.03565
644.17018	0.03581
642.88441	0.03604
641.59864	0.03629
640.31288	0.03651
639.02711	0.03671
637.74134	0.03688
636.45557	0.03705
635.16980	0.03724
633.88403	0.03746
632.59826	0.03767
631.31249	0.03775
630.02673	0.03736
628.74096	0.03680
627.45519	0.03739
626.16942	0.03701
624.88365	0.03616
623.59788	0.03591
622.31211	0.03699
621.02634	0.03977
619.74057	0.04399
618.45481	0.04885
617.16904	0.05367
615.88327	0.05829
614.59750	0.06272
613.31173	0.06680
612.02596	0.07042
610.74019	0.07398
609.45442	0.07839
608.16866	0.08418
606.88289	0.09090
605.59712	0.09763
604.31135	0.10353
603.02558	0.10798
601.73981	0.11056
600.45404	0.11120
599.16827	0.11015
597.88250	0.10785
596.59674	0.10480
595.31097	0.10148
594.02520	0.09826
592.73943	0.09539
591.45366	0.09306
590.16789	0.09140
588.88212	0.09052
587.59635	0.09046
586.31059	0.09112
585.02482	0.09238
583.73905	0.09420
582.45328	0.09655
581.16751	0.09939
579.88174	0.10254
578.59597	0.10585
577.31020	0.10918
576.02443	0.11241
574.73867	0.11545
573.45290	0.11828
572.16713	0.12104
570.88136	0.12403
569.59559	0.12760
568.30982	0.13194
567.02405	0.13695
565.73828	0.14225
564.45251	0.14721
563.16675	0.15110
561.88098	0.15330
560.59521	0.15339
559.30944	0.15127
558.02367	0.14712
556.73790	0.14136
555.45213	0.13453
554.16636	0.12717
552.88060	0.11975
551.59483	0.11265
550.30906	0.10607
549.02329	0.10010
547.73752	0.09468
546.45175	0.08973
545.16598	0.08522
543.88021	0.08117
542.59444	0.07766
541.30868	0.07470
540.02291	0.07217
538.73714	0.06988
537.45137	0.06771
536.16560	0.06559
534.87983	0.06355
533.59406	0.06157
532.30829	0.05965
531.02253	0.05781
529.73676	0.05613
528.45099	0.05467
527.16522	0.05344
525.87945	0.05235
524.59368	0.05131
523.30791	0.05025
522.02214	0.04917
520.73637	0.04812
519.45061	0.04713
518.16484	0.04621
516.87907	0.04533
515.59330	0.04445
514.30753	0.04361
513.02176	0.04284
511.73599	0.04217
510.45022	0.04155
509.16446	0.04090
507.87869	0.04018
506.59292	0.03943
505.30715	0.03876
504.02138	0.03824
502.73561	0.03788
501.44984	0.03761
500.16407	0.03732
498.87830	0.03695
497.59254	0.03648
496.30677	0.03595
495.02100	0.03541
493.73523	0.03491
492.44946	0.03453
491.16369	0.03427
489.87792	0.03406
488.59215	0.03385
487.30639	0.03363
486.02062	0.03342
484.73485	0.03324
483.44908	0.03310
482.16331	0.03302
480.87754	0.03300
479.59177	0.03306
478.30600	0.03319
477.02023	0.03339
475.73447	0.03367
474.44870	0.03399
473.16293	0.03427
471.87716	0.03444
470.59139	0.03448
469.30562	0.03440
468.01985	0.03422
466.73408	0.03397
465.44832	0.03368
464.16255	0.03337
462.87678	0.03307
461.59101	0.03276
460.30524	0.03245
459.01947	0.03207
457.73370	0.03160
456.44793	0.03104
455.16216	0.03047
453.87640	0.02996
452.59063	0.02956
451.30486	0.02926
450.01909	0.02903
448.73332	0.02881
447.44755	0.02856
446.16178	0.02826
444.87601	0.02793
443.59025	0.02763
442.30448	0.02742
441.01871	0.02727
439.73294	0.02717
438.44717	0.02708
437.16140	0.02698
435.87563	0.02686
434.58986	0.02673
433.30409	0.02663
432.01833	0.02658
430.73256	0.02654
429.44679	0.02645
428.16102	0.02629
426.87525	0.02609
425.58948	0.02588
424.30371	0.02569
423.01794	0.02552
421.73218	0.02537
420.44641	0.02524
419.16064	0.02509
417.87487	0.02491
416.58910	0.02471
415.30333	0.02450
414.01756	0.02434
412.73179	0.02425
411.44602	0.02421
410.16026	0.02420
408.87449	0.02422
407.58872	0.02428
406.30295	0.02436
405.01718	0.02441
403.73141	0.02442
402.44564	0.02443
401.15987	0.02450
399.87411	0.02464
