3997.45528 0.04106
3996.16951 0.04102
3994.88374 0.04128
3993.59798 0.04145
3992.31221 0.04156
3991.02644 0.04193
3989.74067 0.04266
3988.45490 0.04368
3987.16913 0.04485
3985.88336 0.04583
3984.59759 0.04608
3983.31183 0.04531
3982.02606 0.04394
3980.74029 0.04268
3979.45452 0.04194
3978.16875 0.04164
3976.88298 0.04158
3975.59721 0.04168
3974.31144 0.04187
3973.02567 0.04199
3971.73991 0.04193
3970.45414 0.04165
3969.16837 0.04119
3967.88260 0.04058
3966.59683 0.03984
3965.31106 0.03909
3964.02529 0.03846
3962.73952 0.03807
3961.45376 0.03791
3960.16799 0.03802
3958.88222 0.03851
3957.59645 0.03936
3956.31068 0.04015
3955.02491 0.04032
3953.73914 0.03967
3952.45337 0.03857
3951.16760 0.03765
3949.88184 0.03742
3948.59607 0.03808
3947.31030 0.03942
3946.02453 0.04085
3944.73876 0.04173
3943.45299 0.04192
3942.16722 0.04169
3940.88145 0.04140
3939.59569 0.04121
3938.30992 0.04124
3937.02415 0.04150
3935.73838 0.04181
3934.45261 0.04191
3933.16684 0.04183
3931.88107 0.04178
3930.59530 0.04186
3929.30953 0.04185
3928.02377 0.04148
3926.73800 0.04071
3925.45223 0.03976
3924.16646 0.03891
3922.88069 0.03829
3921.59492 0.03806
3920.30915 0.03855
3919.02338 0.03995
3917.73762 0.04186
3916.45185 0.04345
3915.16608 0.04409
3913.88031 0.04383
3912.59454 0.04319
3911.30877 0.04264
3910.02300 0.04244
3908.73723 0.04273
3907.45146 0.04359
3906.16570 0.04477
3904.87993 0.04560
3903.59416 0.04544
3902.30839 0.04422
3901.02262 0.04263
3899.73685 0.04159
3898.45108 0.04148
3897.16531 0.04190
3895.87955 0.04212
3894.59378 0.04178
3893.30801 0.04114
3892.02224 0.04061
3890.73647 0.04031
3889.45070 0.04004
3888.16493 0.03968
3886.87916 0.03950
3885.59339 0.03972
3884.30763 0.04001
3883.02186 0.03985
3881.73609 0.03936
3880.45032 0.03917
3879.16455 0.03963
3877.87878 0.04032
3876.59301 0.04071
3875.30724 0.04065
3874.02148 0.04027
3872.73571 0.03968
3871.44994 0.03898
3870.16417 0.03853
3868.87840 0.03858
3867.59263 0.03897
3866.30686 0.03929
3865.02109 0.03937
3863.73532 0.03915
3862.44956 0.03865
3861.16379 0.03803
3859.87802 0.03761
3858.59225 0.03771
3857.30648 0.03850
3856.02071 0.03988
3854.73494 0.04138
3853.44917 0.04251
3852.16341 0.04289
3850.87764 0.04247
3849.59187 0.04160
3848.30610 0.04075
3847.02033 0.04012
3845.73456 0.03960
3844.44879 0.03899
3843.16302 0.03832
3841.87725 0.03787
3840.59149 0.03780
3839.30572 0.03793
3838.01995 0.03793
3836.73418 0.03762
3835.44841 0.03701
3834.16264 0.03632
3832.87687 0.03585
3831.59110 0.03565
3830.30534 0.03546
3829.01957 0.03506
3827.73380 0.03454
3826.44803 0.03434
3825.16226 0.03482
3823.87649 0.03587
3822.59072 0.03710
3821.30495 0.03830
3820.01918 0.03941
3818.73342 0.04028
3817.44765 0.04081
3816.16188 0.04109
3814.87611 0.04118
3813.59034 0.04083
3812.30457 0.03996
3811.01880 0.03884
3809.73303 0.03779
3808.44726 0.03696
3807.16150 0.03657
3805.87573 0.03675
3804.58996 0.03731
3803.30419 0.03792
3802.01842 0.03844
3800.73265 0.03875
3799.44688 0.03859
3798.16111 0.03789
3796.87535 0.03702
3795.58958 0.03647
3794.30381 0.03626
3793.01804 0.03621
3791.73227 0.03629
3790.44650 0.03669
3789.16073 0.03746
3787.87496 0.03840
3786.58919 0.03905
3785.30343 0.03912
3784.01766 0.03874
3782.73189 0.03841
3781.44612 0.03864
3780.16035 0.03948
3778.87458 0.04037
3777.58881 0.04062
3776.30304 0.04006
3775.01728 0.03924
3773.73151 0.03877
3772.44574 0.03880
3771.15997 0.03902
3769.87420 0.03907
3768.58843 0.03889
3767.30266 0.03883
3766.01689 0.03934
3764.73112 0.04041
3763.44536 0.04128
3762.15959 0.04107
3760.87382 0.03970
3759.58805 0.03785
3758.30228 0.03632
3757.01651 0.03555
3755.73074 0.03566
3754.44497 0.03654
3753.15921 0.03788
3751.87344 0.03911
3750.58767 0.03953
3749.30190 0.03898
3748.01613 0.03795
3746.73036 0.03698
3745.44459 0.03643
3744.15882 0.03662
3742.87305 0.03756
3741.58729 0.03878
3740.30152 0.03982
3739.01575 0.04036
3737.72998 0.04018
3736.44421 0.03934
3735.15844 0.03814
3733.87267 0.03693
3732.58690 0.03611
3731.30114 0.03601
3730.01537 0.03637
3728.72960 0.03663
3727.44383 0.03646
3726.15806 0.03600
3724.87229 0.03537
3723.58652 0.03464
3722.30075 0.03409
3721.01498 0.03414
3719.72922 0.03485
3718.44345 0.03578
3717.15768 0.03642
3715.87191 0.03646
3714.58614 0.03596
3713.30037 0.03526
3712.01460 0.03488
3710.72883 0.03520
3709.44307 0.03616
3708.15730 0.03736
3706.87153 0.03822
3705.58576 0.03838
3704.29999 0.03797
3703.01422 0.03752
3701.72845 0.03746
3700.44268 0.03760
3699.15691 0.03732
3697.87115 0.03635
3696.58538 0.03522
3695.29961 0.03455
3694.01384 0.03454
3692.72807 0.03508
3691.44230 0.03567
3690.15653 0.03576
3688.87076 0.03519
3687.58500 0.03428
3686.29923 0.03343
3685.01346 0.03289
3683.72769 0.03261
3682.44192 0.03232
3681.15615 0.03208
3679.87038 0.03239
3678.58461 0.03369
3677.29884 0.03570
3676.01308 0.03761
3674.72731 0.03876
3673.44154 0.03903
3672.15577 0.03873
3670.87000 0.03841
3669.58423 0.03822
3668.29846 0.03784
3667.01269 0.03702
3665.72693 0.03602
3664.44116 0.03533
3663.15539 0.03512
3661.86962 0.03524
3660.58385 0.03544
3659.29808 0.03555
3658.01231 0.03564
3656.72654 0.03591
3655.44077 0.03641
3654.15501 0.03695
3652.86924 0.03722
3651.58347 0.03704
3650.29770 0.03640
3649.01193 0.03539
3647.72616 0.03432
3646.44039 0.03358
3645.15462 0.03338
3643.86886 0.03368
3642.58309 0.03434
3641.29732 0.03514
3640.01155 0.03590
3638.72578 0.03657
3637.44001 0.03712
3636.15424 0.03733
3634.86847 0.03705
3633.58270 0.03656
3632.29694 0.03649
3631.01117 0.03703
3629.72540 0.03773
3628.43963 0.03792
3627.15386 0.03731
3625.86809 0.03626
3624.58232 0.03550
3623.29655 0.03542
3622.01079 0.03580
3620.72502 0.03624
3619.43925 0.03670
3618.15348 0.03747
3616.86771 0.03869
3615.58194 0.04013
3614.29617 0.04126
3613.01040 0.04169
3611.72463 0.04141
3610.43887 0.04068
3609.15310 0.03989
3607.86733 0.03939
3606.58156 0.03955
3605.29579 0.04040
3604.01002 0.04150
3602.72425 0.04225
3601.43848 0.04251
3600.15272 0.04262
3598.86695 0.04284
3597.58118 0.04302
3596.29541 0.04300
3595.00964 0.04281
3593.72387 0.04272
3592.43810 0.04299
3591.15233 0.04369
3589.86656 0.04446
3588.58080 0.04483
3587.29503 0.04460
3586.00926 0.04387
3584.72349 0.04290
3583.43772 0.04197
3582.15195 0.04127
3580.86618 0.04102
3579.58041 0.04144
3578.29464 0.04247
3577.00888 0.04366
3575.72311 0.04439
3574.43734 0.04438
3573.15157 0.04381
3571.86580 0.04309
3570.58003 0.04249
3569.29426 0.04212
3568.00849 0.04209
3566.72273 0.04248
3565.43696 0.04326
3564.15119 0.04422
3562.86542 0.04504
3561.57965 0.04542
3560.29388 0.04531
3559.00811 0.04509
3557.72234 0.04525
3556.43657 0.04591
3555.15081 0.04655
3553.86504 0.04654
3552.57927 0.04580
3551.29350 0.04501
3550.00773 0.04499
3548.72196 0.04598
3547.43619 0.04741
3546.15042 0.04847
3544.86466 0.04875
3543.57889 0.04853
3542.29312 0.04829
3541.00735 0.04822
3539.72158 0.04813
3538.43581 0.04776
3537.15004 0.04704
3535.86427 0.04619
3534.57850 0.04553
3533.29274 0.04530
3532.00697 0.04568
3530.72120 0.04669
3529.43543 0.04813
3528.14966 0.04957
3526.86389 0.05060
3525.57812 0.05108
3524.29235 0.05125
3523.00659 0.05144
3521.72082 0.05167
3520.43505 0.05172
3519.14928 0.05145
3517.86351 0.05099
3516.57774 0.05063
3515.29197 0.05059
3514.00620 0.05086
3512.72043 0.05128
3511.43467 0.05159
3510.14890 0.05163
3508.86313 0.05150
3507.57736 0.05145
3506.29159 0.05158
3505.00582 0.05174
3503.72005 0.05166
3502.43428 0.05130
3501.14852 0.05088
3499.86275 0.05071
3498.57698 0.05099
3497.29121 0.05164
3496.00544 0.05238
3494.71967 0.05285
3493.43390 0.05297
3492.14813 0.05305
3490.86236 0.05342
3489.57660 0.05391
3488.29083 0.05407
3487.00506 0.05372
3485.71929 0.05323
3484.43352 0.05314
3483.14775 0.05356
3481.86198 0.05418
3480.57621 0.05463
3479.29045 0.05483
3478.00468 0.05491
3476.71891 0.05493
3475.43314 0.05488
3474.14737 0.05486
3472.86160 0.05510
3471.57583 0.05558
3470.29006 0.05594
3469.00429 0.05576
3467.71853 0.05510
3466.43276 0.05440
3465.14699 0.05408
3463.86122 0.05421
3462.57545 0.05465
3461.28968 0.05524
3460.00391 0.05580
3458.71814 0.05621
3457.43238 0.05637
3456.14661 0.05634
3454.86084 0.05615
3453.57507 0.05585
3452.28930 0.05546
3451.00353 0.05512
3449.71776 0.05499
3448.43199 0.05517
3447.14622 0.05563
3445.86046 0.05624
3444.57469 0.05687
3443.28892 0.05741
3442.00315 0.05775
3440.71738 0.05774
3439.43161 0.05745
3438.14584 0.05714
3436.86007 0.05708
3435.57431 0.05720
3434.28854 0.05720
3433.00277 0.05692
3431.71700 0.05661
3430.43123 0.05668
3429.14546 0.05722
3427.85969 0.05787
3426.57392 0.05821
3425.28815 0.05812
3424.00239 0.05780
3422.71662 0.05753
3421.43085 0.05755
3420.14508 0.05792
3418.85931 0.05850
3417.57354 0.05899
3416.28777 0.05920
3415.00200 0.05923
3413.71624 0.05930
3412.43047 0.05947
3411.14470 0.05956
3409.85893 0.05944
3408.57316 0.05922
3407.28739 0.05909
3406.00162 0.05920
3404.71585 0.05946
3403.43008 0.05972
3402.14432 0.06000
3400.85855 0.06035
3399.57278 0.06034
3398.28701 0.05997
3397.00124 0.05977
3395.71547 0.05967
3394.42970 0.05955
3393.14393 0.05954
3391.85817 0.05988
3390.57240 0.06057
3389.28663 0.06129
3388.00086 0.06172
3386.71509 0.06192
3385.42932 0.06222
3384.14355 0.06281
3382.85778 0.06346
3381.57201 0.06380
3380.28625 0.06373
3379.00048 0.06353
3377.71471 0.06353
3376.42894 0.06384
3375.14317 0.06434
3373.85740 0.06474
3372.57163 0.06474
3371.28586 0.06418
3370.00010 0.06315
3368.71433 0.06203
3367.42856 0.06124
3366.14279 0.06101
3364.85702 0.06123
3363.57125 0.06158
3362.28548 0.06176
3360.99971 0.06175
3359.71394 0.06174
3358.42818 0.06184
3357.14241 0.06204
3355.85664 0.06225
3354.57087 0.06249
3353.28510 0.06279
3351.99933 0.06313
3350.71356 0.06345
3349.42779 0.06375
3348.14202 0.06404
3346.85626 0.06428
3345.57049 0.06447
3344.28472 0.06477
3342.99895 0.06527
3341.71318 0.06578
3340.42741 0.06584
3339.14164 0.06524
3337.85587 0.06434
3336.57011 0.06370
3335.28434 0.06356
3333.99857 0.06374
3332.71280 0.06400
3331.42703 0.06428
3330.14126 0.06455
3328.85549 0.06464
3327.56972 0.06440
3326.28395 0.06400
3324.99819 0.06383
3323.71242 0.06413
3322.42665 0.06479
3321.14088 0.06547
3319.85511 0.06598
3318.56934 0.06627
3317.28357 0.06638
3315.99780 0.06640
3314.71204 0.06646
3313.42627 0.06661
3312.14050 0.06671
3310.85473 0.06668
3309.56896 0.06663
3308.28319 0.06675
3306.99742 0.06699
3305.71165 0.06708
3304.42588 0.06687
3303.14012 0.06649
3301.85435 0.06620
3300.56858 0.06607
3299.28281 0.06589
3297.99704 0.06552
3296.71127 0.06509
3295.42550 0.06491
3294.13973 0.06522
3292.85397 0.06598
3291.56820 0.06690
3290.28243 0.06759
3288.99666 0.06772
3287.71089 0.06734
3286.42512 0.06679
3285.13935 0.06637
3283.85358 0.06609
3282.56781 0.06586
3281.28205 0.06563
3279.99628 0.06543
3278.71051 0.06529
3277.42474 0.06524
3276.13897 0.06528
3274.85320 0.06535
3273.56743 0.06533
3272.28166 0.06518
3270.99590 0.06502
3269.71013 0.06499
3268.42436 0.06517
3267.13859 0.06547
3265.85282 0.06577
3264.56705 0.06596
3263.28128 0.06605
3261.99551 0.06605
3260.70974 0.06599
3259.42398 0.06591
3258.13821 0.06580
3256.85244 0.06565
3255.56667 0.06544
3254.28090 0.06519
3252.99513 0.06498
3251.70936 0.06489
3250.42359 0.06498
3249.13783 0.06527
3247.85206 0.06558
3246.56629 0.06564
3245.28052 0.06528
3243.99475 0.06461
3242.70898 0.06400
3241.42321 0.06389
3240.13744 0.06443
3238.85167 0.06526
3237.56591 0.06572
3236.28014 0.06542
3234.99437 0.06449
3233.70860 0.06341
3232.42283 0.06270
3231.13706 0.06267
3229.85129 0.06323
3228.56552 0.06389
3227.27976 0.06410
3225.99399 0.06375
3224.70822 0.06325
3223.42245 0.06299
3222.13668 0.06302
3220.85091 0.06310
3219.56514 0.06311
3218.27937 0.06311
3216.99360 0.06324
3215.70784 0.06356
3214.42207 0.06401
3213.13630 0.06438
3211.85053 0.06441
3210.56476 0.06407
3209.27899 0.06362
3207.99322 0.06333
3206.70745 0.06318
3205.42169 0.06294
3204.13592 0.06251
3202.85015 0.06210
3201.56438 0.06196
3200.27861 0.06214
3198.99284 0.06249
3197.70707 0.06278
3196.42130 0.06283
3195.13553 0.06253
3193.84977 0.06199
3192.56400 0.06148
3191.27823 0.06128
3189.99246 0.06145
3188.70669 0.06183
3187.42092 0.06213
3186.13515 0.06215
3184.84938 0.06188
3183.56362 0.06147
3182.27785 0.06118
3180.99208 0.06119
3179.70631 0.06149
3178.42054 0.06180
3177.13477 0.06177
3175.84900 0.06126
3174.56323 0.06051
3173.27746 0.05987
3171.99170 0.05953
3170.70593 0.05949
3169.42016 0.05964
3168.13439 0.05987
3166.84862 0.06004
3165.56285 0.05997
3164.27708 0.05964
3162.99131 0.05926
3161.70555 0.05907
3160.41978 0.05906
3159.13401 0.05897
3157.84824 0.05864
3156.56247 0.05818
3155.27670 0.05779
3153.99093 0.05759
3152.70516 0.05763
3151.41939 0.05784
3150.13363 0.05808
3148.84786 0.05823
3147.56209 0.05832
3146.27632 0.05847
3144.99055 0.05874
3143.70478 0.05910
3142.41901 0.05946
3141.13324 0.05963
3139.84748 0.05943
3138.56171 0.05883
3137.27594 0.05803
3135.99017 0.05734
3134.70440 0.05699
3133.41863 0.05706
3132.13286 0.05749
3130.84709 0.05797
3129.56132 0.05807
3128.27556 0.05759
3126.98979 0.05673
3125.70402 0.05592
3124.41825 0.05547
3123.13248 0.05542
3121.84671 0.05566
3120.56094 0.05603
3119.27517 0.05640
3117.98940 0.05672
3116.70364 0.05701
3115.41787 0.05730
3114.13210 0.05749
3112.84633 0.05749
3111.56056 0.05728
3110.27479 0.05688
3108.98902 0.05631
3107.70325 0.05565
3106.41749 0.05503
3105.13172 0.05456
3103.84595 0.05432
3102.56018 0.05434
3101.27441 0.05459
3099.98864 0.05491
3098.70287 0.05519
3097.41710 0.05539
3096.13133 0.05551
3094.84557 0.05553
3093.55980 0.05545
3092.27403 0.05544
3090.98826 0.05564
3089.70249 0.05602
3088.41672 0.05636
3087.13095 0.05650
3085.84518 0.05642
3084.55942 0.05617
3083.27365 0.05584
3081.98788 0.05548
3080.70211 0.05522
3079.41634 0.05521
3078.13057 0.05548
3076.84480 0.05591
3075.55903 0.05630
3074.27326 0.05647
3072.98750 0.05640
3071.70173 0.05618
3070.41596 0.05603
3069.13019 0.05607
3067.84442 0.05624
3066.55865 0.05644
3065.27288 0.05664
3063.98711 0.05677
3062.70135 0.05665
3061.41558 0.05616
3060.12981 0.05544
3058.84404 0.05479
3057.55827 0.05436
3056.27250 0.05412
3054.98673 0.05403
3053.70096 0.05413
3052.41519 0.05434
3051.12943 0.05450
3049.84366 0.05441
3048.55789 0.05413
3047.27212 0.05384
3045.98635 0.05374
3044.70058 0.05380
3043.41481 0.05391
3042.12904 0.05397
3040.84328 0.05397
3039.55751 0.05386
3038.27174 0.05363
3036.98597 0.05331
3035.70020 0.05302
3034.41443 0.05287
3033.12866 0.05287
3031.84289 0.05288
3030.55712 0.05283
3029.27136 0.05271
3027.98559 0.05261
3026.69982 0.05252
3025.41405 0.05241
3024.12828 0.05230
3022.84251 0.05224
3021.55674 0.05227
3020.27097 0.05239
3018.98521 0.05263
3017.69944 0.05290
3016.41367 0.05298
3015.12790 0.05274
3013.84213 0.05228
3012.55636 0.05189
3011.27059 0.05171
3009.98482 0.05166
3008.69905 0.05160
3007.41329 0.05146
3006.12752 0.05126
3004.84175 0.05106
3003.55598 0.05096
3002.27021 0.05106
3000.98444 0.05128
2999.69867 0.05107
2998.41290 0.05113
2997.12714 0.05119
2995.84137 0.05127
2994.55560 0.05140
2993.26983 0.05149
2991.98406 0.05143
2990.69829 0.05124
2989.41252 0.05100
2988.12675 0.05070
2986.84098 0.05030
2985.55522 0.04993
2984.26945 0.04987
2982.98368 0.05026
2981.69791 0.05084
2980.41214 0.05127
2979.12637 0.05146
2977.84060 0.05164
2976.55483 0.05194
2975.26907 0.05226
2973.98330 0.05249
2972.69753 0.05274
2971.41176 0.05321
2970.12599 0.05384
2968.84022 0.05441
2967.55445 0.05481
2966.26868 0.05519
2964.98291 0.05576
2963.69715 0.05646
2962.41138 0.05702
2961.12561 0.05732
2959.83984 0.05749
2958.55407 0.05775
2957.26830 0.05813
2955.98253 0.05849
2954.69676 0.05872
2953.41100 0.05886
2952.12523 0.05903
2950.83946 0.05931
2949.55369 0.05967
2948.26792 0.06000
2946.98215 0.06011
2945.69638 0.05987
2944.41061 0.05934
2943.12484 0.05879
2941.83908 0.05853
2940.55331 0.05871
2939.26754 0.05925
2937.98177 0.05984
2936.69600 0.06019
2935.41023 0.06026
2934.12446 0.06027
2932.83869 0.06047
2931.55293 0.06086
2930.26716 0.06125
2928.98139 0.06158
2927.69562 0.06194
2926.40985 0.06234
2925.12408 0.06252
2923.83831 0.06222
2922.55254 0.06156
2921.26677 0.06103
2919.98101 0.06094
2918.69524 0.06111
2917.40947 0.06114
2916.12370 0.06085
2914.83793 0.06032
2913.55216 0.05969
2912.26639 0.05911
2910.98062 0.05870
2909.69486 0.05850
2908.40909 0.05837
2907.12332 0.05816
2905.83755 0.05779
2904.55178 0.05735
2903.26601 0.05702
2901.98024 0.05692
2900.69447 0.05703
2899.40870 0.05714
2898.12294 0.05704
2896.83717 0.05664
2895.55140 0.05603
2894.26563 0.05549
2892.97986 0.05523
2891.69409 0.05523
2890.40832 0.05520
2889.12255 0.05486
2887.83678 0.05420
2886.55102 0.05349
2885.26525 0.05299
2883.97948 0.05277
2882.69371 0.05281
2881.40794 0.05304
2880.12217 0.05333
2878.83640 0.05349
2877.55063 0.05348
2876.26487 0.05354
2874.97910 0.05387
2873.69333 0.05428
2872.40756 0.05442
2871.12179 0.05432
2869.83602 0.05426
2868.55025 0.05438
2867.26448 0.05442
2865.97871 0.05411
2864.69295 0.05350
2863.40718 0.05292
2862.12141 0.05266
2860.83564 0.05271
2859.54987 0.05288
2858.26410 0.05296
2856.97833 0.05284
2855.69256 0.05255
2854.40680 0.05228
2853.12103 0.05216
2851.83526 0.05218
2850.54949 0.05213
2849.26372 0.05189
2847.97795 0.05151
2846.69218 0.05113
2845.40641 0.05085
2844.12064 0.05063
2842.83488 0.05035
2841.54911 0.04982
2840.26334 0.04896
2838.97757 0.04798
2837.69180 0.04726
2836.40603 0.04703
2835.12026 0.04714
2833.83449 0.04728
2832.54873 0.04722
2831.26296 0.04693
2829.97719 0.04651
2828.69142 0.04606
2827.40565 0.04570
2826.11988 0.04548
2824.83411 0.04534
2823.54834 0.04519
2822.26257 0.04502
2820.97681 0.04491
2819.69104 0.04487
2818.40527 0.04483
2817.11950 0.04475
2815.83373 0.04463
2814.54796 0.04444
2813.26219 0.04412
2811.97642 0.04375
2810.69066 0.04350
2809.40489 0.04348
2808.11912 0.04362
2806.83335 0.04378
2805.54758 0.04377
2804.26181 0.04353
2802.97604 0.04316
2801.69027 0.04285
2800.40450 0.04272
2799.11874 0.04274
2797.83297 0.04283
2796.54720 0.04293
2795.26143 0.04298
2793.97566 0.04293
2792.68989 0.04276
2791.40412 0.04256
2790.11835 0.04247
2788.83259 0.04249
2787.54682 0.04248
2786.26105 0.04229
2784.97528 0.04196
2783.68951 0.04162
2782.40374 0.04139
2781.11797 0.04134
2779.83220 0.04152
2778.54643 0.04187
2777.26067 0.04224
2775.97490 0.04243
2774.68913 0.04232
2773.40336 0.04195
2772.11759 0.04150
2770.83182 0.04118
2769.54605 0.04115
2768.26028 0.04135
2766.97452 0.04154
2765.68875 0.04154
2764.40298 0.04142
2763.11721 0.04138
2761.83144 0.04149
2760.54567 0.04160
2759.25990 0.04152
2757.97413 0.04123
2756.68836 0.04085
2755.40260 0.04057
2754.11683 0.04054
2752.83106 0.04075
2751.54529 0.04100
2750.25952 0.04105
2748.97375 0.04084
2747.68798 0.04045
2746.40221 0.04006
2745.11645 0.03978
2743.83068 0.03969
2742.54491 0.03978
2741.25914 0.03994
2739.97337 0.04006
2738.68760 0.04011
2737.40183 0.04012
2736.11606 0.04010
2734.83029 0.04002
2733.54453 0.03995
2732.25876 0.03996
2730.97299 0.04002
2729.68722 0.03995
2728.40145 0.03970
2727.11568 0.03942
2725.82991 0.03926
2724.54414 0.03919
2723.25838 0.03911
2721.97261 0.03898
2720.68684 0.03885
2719.40107 0.03877
2718.11530 0.03876
2716.82953 0.03878
2715.54376 0.03874
2714.25799 0.03862
2712.97222 0.03851
2711.68646 0.03849
2710.40069 0.03849
2709.11492 0.03840
2707.82915 0.03822
2706.54338 0.03806
2705.25761 0.03799
2703.97184 0.03809
2702.68607 0.03833
2701.40031 0.03856
2700.11454 0.03859
2698.82877 0.03841
2697.54300 0.03819
2696.25723 0.03809
2694.97146 0.03815
2693.68569 0.03822
2692.39992 0.03817
2691.11415 0.03802
2689.82839 0.03794
2688.54262 0.03801
2687.25685 0.03810
2685.97108 0.03801
2684.68531 0.03774
2683.39954 0.03744
2682.11377 0.03722
2680.82800 0.03706
2679.54224 0.03693
2678.25647 0.03686
2676.97070 0.03692
2675.68493 0.03707
2674.39916 0.03718
2673.11339 0.03721
2671.82762 0.03719
2670.54185 0.03721
2669.25608 0.03729
2667.97032 0.03730
2666.68455 0.03710
2665.39878 0.03673
2664.11301 0.03645
2662.82724 0.03649
2661.54147 0.03677
2660.25570 0.03701
2658.96993 0.03705
2657.68417 0.03703
2656.39840 0.03712
2655.11263 0.03732
2653.82686 0.03748
2652.54109 0.03745
2651.25532 0.03720
2649.96955 0.03683
2648.68378 0.03646
2647.39801 0.03607
2646.11225 0.03563
2644.82648 0.03518
2643.54071 0.03492
2642.25494 0.03492
2640.96917 0.03502
2639.68340 0.03503
2638.39763 0.03495
2637.11186 0.03489
2635.82609 0.03486
2634.54033 0.03474
2633.25456 0.03446
2631.96879 0.03416
2630.68302 0.03412
2629.39725 0.03452
2628.11148 0.03526
2626.82571 0.03594
2625.53994 0.03615
2624.25418 0.03574
2622.96841 0.03489
2621.68264 0.03396
2620.39687 0.03324
2619.11110 0.03280
2617.82533 0.03256
2616.53956 0.03246
2615.25379 0.03256
2613.96802 0.03292
2612.68226 0.03336
2611.39649 0.03353
2610.11072 0.03323
2608.82495 0.03256
2607.53918 0.03184
2606.25341 0.03133
2604.96764 0.03112
2603.68187 0.03117
2602.39611 0.03141
2601.11034 0.03172
2599.82457 0.03195
2598.53880 0.03188
2597.25303 0.03139
2595.96726 0.03070
2594.68149 0.03019
2593.39572 0.03009
2592.10995 0.03022
2590.82419 0.03028
2589.53842 0.03016
2588.25265 0.02996
2586.96688 0.02978
2585.68111 0.02964
2584.39534 0.02953
2583.10957 0.02950
2581.82380 0.02958
2580.53804 0.02975
2579.25227 0.02994
2577.96650 0.03009
2576.68073 0.03019
2575.39496 0.03028
2574.10919 0.03039
2572.82342 0.03051
2571.53765 0.03057
2570.25188 0.03055
2568.96612 0.03054
2567.68035 0.03054
2566.39458 0.03045
2565.10881 0.03014
2563.82304 0.02968
2562.53727 0.02931
2561.25150 0.02919
2559.96573 0.02923
2558.67997 0.02924
2557.39420 0.02907
2556.10843 0.02881
2554.82266 0.02867
2553.53689 0.02869
2552.25112 0.02876
2550.96535 0.02876
2549.67958 0.02873
2548.39381 0.02869
2547.10805 0.02853
2545.82228 0.02826
2544.53651 0.02808
2543.25074 0.02818
2541.96497 0.02856
2540.67920 0.02900
2539.39343 0.02920
2538.10766 0.02900
2536.82190 0.02848
2535.53613 0.02797
2534.25036 0.02782
2532.96459 0.02810
2531.67882 0.02855
2530.39305 0.02882
2529.10728 0.02871
2527.82151 0.02836
2526.53574 0.02814
2525.24998 0.02836
2523.96421 0.02890
2522.67844 0.02937
2521.39267 0.02948
2520.10690 0.02924
2518.82113 0.02887
2517.53536 0.02853
2516.24959 0.02826
2514.96383 0.02801
2513.67806 0.02781
2512.39229 0.02776
2511.10652 0.02793
2509.82075 0.02821
2508.53498 0.02837
2507.24921 0.02816
2505.96344 0.02763
2504.67767 0.02708
2503.39191 0.02677
2502.10614 0.02669
2500.82037 0.02668
2499.53460 0.02677
2498.24883 0.02708
2496.96306 0.02757
2495.67729 0.02798
2494.39152 0.02804
2493.10576 0.02785
2491.81999 0.02768
2490.53422 0.02765
2489.24845 0.02756
2487.96268 0.02724
2486.67691 0.02688
2485.39114 0.02683
2484.10537 0.02717
2482.81960 0.02760
2481.53384 0.02784
2480.24807 0.02786
2478.96230 0.02781
2477.67653 0.02780
2476.39076 0.02787
2475.10499 0.02797
2473.81922 0.02808
2472.53345 0.02812
2471.24769 0.02808
2469.96192 0.02790
2468.67615 0.02758
2467.39038 0.02723
2466.10461 0.02707
2464.81884 0.02719
2463.53307 0.02744
2462.24730 0.02758
2460.96153 0.02752
2459.67577 0.02736
2458.39000 0.02722
2457.10423 0.02711
2455.81846 0.02699
2454.53269 0.02690
2453.24692 0.02693
2451.96115 0.02713
2450.67538 0.02741
2449.38962 0.02762
2448.10385 0.02763
2446.81808 0.02746
2445.53231 0.02720
2444.24654 0.02698
2442.96077 0.02684
2441.67500 0.02675
2440.38923 0.02664
2439.10346 0.02657
2437.81770 0.02663
2436.53193 0.02675
2435.24616 0.02677
2433.96039 0.02672
2432.67462 0.02679
2431.38885 0.02710
2430.10308 0.02753
2428.81731 0.02781
2427.53155 0.02784
2426.24578 0.02766
2424.96001 0.02731
2423.67424 0.02682
2422.38847 0.02632
2421.10270 0.02601
2419.81693 0.02598
2418.53116 0.02609
2417.24539 0.02615
2415.95963 0.02618
2414.67386 0.02636
2413.38809 0.02671
2412.10232 0.02704
2410.81655 0.02710
2409.53078 0.02690
2408.24501 0.02657
2406.95924 0.02618
2405.67347 0.02576
2404.38771 0.02541
2403.10194 0.02528
2401.81617 0.02540
2400.53040 0.02565
2399.24463 0.02632
2397.95886 0.02582
2396.67309 0.02550
2395.38732 0.02556
2394.10156 0.02575
2392.81579 0.02594
2391.53002 0.02607
2390.24425 0.02610
2388.95848 0.02602
2387.67271 0.02591
2386.38694 0.02585
2385.10117 0.02587
2383.81540 0.02597
2382.52964 0.02609
2381.24387 0.02623
2379.95810 0.02639
2378.67233 0.02661
2377.38656 0.02687
2376.10079 0.02713
2374.81502 0.02733
2373.52925 0.02753
2372.24349 0.02767
2370.95772 0.02778
2369.67195 0.02757
2368.38618 0.02713
2367.10041 0.02676
2365.81464 0.02661
2364.52887 0.02634
2363.24310 0.02613
2361.95733 0.02630
2360.67157 0.02682
2359.38580 0.02694
2358.10003 0.02672
2356.81426 0.02649
2355.52849 0.02657
2354.24272 0.02705
2352.95695 0.02777
2351.67118 0.02884
2350.38542 0.02999
2349.09965 0.03035
2347.81388 0.02972
2346.52811 0.02911
2345.24234 0.02882
2343.95657 0.02826
2342.67080 0.02727
2341.38503 0.02717
2340.09926 0.02811
2338.81350 0.02831
2337.52773 0.02747
2336.24196 0.02721
2334.95619 0.02742
2333.67042 0.02656
2332.38465 0.02497
2331.09888 0.02487
2329.81311 0.02486
2328.52735 0.02341
2327.24158 0.02349
2325.95581 0.02494
2324.67004 0.02562
2323.38427 0.02685
2322.09850 0.02857
2320.81273 0.02885
2319.52696 0.02925
2318.24119 0.02979
2316.95543 0.02939
2315.66966 0.02913
2314.38389 0.02884
2313.09812 0.02809
2311.81235 0.02762
2310.52658 0.02702
2309.24081 0.02645
2307.95504 0.02615
2306.66928 0.02572
2305.38351 0.02543
2304.09774 0.02515
2302.81197 0.02479
2301.52620 0.02445
2300.24043 0.02399
2298.95466 0.02351
2297.66889 0.02302
2296.38312 0.02270
2295.09736 0.02272
2293.81159 0.02299
2292.52582 0.02334
2291.24005 0.02359
2289.95428 0.02379
2288.66851 0.02400
2287.38274 0.02421
2286.09697 0.02437
2284.81121 0.02446
2283.52544 0.02450
2282.23967 0.02452
2280.95390 0.02459
2279.66813 0.02471
2278.38236 0.02478
2277.09659 0.02466
2275.81082 0.02440
2274.52505 0.02420
2273.23929 0.02413
2271.95352 0.02396
2270.66775 0.02330
2269.38198 0.02209
2268.09621 0.02075
2266.81044 0.01980
2265.52467 0.01945
2264.23890 0.01946
2262.95314 0.01950
2261.66737 0.01938
2260.38160 0.01911
2259.09583 0.01880
2257.81006 0.01853
2256.52429 0.01830
2255.23852 0.01810
2253.95275 0.01812
2252.66698 0.01840
2251.38122 0.01855
2250.09545 0.01886
2248.80968 0.02039
2247.52391 0.01961
2246.23814 0.01877
2244.95237 0.01840
2243.66660 0.01839
2242.38083 0.01849
2241.09507 0.01868
2239.80930 0.01914
2238.52353 0.01983
2237.23776 0.02040
2235.95199 0.02046
2234.66622 0.01992
2233.38045 0.01914
2232.09468 0.01871
2230.80891 0.01887
2229.52315 0.01921
2228.23738 0.01916
2226.95161 0.01855
2225.66584 0.01768
2224.38007 0.01683
2223.09430 0.01609
2221.80853 0.01561
2220.52276 0.01564
2219.23700 0.01614
2217.95123 0.01667
2216.66546 0.01677
2215.37969 0.01647
2214.09392 0.01627
2212.80815 0.01667
2211.52238 0.01771
2210.23661 0.01890
2208.95084 0.01958
2207.66508 0.01935
2206.37931 0.01830
2205.09354 0.01696
2203.80777 0.01588
2202.52200 0.01535
2201.23623 0.01521
2199.95046 0.01517
2198.66469 0.01518
2197.37893 0.01533
2196.09316 0.01553
2194.80739 0.01551
2193.52162 0.01524
2192.23585 0.01495
2190.95008 0.01482
2189.66431 0.01469
2188.37854 0.01426
2187.09277 0.01349
2185.80701 0.01263
2184.52124 0.01222
2183.23547 0.01282
2181.94970 0.01448
2180.66393 0.01646
2179.37816 0.01763
2178.09239 0.01732
2176.80662 0.01579
2175.52085 0.01393
2174.23509 0.01263
2172.94932 0.01226
2171.66355 0.01277
2170.37778 0.01398
2169.09201 0.01558
2167.80624 0.01693
2166.52047 0.01717
2165.23470 0.01579
2163.94894 0.01311
2162.66317 0.00998
2161.37740 0.00729
2160.09163 0.00557
2158.80586 0.00502
2157.52009 0.00564
2156.23432 0.00700
2154.94855 0.00814
2153.66278 0.00830
2152.37702 0.00773
2151.09125 0.00757
2149.80548 0.00855
2148.51971 0.01018
2147.23394 0.01142
2145.94817 0.01180
2144.66240 0.01161
2143.37663 0.01128
2142.09087 0.01097
2140.80510 0.01067
2139.51933 0.01031
2138.23356 0.00993
2136.94779 0.00974
2135.66202 0.01011
2134.37625 0.01118
2133.09048 0.01256
2131.80471 0.01366
2130.51895 0.01415
2129.23318 0.01412
2127.94741 0.01379
2126.66164 0.01345
2125.37587 0.01340
2124.09010 0.01368
2122.80433 0.01393
2121.51856 0.01372
2120.23280 0.01314
2118.94703 0.01281
2117.66126 0.01315
2116.37549 0.01395
2115.08972 0.01471
2113.80395 0.01510
2112.51818 0.01510
2111.23241 0.01493
2109.94664 0.01487
2108.66088 0.01498
2107.37511 0.01509
2106.08934 0.01495
2104.80357 0.01465
2103.51780 0.01450
2102.23203 0.01466
2100.94626 0.01498
2099.66049 0.01694
2098.37473 0.01788
2097.08896 0.01744
2095.80319 0.01645
2094.51742 0.01536
2093.23165 0.01442
2091.94588 0.01385
2090.66011 0.01367
2089.37434 0.01366
2088.08857 0.01364
2086.80281 0.01355
2085.51704 0.01347
2084.23127 0.01352
2082.94550 0.01376
2081.65973 0.01413
2080.37396 0.01451
2079.08819 0.01479
2077.80242 0.01494
2076.51666 0.01491
2075.23089 0.01466
2073.94512 0.01428
2072.65935 0.01404
2071.37358 0.01416
2070.08781 0.01456
2068.80204 0.01494
2067.51627 0.01499
2066.23050 0.01462
2064.94474 0.01390
2063.65897 0.01294
2062.37320 0.01186
2061.08743 0.01086
2059.80166 0.01021
2058.51589 0.01005
2057.23012 0.01023
2055.94435 0.01047
2054.65859 0.01065
2053.37282 0.01088
2052.08705 0.01132
2050.80128 0.01192
2049.51551 0.01237
2048.22974 0.01238
2046.94397 0.01205
2045.65820 0.01181
2044.37243 0.01203
2043.08667 0.01256
2041.80090 0.01298
2040.51513 0.01312
2039.22936 0.01318
2037.94359 0.01336
2036.65782 0.01349
2035.37205 0.01327
2034.08628 0.01262
2032.80052 0.01161
2031.51475 0.01024
2030.22898 0.00860
2028.94321 0.00717
2027.65744 0.00660
2026.37167 0.00715
2025.08590 0.00829
2023.80013 0.00920
2022.51436 0.00944
2021.22860 0.00916
2019.94283 0.00877
2018.65706 0.00867
2017.37129 0.00906
2016.08552 0.00971
2014.79975 0.01013
2013.51398 0.01001
2012.22821 0.00970
2010.94245 0.00973
2009.65668 0.01022
2008.37091 0.01082
2007.08514 0.01112
2005.79937 0.01095
2004.51360 0.01035
2003.22783 0.00947
2001.94206 0.00865
2000.65629 0.00834
1999.37053 0.00876
1998.08476 0.00959
1996.79899 0.01023
1995.51322 0.01037
1994.22745 0.01015
1992.94168 0.00987
1991.65591 0.00959
1990.37014 0.00921
1989.08438 0.00879
1987.79861 0.00879
1986.51284 0.00966
1985.22707 0.01131
1983.94130 0.01315
1982.65553 0.01471
1981.36976 0.01587
1980.08399 0.01663
1978.79822 0.01690
1977.51246 0.01666
1976.22669 0.01621
1974.94092 0.01582
1973.65515 0.01552
1972.36938 0.01526
1971.08361 0.01522
1969.79784 0.01558
1968.51207 0.01605
1967.22631 0.01607
1965.94054 0.01542
1964.65477 0.01450
1963.36900 0.01393
1962.08323 0.01387
1960.79746 0.01394
1959.51169 0.01373
1958.22592 0.01320
1956.94015 0.01249
1955.65439 0.01173
1954.36862 0.01112
1953.08285 0.01090
1951.79708 0.01124
1950.51131 0.01204
1949.22554 0.01304
1947.93977 0.01393
1946.65400 0.01450
1945.36823 0.01468
1944.08247 0.01463
1942.79670 0.01460
1941.51093 0.01473
1940.22516 0.01501
1938.93939 0.01541
1937.65362 0.01584
1936.36785 0.01617
1935.08208 0.01619
1933.79632 0.01584
1932.51055 0.01526
1931.22478 0.01471
1929.93901 0.01443
1928.65324 0.01453
1927.36747 0.01495
1926.08170 0.01536
1924.79593 0.01545
1923.51016 0.01522
1922.22440 0.01498
1920.93863 0.01503
1919.65286 0.01536
1918.36709 0.01573
1917.08132 0.01594
1915.79555 0.01601
1914.50978 0.01607
1913.22401 0.01627
1911.93825 0.01660
1910.65248 0.01688
1909.36671 0.01694
1908.08094 0.01671
1906.79517 0.01621
1905.50940 0.01554
1904.22363 0.01495
1902.93786 0.01470
1901.65209 0.01482
1900.36633 0.01514
1899.08056 0.01549
1897.79479 0.01585
1896.50902 0.01626
1895.22325 0.01665
1893.93748 0.01687
1892.65171 0.01687
1891.36594 0.01669
1890.08018 0.01648
1888.79441 0.01636
1887.50864 0.01633
1886.22287 0.01631
1884.93710 0.01618
1883.65133 0.01591
1882.36556 0.01560
1881.07979 0.01539
1879.79402 0.01535
1878.50826 0.01546
1877.22249 0.01562
1875.93672 0.01578
1874.65095 0.01591
1873.36518 0.01604
1872.07941 0.01616
1870.79364 0.01620
1869.50787 0.01610
1868.22211 0.01595
1866.93634 0.01586
1865.65057 0.01587
1864.36480 0.01589
1863.07903 0.01582
1861.79326 0.01569
1860.50749 0.01558
1859.22172 0.01549
1857.93595 0.01536
1856.65019 0.01520
1855.36442 0.01510
1854.07865 0.01514
1852.79288 0.01530
1851.50711 0.01546
1850.22134 0.01554
1848.93557 0.01558
1847.64980 0.01562
1846.36404 0.01566
1845.07827 0.01568
1843.79250 0.01572
1842.50673 0.01582
1841.22096 0.01597
1839.93519 0.01610
1838.64942 0.01616
1837.36365 0.01614
1836.07788 0.01608
1834.79212 0.01605
1833.50635 0.01610
1832.22058 0.01619
1830.93481 0.01624
1829.64904 0.01629
1828.36327 0.01636
1827.07750 0.01647
1825.79173 0.01666
1824.50597 0.01696
1823.22020 0.01731
1821.93443 0.01756
1820.64866 0.01758
1819.36289 0.01735
1818.07712 0.01692
1816.79135 0.01635
1815.50558 0.01579
1814.21981 0.01534
1812.93405 0.01508
1811.64828 0.01500
1810.36251 0.01508
1809.07674 0.01522
1807.79097 0.01536
1806.50520 0.01550
1805.21943 0.01565
1803.93366 0.01579
1802.64790 0.01588
1801.36213 0.01589
1800.07636 0.01585
1798.79059 0.01580
1797.50482 0.01581
1796.21905 0.01593
1794.93328 0.01614
1793.64751 0.01636
1792.36174 0.01653
1791.07598 0.01664
1789.79021 0.01667
1788.50444 0.01664
1787.21867 0.01654
1785.93290 0.01641
1784.64713 0.01635
1783.36136 0.01641
1782.07559 0.01653
1780.78983 0.01660
1779.50406 0.01658
1778.21829 0.01647
1776.93252 0.01636
1775.64675 0.01632
1774.36098 0.01631
1773.07521 0.01630
1771.78944 0.01629
1770.50367 0.01624
1769.21791 0.01615
1767.93214 0.01607
1766.64637 0.01608
1765.36060 0.01618
1764.07483 0.01633
1762.78906 0.01649
1761.50329 0.01663
1760.21752 0.01667
1758.93176 0.01656
1757.64599 0.01636
1756.36022 0.01621
1755.07445 0.01617
1753.78868 0.01618
1752.50291 0.01620
1751.21714 0.01625
1749.93137 0.01635
1748.64560 0.01644
1747.35984 0.01648
1746.07407 0.01649
1744.78830 0.01651
1743.50253 0.01656
1742.21676 0.01661
1740.93099 0.01661
1739.64522 0.01661
1738.35945 0.01670
1737.07369 0.01687
1735.78792 0.01707
1734.50215 0.01724
1733.21638 0.01734
1731.93061 0.01732
1730.64484 0.01716
1729.35907 0.01700
1728.07330 0.01695
1726.78753 0.01699
1725.50177 0.01705
1724.21600 0.01714
1722.93023 0.01736
1721.64446 0.01776
1720.35869 0.01825
1719.07292 0.01866
1717.78715 0.01894
1716.50138 0.01910
1715.21561 0.01919
1713.92985 0.01932
1712.64408 0.01960
1711.35831 0.02008
1710.07254 0.02068
1708.78677 0.02128
1707.50100 0.02180
1706.21523 0.02229
1704.92946 0.02293
1703.64370 0.02377
1702.35793 0.02471
1701.07216 0.02566
1699.78639 0.02664
1698.50062 0.02759
1697.21485 0.02840
1695.92908 0.02911
1694.64331 0.02986
1693.35754 0.03057
1692.07178 0.03116
1690.78601 0.03178
1689.50024 0.03261
1688.21447 0.03365
1686.92870 0.03474
1685.64293 0.03573
1684.35716 0.03662
1683.07139 0.03743
1681.78563 0.03815
1680.49986 0.03886
1679.21409 0.03970
1677.92832 0.04066
1676.64255 0.04162
1675.35678 0.04256
1674.07101 0.04349
1672.78524 0.04439
1671.49947 0.04522
1670.21371 0.04603
1668.92794 0.04686
1667.64217 0.04771
1666.35640 0.04855
1665.07063 0.04938
1663.78486 0.05023
1662.49909 0.05112
1661.21332 0.05196
1659.92756 0.05270
1658.64179 0.05343
1657.35602 0.05430
1656.07025 0.05532
1654.78448 0.05626
1653.49871 0.05702
1652.21294 0.05759
1650.92717 0.05796
1649.64140 0.05810
1648.35564 0.05810
1647.06987 0.05813
1645.78410 0.05820
1644.49833 0.05819
1643.21256 0.05803
1641.92679 0.05776
1640.64102 0.05752
1639.35525 0.05739
1638.06949 0.05733
1636.78372 0.05721
1635.49795 0.05694
1634.21218 0.05647
1632.92641 0.05581
1631.64064 0.05507
1630.35487 0.05438
1629.06910 0.05380
1627.78333 0.05328
1626.49757 0.05270
1625.21180 0.05201
1623.92603 0.05124
1622.64026 0.05049
1621.35449 0.04981
1620.06872 0.04918
1618.78295 0.04853
1617.49718 0.04784
1616.21142 0.04718
1614.92565 0.04658
1613.63988 0.04599
1612.35411 0.04543
1611.06834 0.04493
1609.78257 0.04451
1608.49680 0.04417
1607.21103 0.04389
1605.92526 0.04366
1604.63950 0.04349
1603.35373 0.04338
1602.06796 0.04336
1600.78219 0.04341
1599.49642 0.04348
1598.21065 0.04354
1596.92488 0.04364
1595.63911 0.04382
1594.35335 0.04408
1593.06758 0.04437
1591.78181 0.04465
1590.49604 0.04488
1589.21027 0.04513
1587.92450 0.04544
1586.63873 0.04582
1585.35296 0.04626
1584.06719 0.04675
1582.78143 0.04732
1581.49566 0.04803
1580.20989 0.04890
1578.92412 0.04984
1577.63835 0.05068
1576.35258 0.05136
1575.06681 0.05196
1573.78104 0.05251
1572.49528 0.05300
1571.20951 0.05352
1569.92374 0.05409
1568.63797 0.05470
1567.35220 0.05525
1566.06643 0.05573
1564.78066 0.05626
1563.49489 0.05694
1562.20912 0.05771
1560.92336 0.05841
1559.63759 0.05896
1558.35182 0.05938
1557.06605 0.05960
1555.78028 0.05958
1554.49451 0.05943
1553.20874 0.05936
1551.92297 0.05938
1550.63721 0.05944
1549.35144 0.05951
1548.06567 0.05960
1546.77990 0.05967
1545.49413 0.05974
1544.20836 0.05980
1542.92259 0.05983
1541.63682 0.05973
1540.35105 0.05946
1539.06529 0.05907
1537.77952 0.05863
1536.49375 0.05815
1535.20798 0.05769
1533.92221 0.05736
1532.63644 0.05720
1531.35067 0.05715
1530.06490 0.05714
1528.77914 0.05718
1527.49337 0.05728
1526.20760 0.05743
1524.92183 0.05767
1523.63606 0.05795
1522.35029 0.05825
1521.06452 0.05858
1519.77875 0.05891
1518.49298 0.05919
1517.20722 0.05947
1515.92145 0.05984
1514.63568 0.06034
1513.34991 0.06094
1512.06414 0.06168
1510.77837 0.06257
1509.49260 0.06354
1508.20683 0.06443
1506.92107 0.06518
1505.63530 0.06577
1504.34953 0.06621
1503.06376 0.06651
1501.77799 0.06680
1500.49222 0.06717
1499.20645 0.06763
1497.92068 0.06806
1496.63491 0.06841
1495.34915 0.06869
1494.06338 0.06895
1492.77761 0.06922
1491.49184 0.06957
1490.20607 0.07007
1488.92030 0.07072
1487.63453 0.07139
1486.34876 0.07203
1485.06299 0.07265
1483.77723 0.07331
1482.49146 0.07405
1481.20569 0.07490
1479.91992 0.07583
1478.63415 0.07683
1477.34838 0.07790
1476.06261 0.07902
1474.77684 0.08008
1473.49108 0.08099
1472.20531 0.08172
1470.91954 0.08231
1469.63377 0.08281
1468.34800 0.08328
1467.06223 0.08377
1465.77646 0.08428
1464.49069 0.08481
1463.20492 0.08538
1461.91916 0.08606
1460.63339 0.08684
1459.34762 0.08766
1458.06185 0.08845
1456.77608 0.08922
1455.49031 0.08995
1454.20454 0.09053
1452.91877 0.09095
1451.63301 0.09130
1450.34724 0.09167
1449.06147 0.09203
1447.77570 0.09234
1446.48993 0.09256
1445.20416 0.09265
1443.91839 0.09263
1442.63262 0.09256
1441.34685 0.09249
1440.06109 0.09240
1438.77532 0.09226
1437.48955 0.09214
1436.20378 0.09213
1434.91801 0.09231
1433.63224 0.09265
1432.34647 0.09311
1431.06070 0.09370
1429.77494 0.09445
1428.48917 0.09533
1427.20340 0.09634
1425.91763 0.09744
1424.63186 0.09865
1423.34609 0.09995
1422.06032 0.10124
1420.77455 0.10241
1419.48878 0.10344
1418.20302 0.10436
1416.91725 0.10515
1415.63148 0.10579
1414.34571 0.10631
1413.05994 0.10671
1411.77417 0.10701
1410.48840 0.10716
1409.20263 0.10714
1407.91687 0.10690
1406.63110 0.10642
1405.34533 0.10571
1404.05956 0.10483
1402.77379 0.10378
1401.48802 0.10258
1400.20225 0.10122
1398.91648 0.09979
1397.63071 0.09832
1396.34495 0.09681
1395.05918 0.09525
1393.77341 0.09364
1392.48764 0.09196
1391.20187 0.09024
1389.91610 0.08849
1388.63033 0.08676
1387.34456 0.08506
1386.05880 0.08335
1384.77303 0.08157
1383.48726 0.07969
1382.20149 0.07775
1380.91572 0.07584
1379.62995 0.07400
1378.34418 0.07223
1377.05841 0.07050
1375.77264 0.06872
1374.48688 0.06688
1373.20111 0.06501
1371.91534 0.06314
1370.62957 0.06133
1369.34380 0.05959
1368.05803 0.05796
1366.77226 0.05646
1365.48649 0.05508
1364.20073 0.05375
1362.91496 0.05245
1361.62919 0.05115
1360.34342 0.04990
1359.05765 0.04874
1357.77188 0.04769
1356.48611 0.04676
1355.20034 0.04589
1353.91457 0.04508
1352.62881 0.04435
1351.34304 0.04374
1350.05727 0.04325
1348.77150 0.04281
1347.48573 0.04232
1346.19996 0.04176
1344.91419 0.04121
1343.62842 0.04073
1342.34266 0.04035
1341.05689 0.04001
1339.77112 0.03965
1338.48535 0.03927
1337.19958 0.03887
1335.91381 0.03844
1334.62804 0.03804
1333.34227 0.03769
1332.05650 0.03738
1330.77074 0.03706
1329.48497 0.03669
1328.19920 0.03626
1326.91343 0.03580
1325.62766 0.03538
1324.34189 0.03501
1323.05612 0.03470
1321.77035 0.03440
1320.48459 0.03412
1319.19882 0.03384
1317.91305 0.03356
1316.62728 0.03329
1315.34151 0.03302
1314.05574 0.03276
1312.76997 0.03249
1311.48420 0.03220
1310.19843 0.03189
1308.91267 0.03156
1307.62690 0.03124
1306.34113 0.03095
1305.05536 0.03071
1303.76959 0.03050
1302.48382 0.03029
1301.19805 0.03006
1299.91228 0.02979
1298.62652 0.02950
1297.34075 0.02923
1296.05498 0.02898
1294.76921 0.02874
1293.48344 0.02852
1292.19767 0.02834
1290.91190 0.02822
1289.62613 0.02814
1288.34036 0.02808
1287.05460 0.02801
1285.76883 0.02791
1284.48306 0.02778
1283.19729 0.02764
1281.91152 0.02751
1280.62575 0.02740
1279.33998 0.02731
1278.05421 0.02722
1276.76845 0.02715
1275.48268 0.02707
1274.19691 0.02697
1272.91114 0.02684
1271.62537 0.02670
1270.33960 0.02656
1269.05383 0.02645
1267.76806 0.02639
1266.48229 0.02638
1265.19653 0.02637
1263.91076 0.02637
1262.62499 0.02637
1261.33922 0.02635
1260.05345 0.02630
1258.76768 0.02622
1257.48191 0.02614
1256.19614 0.02610
1254.91037 0.02610
1253.62461 0.02611
1252.33884 0.02611
1251.05307 0.02609
1249.76730 0.02605
1248.48153 0.02597
1247.19576 0.02587
1245.90999 0.02575
1244.62422 0.02566
1243.33846 0.02558
1242.05269 0.02552
1240.76692 0.02545
1239.48115 0.02536
1238.19538 0.02526
1236.90961 0.02517
1235.62384 0.02508
1234.33807 0.02496
1233.05230 0.02483
1231.76654 0.02467
1230.48077 0.02448
1229.19500 0.02426
1227.90923 0.02401
1226.62346 0.02378
1225.33769 0.02357
1224.05192 0.02338
1222.76615 0.02312
1221.48039 0.02278
1220.19462 0.02239
1218.90885 0.02202
1217.62308 0.02171
1216.33731 0.02145
1215.05154 0.02121
1213.76577 0.02099
1212.48000 0.02082
1211.19423 0.02072
1209.90847 0.02069
1208.62270 0.02071
1207.33693 0.02076
1206.05116 0.02081
1204.76539 0.02086
1203.47962 0.02088
1202.19385 0.02079
1200.90808 0.02052
1199.62232 0.02025
1198.33655 0.02009
1197.05078 0.01989
1195.76501 0.01966
1194.47924 0.01944
1193.19347 0.01925
1191.90770 0.01907
1190.62193 0.01892
1189.33616 0.01877
1188.05040 0.01862
1186.76463 0.01847
1185.47886 0.01832
1184.19309 0.01817
1182.90732 0.01802
1181.62155 0.01790
1180.33578 0.01782
1179.05001 0.01777
1177.76425 0.01772
1176.47848 0.01767
1175.19271 0.01766
1173.90694 0.01771
1172.62117 0.01779
1171.33540 0.01786
1170.04963 0.01789
1168.76386 0.01790
1167.47809 0.01791
1166.19233 0.01795
1164.90656 0.01801
1163.62079 0.01806
1162.33502 0.01809
1161.04925 0.01809
1159.76348 0.01805
1158.47771 0.01805
1157.19194 0.01816
1155.90618 0.01841
1154.62041 0.01870
1153.33464 0.01891
1152.04887 0.01900
1150.76310 0.01906
1149.47733 0.01916
1148.19156 0.01934
1146.90579 0.01959
1145.62002 0.01990
1144.33426 0.02031
1143.04849 0.02083
1141.76272 0.02145
1140.47695 0.02218
1139.19118 0.02297
1137.90541 0.02382
1136.61964 0.02475
1135.33387 0.02576
1134.04811 0.02691
1132.76234 0.02819
1131.47657 0.02965
1130.19080 0.03129
1128.90503 0.03314
1127.61926 0.03522
1126.33349 0.03751
1125.04772 0.03994
1123.76195 0.04250
1122.47619 0.04519
1121.19042 0.04800
1119.90465 0.05087
1118.61888 0.05376
1117.33311 0.05665
1116.04734 0.05952
1114.76157 0.06234
1113.47580 0.06508
1112.19004 0.06775
1110.90427 0.07037
1109.61850 0.07299
1108.33273 0.07562
1107.04696 0.07822
1105.76119 0.08074
1104.47542 0.08314
1103.18965 0.08537
1101.90388 0.08744
1100.61812 0.08940
1099.33235 0.09137
1098.04658 0.09339
1096.76081 0.09547
1095.47504 0.09751
1094.18927 0.09942
1092.90350 0.10112
1091.61773 0.10261
1090.33197 0.10397
1089.04620 0.10528
1087.76043 0.10664
1086.47466 0.10803
1085.18889 0.10945
1083.90312 0.11090
1082.61735 0.11242
1081.33158 0.11406
1080.04581 0.11584
1078.76005 0.11778
1077.47428 0.11986
1076.18851 0.12202
1074.90274 0.12421
1073.61697 0.12645
1072.33120 0.12876
1071.04543 0.13117
1069.75966 0.13369
1068.47390 0.13631
1067.18813 0.13903
1065.90236 0.14180
1064.61659 0.14453
1063.33082 0.14720
1062.04505 0.14988
1060.75928 0.15263
1059.47351 0.15539
1058.18774 0.15806
1056.90198 0.16057
1055.61621 0.16300
1054.33044 0.16545
1053.04467 0.16797
1051.75890 0.17058
1050.47313 0.17325
1049.18736 0.17593
1047.90159 0.17859
1046.61583 0.18125
1045.33006 0.18395
1044.04429 0.18676
1042.75852 0.18964
1041.47275 0.19255
1040.18698 0.19545
1038.90121 0.19835
1037.61544 0.20124
1036.32967 0.20409
1035.04391 0.20689
1033.75814 0.20966
1032.47237 0.21237
1031.18660 0.21491
1029.90083 0.21721
1028.61506 0.21926
1027.32929 0.22107
1026.04352 0.22267
1024.75775 0.22403
1023.47199 0.22516
1022.18622 0.22607
1020.90045 0.22677
1019.61468 0.22722
1018.32891 0.22732
1017.04314 0.22704
1015.75737 0.22637
1014.47160 0.22537
1013.18584 0.22407
1011.90007 0.22243
1010.61430 0.22040
1009.32853 0.21800
1008.04276 0.21523
1006.75699 0.21215
1005.47122 0.20875
1004.18545 0.20505
1002.89968 0.20106
1001.61392 0.19684
1000.32815 0.19241
999.04238 0.18781
997.75661 0.18310
996.47084 0.17830
995.18507 0.17341
993.89930 0.16843
992.61353 0.16338
991.32777 0.15829
990.04200 0.15321
988.75623 0.14823
987.47046 0.14337
986.18469 0.13864
984.89892 0.13401
983.61315 0.12952
982.32738 0.12523
981.04161 0.12119
979.75585 0.11737
978.47008 0.11372
977.18431 0.11027
975.89854 0.10709
974.61277 0.10426
973.32700 0.10181
972.04123 0.09979
970.75546 0.09827
969.46970 0.09733
968.18393 0.09699
966.89816 0.09714
965.61239 0.09764
964.32662 0.09825
963.04085 0.09876
961.75508 0.09901
960.46931 0.09895
959.18354 0.09848
957.89778 0.09750
956.61201 0.09601
955.32624 0.09417
954.04047 0.09220
952.75470 0.09022
951.46893 0.08820
950.18316 0.08610
948.89739 0.08395
947.61163 0.08181
946.32586 0.07977
945.04009 0.07783
943.75432 0.07599
942.46855 0.07421
941.18278 0.07249
939.89701 0.07086
938.61124 0.06933
937.32547 0.06784
936.03971 0.06638
934.75394 0.06495
933.46817 0.06363
932.18240 0.06246
930.89663 0.06144
929.61086 0.06052
928.32509 0.05960
927.03932 0.05862
925.75356 0.05758
924.46779 0.05663
923.18202 0.05584
921.89625 0.05517
920.61048 0.05448
919.32471 0.05368
918.03894 0.05280
916.75317 0.05197
915.46740 0.05129
914.18164 0.05076
912.89587 0.05030
911.61010 0.04982
910.32433 0.04927
909.03856 0.04865
907.75279 0.04805
906.46702 0.04752
905.18125 0.04707
903.89549 0.04667
902.60972 0.04627
901.32395 0.04585
900.03818 0.04539
898.75241 0.04487
897.46664 0.04428
896.18087 0.04369
894.89510 0.04318
893.60933 0.04284
892.32357 0.04268
891.03780 0.04264
889.75203 0.04269
888.46626 0.04284
887.18049 0.04321
885.89472 0.04397
884.60895 0.04537
883.32318 0.04754
882.03742 0.05029
880.75165 0.05312
879.46588 0.05545
878.18011 0.05709
876.89434 0.05832
875.60857 0.05959
874.32280 0.06112
873.03703 0.06267
871.75126 0.06379
870.46550 0.06416
869.17973 0.06374
867.89396 0.06261
866.60819 0.06091
865.32242 0.05878
864.03665 0.05646
862.75088 0.05416
861.46511 0.05204
860.17935 0.05022
858.89358 0.04867
857.60781 0.04732
856.32204 0.04613
855.03627 0.04512
853.75050 0.04433
852.46473 0.04374
851.17896 0.04326
849.89319 0.04280
848.60743 0.04232
847.32166 0.04183
846.03589 0.04139
844.75012 0.04101
843.46435 0.04067
842.17858 0.04036
840.89281 0.04009
839.60704 0.03985
838.32128 0.03966
837.03551 0.03944
835.74974 0.03916
834.46397 0.03882
833.17820 0.03847
831.89243 0.03815
830.60666 0.03787
829.32089 0.03767
828.03512 0.03760
826.74936 0.03762
825.46359 0.03761
824.17782 0.03749
822.89205 0.03726
821.60628 0.03703
820.32051 0.03686
819.03474 0.03675
817.74897 0.03666
816.46321 0.03656
815.17744 0.03644
813.89167 0.03632
812.60590 0.03624
811.32013 0.03620
810.03436 0.03613
808.74859 0.03598
807.46282 0.03577
806.17705 0.03556
804.89129 0.03536
803.60552 0.03518
802.31975 0.03509
801.03398 0.03510
799.74821 0.03518
798.46244 0.03524
797.17667 0.03526
795.89090 0.03523
794.60513 0.03518
793.31937 0.03513
792.03360 0.03509
790.74783 0.03505
789.46206 0.03500
788.17629 0.03494
786.89052 0.03489
785.60475 0.03488
784.31898 0.03488
783.03322 0.03481
781.74745 0.03467
780.46168 0.03451
779.17591 0.03441
777.89014 0.03435
776.60437 0.03428
775.31860 0.03420
774.03283 0.03418
772.74706 0.03423
771.46130 0.03428
770.17553 0.03427
768.88976 0.03425
767.60399 0.03429
766.31822 0.03438
765.03245 0.03447
763.74668 0.03454
762.46091 0.03460
761.17515 0.03468
759.88938 0.03474
758.60361 0.03477
757.31784 0.03474
756.03207 0.03468
754.74630 0.03465
753.46053 0.03464
752.17476 0.03460
750.88899 0.03449
749.60323 0.03431
748.31746 0.03415
747.03169 0.03406
745.74592 0.03407
744.46015 0.03410
743.17438 0.03411
741.88861 0.03405
740.60284 0.03400
739.31708 0.03404
738.03131 0.03416
736.74554 0.03425
735.45977 0.03425
734.17400 0.03422
732.88823 0.03420
731.60246 0.03421
730.31669 0.03419
729.03092 0.03413
727.74516 0.03409
726.45939 0.03408
725.17362 0.03407
723.88785 0.03399
722.60208 0.03409
721.31631 0.03451
720.03054 0.03498
718.74477 0.03531
717.45901 0.03542
716.17324 0.03535
714.88747 0.03516
713.60170 0.03491
712.31593 0.03466
711.03016 0.03444
709.74439 0.03427
708.45862 0.03414
707.17285 0.03404
705.88709 0.03399
704.60132 0.03397
703.31555 0.03400
702.02978 0.03406
700.74401 0.03413
699.45824 0.03421
698.17247 0.03429
696.88670 0.03440
695.60094 0.03456
694.31517 0.03473
693.02940 0.03483
691.74363 0.03484
690.45786 0.03478
689.17209 0.03467
687.88632 0.03453
686.60055 0.03436
685.31478 0.03414
684.02902 0.03391
682.74325 0.03369
681.45748 0.03350
680.17171 0.03336
678.88594 0.03327
677.60017 0.03325
676.31440 0.03330
675.02863 0.03343
673.74287 0.03364
672.45710 0.03395
671.17133 0.03424
669.88556 0.03413
668.59979 0.03347
667.31402 0.03351
666.02825 0.03449
664.74248 0.03476
663.45671 0.03447
662.17095 0.03408
660.88518 0.03374
659.59941 0.03348
658.31364 0.03329
657.02787 0.03309
655.74210 0.03285
654.45633 0.03259
653.17056 0.03236
651.88480 0.03220
650.59903 0.03212
649.31326 0.03207
648.02749 0.03202
646.74172 0.03190
645.45595 0.03173
644.17018 0.03154
642.88441 0.03135
641.59864 0.03115
640.31288 0.03093
639.02711 0.03072
637.74134 0.03058
636.45557 0.03056
635.16980 0.03070
633.88403 0.03094
632.59826 0.03109
631.31249 0.03080
630.02673 0.03100
628.74096 0.03358
627.45519 0.03429
626.16942 0.03853
624.88365 0.04512
623.59788 0.05117
622.31211 0.05537
621.02634 0.05749
619.74057 0.05799
618.45481 0.05752
617.16904 0.05648
615.88327 0.05539
614.59750 0.05547
613.31173 0.05839
612.02596 0.06478
610.74019 0.07304
609.45442 0.08058
608.16866 0.08639
606.88289 0.09125
605.59712 0.09577
604.31135 0.09938
603.02558 0.10112
601.73981 0.10066
600.45404 0.09854
599.16827 0.09561
597.88250 0.09250
596.59674 0.08947
595.31097 0.08659
594.02520 0.08392
592.73943 0.08162
591.45366 0.07981
590.16789 0.07853
588.88212 0.07778
587.59635 0.07765
586.31059 0.07828
585.02482 0.07969
583.73905 0.08173
582.45328 0.08409
581.16751 0.08648
579.88174 0.08873
578.59597 0.09084
577.31020 0.09287
576.02443 0.09494
574.73867 0.09712
573.45290 0.09941
572.16713 0.10184
570.88136 0.10448
569.59559 0.10741
568.30982 0.11059
567.02405 0.11389
565.73828 0.11709
564.45251 0.11991
563.16675 0.12197
561.88098 0.12296
560.59521 0.12266
559.30944 0.12105
558.02367 0.11824
556.73790 0.11445
555.45213 0.10995
554.16636 0.10503
552.88060 0.09998
551.59483 0.09506
550.30906 0.09046
549.02329 0.08625
547.73752 0.08236
546.45175 0.07875
545.16598 0.07544
543.88021 0.07245
542.59444 0.06982
541.30868 0.06750
540.02291 0.06543
538.73714 0.06350
537.45137 0.06163
536.16560 0.05983
534.87983 0.05821
533.59406 0.05684
532.30829 0.05569
531.02253 0.05463
529.73676 0.05355
528.45099 0.05241
527.16522 0.05123
525.87945 0.05010
524.59368 0.04909
523.30791 0.04819
522.02214 0.04736
520.73637 0.04648
519.45061 0.04550
518.16484 0.04445
516.87907 0.04343
515.59330 0.04254
514.30753 0.04179
513.02176 0.04116
511.73599 0.04061
510.45022 0.04009
509.16446 0.03954
507.87869 0.03895
506.59292 0.03837
505.30715 0.03786
504.02138 0.03743
502.73561 0.03702
501.44984 0.03657
500.16407 0.03608
498.87830 0.03561
497.59254 0.03519
496.30677 0.03481
495.02100 0.03443
493.73523 0.03405
492.44946 0.03369
491.16369 0.03341
489.87792 0.03324
488.59215 0.03314
487.30639 0.03304
486.02062 0.03286
484.73485 0.03262
483.44908 0.03237
482.16331 0.03213
480.87754 0.03191
479.59177 0.03172
478.30600 0.03157
477.02023 0.03151
475.73447 0.03157
474.44870 0.03177
473.16293 0.03205
471.87716 0.03230
470.59139 0.03243
469.30562 0.03243
468.01985 0.03232
466.73408 0.03209
465.44832 0.03174
464.16255 0.03125
462.87678 0.03072
461.59101 0.03022
460.30524 0.02979
459.01947 0.02942
457.73370 0.02906
456.44793 0.02871
455.16216 0.02831
453.87640 0.02791
452.59063 0.02754
451.30486 0.02725
450.01909 0.02702
448.73332 0.02681
447.44755 0.02655
446.16178 0.02627
444.87601 0.02598
443.59025 0.02573
442.30448 0.02551
441.01871 0.02533
439.73294 0.02516
438.44717 0.02503
437.16140 0.02491
435.87563 0.02478
434.58986 0.02461
433.30409 0.02440
432.01833 0.02419
430.73256 0.02397
429.44679 0.02377
428.16102 0.02362
426.87525 0.02353
425.58948 0.02347
424.30371 0.02341
423.01794 0.02333
421.73218 0.02326
420.44641 0.02320
419.16064 0.02312
417.87487 0.02295
416.58910 0.02269
415.30333 0.02239
414.01756 0.02215
412.73179 0.02202
411.44602 0.02198
410.16026 0.02200
408.87449 0.02204
407.58872 0.02206
406.30295 0.02207
405.01718 0.02205
403.73141 0.02204
402.44564 0.02203
401.15987 0.02204
399.87411 0.02205
