3997.45528	0.03917
3996.16951	0.03988
3994.88374	0.04014
3993.59798	0.03963
3992.31221	0.03848
3991.02644	0.03718
3989.74067	0.03628
3988.45490	0.03598
3987.16913	0.03607
3985.88336	0.03624
3984.59759	0.03645
3983.31183	0.03692
3982.02606	0.03777
3980.74029	0.03886
3979.45452	0.03987
3978.16875	0.04047
3976.88298	0.04056
3975.59721	0.04026
3974.31144	0.03979
3973.02567	0.03929
3971.73991	0.03877
3970.45414	0.03819
3969.16837	0.03760
3967.88260	0.03717
3966.59683	0.03706
3965.31106	0.03725
3964.02529	0.03753
3962.73952	0.03780
3961.45376	0.03814
3960.16799	0.03867
3958.88222	0.03919
3957.59645	0.03948
3956.31068	0.03953
3955.02491	0.03959
3953.73914	0.03974
3952.45337	0.03986
3951.16760	0.03988
3949.88184	0.03997
3948.59607	0.04032
3947.31030	0.04083
3946.02453	0.04118
3944.73876	0.04118
3943.45299	0.04094
3942.16722	0.04072
3940.88145	0.04061
3939.59569	0.04050
3938.30992	0.04027
3937.02415	0.03993
3935.73838	0.03962
3934.45261	0.03942
3933.16684	0.03928
3931.88107	0.03905
3930.59530	0.03864
3929.30953	0.03828
3928.02377	0.03831
3926.73800	0.03885
3925.45223	0.03957
3924.16646	0.04007
3922.88069	0.04026
3921.59492	0.04029
3920.30915	0.04017
3919.02338	0.03956
3917.73762	0.03824
3916.45185	0.03662
3915.16608	0.03556
3913.88031	0.03562
3912.59454	0.03658
3911.30877	0.03776
3910.02300	0.03864
3908.73723	0.03918
3907.45146	0.03956
3906.16570	0.03982
3904.87993	0.03988
3903.59416	0.03968
3902.30839	0.03931
3901.02262	0.03902
3899.73685	0.03907
3898.45108	0.03943
3897.16531	0.03978
3895.87955	0.03976
3894.59378	0.03934
3893.30801	0.03886
3892.02224	0.03877
3890.73647	0.03917
3889.45070	0.03976
3888.16493	0.04008
3886.87916	0.03992
3885.59339	0.03938
3884.30763	0.03854
3883.02186	0.03750
3881.73609	0.03662
3880.45032	0.03640
3879.16455	0.03700
3877.87878	0.03800
3876.59301	0.03880
3875.30724	0.03896
3874.02148	0.03848
3872.73571	0.03769
3871.44994	0.03715
3870.16417	0.03730
3868.87840	0.03799
3867.59263	0.03851
3866.30686	0.03842
3865.02109	0.03796
3863.73532	0.03769
3862.44956	0.03781
3861.16379	0.03816
3859.87802	0.03845
3858.59225	0.03842
3857.30648	0.03790
3856.02071	0.03708
3854.73494	0.03647
3853.44917	0.03652
3852.16341	0.03714
3850.87764	0.03775
3849.59187	0.03799
3848.30610	0.03791
3847.02033	0.03775
3845.73456	0.03761
3844.44879	0.03749
3843.16302	0.03733
3841.87725	0.03708
3840.59149	0.03664
3839.30572	0.03604
3838.01995	0.03555
3836.73418	0.03543
3835.44841	0.03571
3834.16264	0.03625
3832.87687	0.03696
3831.59110	0.03769
3830.30534	0.03825
3829.01957	0.03849
3827.73380	0.03846
3826.44803	0.03844
3825.16226	0.03865
3823.87649	0.03898
3822.59072	0.03907
3821.30495	0.03870
3820.01918	0.03784
3818.73342	0.03661
3817.44765	0.03529
3816.16188	0.03436
3814.87611	0.03412
3813.59034	0.03444
3812.30457	0.03492
3811.01880	0.03533
3809.73303	0.03556
3808.44726	0.03566
3807.16150	0.03587
3805.87573	0.03632
3804.58996	0.03677
3803.30419	0.03683
3802.01842	0.03640
3800.73265	0.03572
3799.44688	0.03508
3798.16111	0.03474
3796.87535	0.03491
3795.58958	0.03555
3794.30381	0.03624
3793.01804	0.03656
3791.73227	0.03647
3790.44650	0.03620
3789.16073	0.03587
3787.87496	0.03539
3786.58919	0.03471
3785.30343	0.03404
3784.01766	0.03378
3782.73189	0.03410
3781.44612	0.03472
3780.16035	0.03522
3778.87458	0.03539
3777.58881	0.03531
3776.30304	0.03522
3775.01728	0.03531
3773.73151	0.03554
3772.44574	0.03568
3771.15997	0.03566
3769.87420	0.03558
3768.58843	0.03551
3767.30266	0.03542
3766.01689	0.03535
3764.73112	0.03538
3763.44536	0.03539
3762.15959	0.03507
3760.87382	0.03439
3759.58805	0.03367
3758.30228	0.03333
3757.01651	0.03353
3755.73074	0.03410
3754.44497	0.03472
3753.15921	0.03515
3751.87344	0.03534
3750.58767	0.03541
3749.30190	0.03556
3748.01613	0.03583
3746.73036	0.03592
3745.44459	0.03562
3744.15882	0.03521
3742.87305	0.03504
3741.58729	0.03516
3740.30152	0.03543
3739.01575	0.03557
3737.72998	0.03530
3736.44421	0.03460
3735.15844	0.03375
3733.87267	0.03296
3732.58690	0.03222
3731.30114	0.03152
3730.01537	0.03096
3728.72960	0.03073
3727.44383	0.03101
3726.15806	0.03180
3724.87229	0.03293
3723.58652	0.03415
3722.30075	0.03523
3721.01498	0.03591
3719.72922	0.03602
3718.44345	0.03568
3717.15768	0.03523
3715.87191	0.03499
3714.58614	0.03508
3713.30037	0.03543
3712.01460	0.03590
3710.72883	0.03623
3709.44307	0.03612
3708.15730	0.03537
3706.87153	0.03400
3705.58576	0.03229
3704.29999	0.03071
3703.01422	0.02976
3701.72845	0.02976
3700.44268	0.03065
3699.15691	0.03203
3697.87115	0.03343
3696.58538	0.03460
3695.29961	0.03541
3694.01384	0.03581
3692.72807	0.03590
3691.44230	0.03579
3690.15653	0.03552
3688.87076	0.03527
3687.58500	0.03527
3686.29923	0.03563
3685.01346	0.03616
3683.72769	0.03653
3682.44192	0.03641
3681.15615	0.03579
3679.87038	0.03499
3678.58461	0.03427
3677.29884	0.03371
3676.01308	0.03342
3674.72731	0.03361
3673.44154	0.03433
3672.15577	0.03524
3670.87000	0.03575
3669.58423	0.03529
3668.29846	0.03375
3667.01269	0.03176
3665.72693	0.03039
3664.44116	0.03026
3663.15539	0.03111
3661.86962	0.03214
3660.58385	0.03280
3659.29808	0.03295
3658.01231	0.03275
3656.72654	0.03253
3655.44077	0.03256
3654.15501	0.03290
3652.86924	0.03338
3651.58347	0.03388
3650.29770	0.03447
3649.01193	0.03518
3647.72616	0.03588
3646.44039	0.03628
3645.15462	0.03627
3643.86886	0.03599
3642.58309	0.03572
3641.29732	0.03571
3640.01155	0.03602
3638.72578	0.03659
3637.44001	0.03735
3636.15424	0.03817
3634.86847	0.03884
3633.58270	0.03912
3632.29694	0.03883
3631.01117	0.03799
3629.72540	0.03695
3628.43963	0.03620
3627.15386	0.03607
3625.86809	0.03652
3624.58232	0.03736
3623.29655	0.03832
3622.01079	0.03913
3620.72502	0.03974
3619.43925	0.04027
3618.15348	0.04073
3616.86771	0.04087
3615.58194	0.04054
3614.29617	0.03998
3613.01040	0.03966
3611.72463	0.03980
3610.43887	0.04014
3609.15310	0.04022
3607.86733	0.03991
3606.58156	0.03946
3605.29579	0.03931
3604.01002	0.03969
3602.72425	0.04038
3601.43848	0.04100
3600.15272	0.04135
3598.86695	0.04144
3597.58118	0.04135
3596.29541	0.04104
3595.00964	0.04055
3593.72387	0.04008
3592.43810	0.03993
3591.15233	0.04028
3589.86656	0.04099
3588.58080	0.04178
3587.29503	0.04239
3586.00926	0.04282
3584.72349	0.04325
3583.43772	0.04383
3582.15195	0.04447
3580.86618	0.04490
3579.58041	0.04496
3578.29464	0.04462
3577.00888	0.04400
3575.72311	0.04335
3574.43734	0.04306
3573.15157	0.04337
3571.86580	0.04414
3570.58003	0.04487
3569.29426	0.04520
3568.00849	0.04519
3566.72273	0.04509
3565.43696	0.04507
3564.15119	0.04519
3562.86542	0.04552
3561.57965	0.04608
3560.29388	0.04674
3559.00811	0.04725
3557.72234	0.04741
3556.43657	0.04711
3555.15081	0.04649
3553.86504	0.04591
3552.57927	0.04579
3551.29350	0.04632
3550.00773	0.04732
3548.72196	0.04847
3547.43619	0.04954
3546.15042	0.05034
3544.86466	0.05080
3543.57889	0.05094
3542.29312	0.05088
3541.00735	0.05067
3539.72158	0.05033
3538.43581	0.04991
3537.15004	0.04966
3535.86427	0.04986
3534.57850	0.05057
3533.29274	0.05149
3532.00697	0.05217
3530.72120	0.05236
3529.43543	0.05216
3528.14966	0.05184
3526.86389	0.05163
3525.57812	0.05158
3524.29235	0.05158
3523.00659	0.05157
3521.72082	0.05155
3520.43505	0.05155
3519.14928	0.05151
3517.86351	0.05133
3516.57774	0.05111
3515.29197	0.05107
3514.00620	0.05130
3512.72043	0.05151
3511.43467	0.05141
3510.14890	0.05113
3508.86313	0.05100
3507.57736	0.05119
3506.29159	0.05151
3505.00582	0.05173
3503.72005	0.05183
3502.43428	0.05195
3501.14852	0.05218
3499.86275	0.05256
3498.57698	0.05307
3497.29121	0.05370
3496.00544	0.05450
3494.71967	0.05546
3493.43390	0.05648
3492.14813	0.05733
3490.86236	0.05776
3489.57660	0.05770
3488.29083	0.05724
3487.00506	0.05667
3485.71929	0.05623
3484.43352	0.05596
3483.14775	0.05568
3481.86198	0.05529
3480.57621	0.05498
3479.29045	0.05510
3478.00468	0.05567
3476.71891	0.05637
3475.43314	0.05688
3474.14737	0.05719
3472.86160	0.05747
3471.57583	0.05776
3470.29006	0.05797
3469.00429	0.05801
3467.71853	0.05792
3466.43276	0.05779
3465.14699	0.05765
3463.86122	0.05748
3462.57545	0.05733
3461.28968	0.05731
3460.00391	0.05751
3458.71814	0.05784
3457.43238	0.05811
3456.14661	0.05811
3454.86084	0.05786
3453.57507	0.05758
3452.28930	0.05767
3451.00353	0.05835
3449.71776	0.05943
3448.43199	0.06033
3447.14622	0.06052
3445.86046	0.05996
3444.57469	0.05910
3443.28892	0.05857
3442.00315	0.05874
3440.71738	0.05941
3439.43161	0.06007
3438.14584	0.06030
3436.86007	0.06008
3435.57431	0.05979
3434.28854	0.05990
3433.00277	0.06052
3431.71700	0.06128
3430.43123	0.06167
3429.14546	0.06150
3427.85969	0.06101
3426.57392	0.06071
3425.28815	0.06098
3424.00239	0.06175
3422.71662	0.06258
3421.43085	0.06295
3420.14508	0.06265
3418.85931	0.06199
3417.57354	0.06152
3416.28777	0.06160
3415.00200	0.06217
3413.71624	0.06284
3412.43047	0.06326
3411.14470	0.06332
3409.85893	0.06314
3408.57316	0.06291
3407.28739	0.06279
3406.00162	0.06283
3404.71585	0.06289
3403.43008	0.06281
3402.14432	0.06258
3400.85855	0.06237
3399.57278	0.06238
3398.28701	0.06256
3397.00124	0.06271
3395.71547	0.06267
3394.42970	0.06252
3393.14393	0.06253
3391.85817	0.06283
3390.57240	0.06327
3389.28663	0.06350
3388.00086	0.06346
3386.71509	0.06331
3385.42932	0.06322
3384.14355	0.06317
3382.85778	0.06315
3381.57201	0.06328
3380.28625	0.06368
3379.00048	0.06425
3377.71471	0.06475
3376.42894	0.06509
3375.14317	0.06535
3373.85740	0.06567
3372.57163	0.06601
3371.28586	0.06620
3370.00010	0.06616
3368.71433	0.06597
3367.42856	0.06578
3366.14279	0.06562
3364.85702	0.06536
3363.57125	0.06501
3362.28548	0.06478
3360.99971	0.06487
3359.71394	0.06516
3358.42818	0.06526
3357.14241	0.06495
3355.85664	0.06448
3354.57087	0.06438
3353.28510	0.06485
3351.99933	0.06552
3350.71356	0.06581
3349.42779	0.06553
3348.14202	0.06497
3346.85626	0.06451
3345.57049	0.06434
3344.28472	0.06441
3342.99895	0.06450
3341.71318	0.06441
3340.42741	0.06414
3339.14164	0.06398
3337.85587	0.06419
3336.57011	0.06472
3335.28434	0.06525
3333.99857	0.06550
3332.71280	0.06546
3331.42703	0.06531
3330.14126	0.06520
3328.85549	0.06515
3327.56972	0.06511
3326.28395	0.06516
3324.99819	0.06533
3323.71242	0.06547
3322.42665	0.06535
3321.14088	0.06494
3319.85511	0.06453
3318.56934	0.06446
3317.28357	0.06478
3315.99780	0.06530
3314.71204	0.06573
3313.42627	0.06594
3312.14050	0.06589
3310.85473	0.06565
3309.56896	0.06532
3308.28319	0.06507
3306.99742	0.06500
3305.71165	0.06504
3304.42588	0.06502
3303.14012	0.06490
3301.85435	0.06480
3300.56858	0.06492
3299.28281	0.06532
3297.99704	0.06589
3296.71127	0.06640
3295.42550	0.06662
3294.13973	0.06648
3292.85397	0.06608
3291.56820	0.06561
3290.28243	0.06531
3288.99666	0.06530
3287.71089	0.06550
3286.42512	0.06564
3285.13935	0.06549
3283.85358	0.06502
3282.56781	0.06445
3281.28205	0.06409
3279.99628	0.06406
3278.71051	0.06424
3277.42474	0.06435
3276.13897	0.06433
3274.85320	0.06426
3273.56743	0.06420
3272.28166	0.06401
3270.99590	0.06356
3269.71013	0.06302
3268.42436	0.06267
3267.13859	0.06272
3265.85282	0.06320
3264.56705	0.06395
3263.28128	0.06462
3261.99551	0.06487
3260.70974	0.06463
3259.42398	0.06414
3258.13821	0.06372
3256.85244	0.06351
3255.56667	0.06349
3254.28090	0.06358
3252.99513	0.06376
3251.70936	0.06391
3250.42359	0.06386
3249.13783	0.06349
3247.85206	0.06294
3246.56629	0.06249
3245.28052	0.06236
3243.99475	0.06248
3242.70898	0.06259
3241.42321	0.06261
3240.13744	0.06255
3238.85167	0.06243
3237.56591	0.06215
3236.28014	0.06166
3234.99437	0.06110
3233.70860	0.06068
3232.42283	0.06063
3231.13706	0.06099
3229.85129	0.06154
3228.56552	0.06189
3227.27976	0.06179
3225.99399	0.06138
3224.70822	0.06100
3223.42245	0.06087
3222.13668	0.06097
3220.85091	0.06122
3219.56514	0.06156
3218.27937	0.06202
3216.99360	0.06258
3215.70784	0.06301
3214.42207	0.06305
3213.13630	0.06264
3211.85053	0.06199
3210.56476	0.06144
3209.27899	0.06124
3207.99322	0.06140
3206.70745	0.06176
3205.42169	0.06207
3204.13592	0.06213
3202.85015	0.06190
3201.56438	0.06148
3200.27861	0.06101
3198.99284	0.06061
3197.70707	0.06026
3196.42130	0.05984
3195.13553	0.05932
3193.84977	0.05882
3192.56400	0.05847
3191.27823	0.05823
3189.99246	0.05802
3188.70669	0.05793
3187.42092	0.05809
3186.13515	0.05845
3184.84938	0.05874
3183.56362	0.05876
3182.27785	0.05858
3180.99208	0.05844
3179.70631	0.05850
3178.42054	0.05865
3177.13477	0.05869
3175.84900	0.05859
3174.56323	0.05849
3173.27746	0.05846
3171.99170	0.05834
3170.70593	0.05797
3169.42016	0.05751
3168.13439	0.05735
3166.84862	0.05770
3165.56285	0.05826
3164.27708	0.05855
3162.99131	0.05842
3161.70555	0.05813
3160.41978	0.05803
3159.13401	0.05819
3157.84824	0.05844
3156.56247	0.05864
3155.27670	0.05870
3153.99093	0.05850
3152.70516	0.05794
3151.41939	0.05706
3150.13363	0.05615
3148.84786	0.05551
3147.56209	0.05529
3146.27632	0.05537
3144.99055	0.05553
3143.70478	0.05568
3142.41901	0.05588
3141.13324	0.05616
3139.84748	0.05641
3138.56171	0.05644
3137.27594	0.05622
3135.99017	0.05590
3134.70440	0.05562
3133.41863	0.05540
3132.13286	0.05519
3130.84709	0.05497
3129.56132	0.05481
3128.27556	0.05476
3126.98979	0.05479
3125.70402	0.05482
3124.41825	0.05478
3123.13248	0.05469
3121.84671	0.05459
3120.56094	0.05454
3119.27517	0.05466
3117.98940	0.05495
3116.70364	0.05525
3115.41787	0.05530
3114.13210	0.05508
3112.84633	0.05479
3111.56056	0.05464
3110.27479	0.05467
3108.98902	0.05481
3107.70325	0.05490
3106.41749	0.05483
3105.13172	0.05457
3103.84595	0.05422
3102.56018	0.05388
3101.27441	0.05360
3099.98864	0.05335
3098.70287	0.05308
3097.41710	0.05283
3096.13133	0.05264
3094.84557	0.05262
3093.55980	0.05282
3092.27403	0.05317
3090.98826	0.05347
3089.70249	0.05357
3088.41672	0.05345
3087.13095	0.05314
3085.84518	0.05273
3084.55942	0.05230
3083.27365	0.05196
3081.98788	0.05185
3080.70211	0.05207
3079.41634	0.05249
3078.13057	0.05285
3076.84480	0.05296
3075.55903	0.05288
3074.27326	0.05283
3072.98750	0.05289
3071.70173	0.05291
3070.41596	0.05276
3069.13019	0.05258
3067.84442	0.05260
3066.55865	0.05289
3065.27288	0.05319
3063.98711	0.05323
3062.70135	0.05289
3061.41558	0.05234
3060.12981	0.05181
3058.84404	0.05142
3057.55827	0.05117
3056.27250	0.05098
3054.98673	0.05085
3053.70096	0.05080
3052.41519	0.05085
3051.12943	0.05093
3049.84366	0.05095
3048.55789	0.05089
3047.27212	0.05083
3045.98635	0.05086
3044.70058	0.05100
3043.41481	0.05118
3042.12904	0.05118
3040.84328	0.05087
3039.55751	0.05034
3038.27174	0.04990
3036.98597	0.04980
3035.70020	0.04997
3034.41443	0.05014
3033.12866	0.05012
3031.84289	0.04995
3030.55712	0.04984
3029.27136	0.04994
3027.98559	0.05021
3026.69982	0.05044
3025.41405	0.05035
3024.12828	0.04986
3022.84251	0.04925
3021.55674	0.04889
3020.27097	0.04896
3018.98521	0.04924
3017.69944	0.04939
3016.41367	0.04923
3015.12790	0.04892
3013.84213	0.04871
3012.55636	0.04869
3011.27059	0.04877
3009.98482	0.04880
3008.69905	0.04869
3007.41329	0.04842
3006.12752	0.04802
3004.84175	0.04760
3003.55598	0.04728
3002.27021	0.04716
3000.98444	0.04724
2999.69867	0.04743
2998.41290	0.04756
2997.12714	0.04757
2995.84137	0.04755
2994.55560	0.04771
2993.26983	0.04808
2991.98406	0.04849
2990.69829	0.04870
2989.41252	0.04870
2988.12675	0.04865
2986.84098	0.04864
2985.55522	0.04860
2984.26945	0.04849
2982.98368	0.04840
2981.69791	0.04850
2980.41214	0.04880
2979.12637	0.04915
2977.84060	0.04939
2976.55483	0.04953
2975.26907	0.04972
2973.98330	0.05000
2972.69753	0.05030
2971.41176	0.05049
2970.12599	0.05057
2968.84022	0.05067
2967.55445	0.05094
2966.26868	0.05141
2964.98291	0.05202
2963.69715	0.05264
2962.41138	0.05323
2961.12561	0.05375
2959.83984	0.05416
2958.55407	0.05442
2957.26830	0.05446
2955.98253	0.05431
2954.69676	0.05410
2953.41100	0.05398
2952.12523	0.05401
2950.83946	0.05413
2949.55369	0.05423
2948.26792	0.05426
2946.98215	0.05429
2945.69638	0.05436
2944.41061	0.05446
2943.12484	0.05452
2941.83908	0.05450
2940.55331	0.05440
2939.26754	0.05430
2937.98177	0.05425
2936.69600	0.05427
2935.41023	0.05438
2934.12446	0.05460
2932.83869	0.05493
2931.55293	0.05530
2930.26716	0.05559
2928.98139	0.05576
2927.69562	0.05588
2926.40985	0.05604
2925.12408	0.05626
2923.83831	0.05646
2922.55254	0.05653
2921.26677	0.05648
2919.98101	0.05635
2918.69524	0.05611
2917.40947	0.05571
2916.12370	0.05520
2914.83793	0.05466
2913.55216	0.05414
2912.26639	0.05367
2910.98062	0.05327
2909.69486	0.05295
2908.40909	0.05264
2907.12332	0.05229
2905.83755	0.05193
2904.55178	0.05164
2903.26601	0.05146
2901.98024	0.05131
2900.69447	0.05111
2899.40870	0.05089
2898.12294	0.05074
2896.83717	0.05068
2895.55140	0.05056
2894.26563	0.05025
2892.97986	0.04975
2891.69409	0.04921
2890.40832	0.04878
2889.12255	0.04857
2887.83678	0.04858
2886.55102	0.04873
2885.26525	0.04888
2883.97948	0.04887
2882.69371	0.04873
2881.40794	0.04865
2880.12217	0.04872
2878.83640	0.04889
2877.55063	0.04900
2876.26487	0.04901
2874.97910	0.04896
2873.69333	0.04891
2872.40756	0.04889
2871.12179	0.04894
2869.83602	0.04908
2868.55025	0.04927
2867.26448	0.04933
2865.97871	0.04916
2864.69295	0.04885
2863.40718	0.04857
2862.12141	0.04847
2860.83564	0.04848
2859.54987	0.04848
2858.26410	0.04842
2856.97833	0.04835
2855.69256	0.04826
2854.40680	0.04801
2853.12103	0.04760
2851.83526	0.04716
2850.54949	0.04687
2849.26372	0.04673
2847.97795	0.04663
2846.69218	0.04642
2845.40641	0.04608
2844.12064	0.04567
2842.83488	0.04529
2841.54911	0.04496
2840.26334	0.04462
2838.97757	0.04419
2837.69180	0.04373
2836.40603	0.04336
2835.12026	0.04318
2833.83449	0.04311
2832.54873	0.04299
2831.26296	0.04270
2829.97719	0.04228
2828.69142	0.04185
2827.40565	0.04143
2826.11988	0.04104
2824.83411	0.04070
2823.54834	0.04051
2822.26257	0.04054
2820.97681	0.04077
2819.69104	0.04105
2818.40527	0.04119
2817.11950	0.04106
2815.83373	0.04072
2814.54796	0.04035
2813.26219	0.04009
2811.97642	0.03996
2810.69066	0.03994
2809.40489	0.03999
2808.11912	0.04004
2806.83335	0.03997
2805.54758	0.03976
2804.26181	0.03955
2802.97604	0.03951
2801.69027	0.03966
2800.40450	0.03983
2799.11874	0.03986
2797.83297	0.03973
2796.54720	0.03951
2795.26143	0.03926
2793.97566	0.03903
2792.68989	0.03891
2791.40412	0.03900
2790.11835	0.03926
2788.83259	0.03950
2787.54682	0.03959
2786.26105	0.03952
2784.97528	0.03941
2783.68951	0.03928
2782.40374	0.03910
2781.11797	0.03885
2779.83220	0.03857
2778.54643	0.03834
2777.26067	0.03820
2775.97490	0.03813
2774.68913	0.03806
2773.40336	0.03797
2772.11759	0.03790
2770.83182	0.03784
2769.54605	0.03776
2768.26028	0.03762
2766.97452	0.03747
2765.68875	0.03734
2764.40298	0.03726
2763.11721	0.03719
2761.83144	0.03714
2760.54567	0.03716
2759.25990	0.03727
2757.97413	0.03737
2756.68836	0.03741
2755.40260	0.03742
2754.11683	0.03747
2752.83106	0.03754
2751.54529	0.03754
2750.25952	0.03743
2748.97375	0.03720
2747.68798	0.03696
2746.40221	0.03681
2745.11645	0.03682
2743.83068	0.03692
2742.54491	0.03698
2741.25914	0.03697
2739.97337	0.03695
2738.68760	0.03697
2737.40183	0.03696
2736.11606	0.03688
2734.83029	0.03672
2733.54453	0.03653
2732.25876	0.03637
2730.97299	0.03628
2729.68722	0.03629
2728.40145	0.03640
2727.11568	0.03654
2725.82991	0.03656
2724.54414	0.03634
2723.25838	0.03593
2721.97261	0.03553
2720.68684	0.03531
2719.40107	0.03528
2718.11530	0.03537
2716.82953	0.03547
2715.54376	0.03553
2714.25799	0.03552
2712.97222	0.03545
2711.68646	0.03536
2710.40069	0.03525
2709.11492	0.03512
2707.82915	0.03500
2706.54338	0.03493
2705.25761	0.03495
2703.97184	0.03503
2702.68607	0.03508
2701.40031	0.03509
2700.11454	0.03511
2698.82877	0.03517
2697.54300	0.03522
2696.25723	0.03515
2694.97146	0.03498
2693.68569	0.03481
2692.39992	0.03467
2691.11415	0.03453
2689.82839	0.03435
2688.54262	0.03416
2687.25685	0.03410
2685.97108	0.03423
2684.68531	0.03450
2683.39954	0.03478
2682.11377	0.03495
2680.82800	0.03501
2679.54224	0.03496
2678.25647	0.03487
2676.97070	0.03480
2675.68493	0.03478
2674.39916	0.03478
2673.11339	0.03469
2671.82762	0.03449
2670.54185	0.03425
2669.25608	0.03409
2667.97032	0.03405
2666.68455	0.03412
2665.39878	0.03425
2664.11301	0.03440
2662.82724	0.03451
2661.54147	0.03449
2660.25570	0.03428
2658.96993	0.03394
2657.68417	0.03358
2656.39840	0.03334
2655.11263	0.03326
2653.82686	0.03326
2652.54109	0.03321
2651.25532	0.03305
2649.96955	0.03285
2648.68378	0.03275
2647.39801	0.03276
2646.11225	0.03272
2644.82648	0.03253
2643.54071	0.03218
2642.25494	0.03180
2640.96917	0.03149
2639.68340	0.03132
2638.39763	0.03127
2637.11186	0.03128
2635.82609	0.03129
2634.54033	0.03124
2633.25456	0.03119
2631.96879	0.03118
2630.68302	0.03119
2629.39725	0.03113
2628.11148	0.03102
2626.82571	0.03102
2625.53994	0.03119
2624.25418	0.03142
2622.96841	0.03148
2621.68264	0.03127
2620.39687	0.03089
2619.11110	0.03046
2617.82533	0.03008
2616.53956	0.02978
2615.25379	0.02964
2613.96802	0.02968
2612.68226	0.02983
2611.39649	0.02993
2610.11072	0.02995
2608.82495	0.02996
2607.53918	0.03005
2606.25341	0.03014
2604.96764	0.03007
2603.68187	0.02978
2602.39611	0.02944
2601.11034	0.02926
2599.82457	0.02921
2598.53880	0.02909
2597.25303	0.02881
2595.96726	0.02853
2594.68149	0.02845
2593.39572	0.02859
2592.10995	0.02882
2590.82419	0.02895
2589.53842	0.02888
2588.25265	0.02860
2586.96688	0.02826
2585.68111	0.02800
2584.39534	0.02791
2583.10957	0.02792
2581.82380	0.02790
2580.53804	0.02781
2579.25227	0.02770
2577.96650	0.02765
2576.68073	0.02763
2575.39496	0.02755
2574.10919	0.02739
2572.82342	0.02727
2571.53765	0.02735
2570.25188	0.02758
2568.96612	0.02777
2567.68035	0.02773
2566.39458	0.02742
2565.10881	0.02700
2563.82304	0.02663
2562.53727	0.02639
2561.25150	0.02631
2559.96573	0.02637
2558.67997	0.02648
2557.39420	0.02652
2556.10843	0.02650
2554.82266	0.02656
2553.53689	0.02677
2552.25112	0.02707
2550.96535	0.02726
2549.67958	0.02716
2548.39381	0.02672
2547.10805	0.02605
2545.82228	0.02541
2544.53651	0.02500
2543.25074	0.02489
2541.96497	0.02503
2540.67920	0.02528
2539.39343	0.02552
2538.10766	0.02567
2536.82190	0.02564
2535.53613	0.02552
2534.25036	0.02546
2532.96459	0.02561
2531.67882	0.02588
2530.39305	0.02614
2529.10728	0.02636
2527.82151	0.02652
2526.53574	0.02656
2525.24998	0.02644
2523.96421	0.02625
2522.67844	0.02610
2521.39267	0.02598
2520.10690	0.02585
2518.82113	0.02578
2517.53536	0.02583
2516.24959	0.02596
2514.96383	0.02604
2513.67806	0.02600
2512.39229	0.02587
2511.10652	0.02572
2509.82075	0.02549
2508.53498	0.02506
2507.24921	0.02445
2505.96344	0.02394
2504.67767	0.02383
2503.39191	0.02419
2502.10614	0.02481
2500.82037	0.02532
2499.53460	0.02552
2498.24883	0.02542
2496.96306	0.02528
2495.67729	0.02530
2494.39152	0.02543
2493.10576	0.02544
2491.81999	0.02522
2490.53422	0.02487
2489.24845	0.02455
2487.96268	0.02443
2486.67691	0.02458
2485.39114	0.02488
2484.10537	0.02499
2482.81960	0.02473
2481.53384	0.02421
2480.24807	0.02380
2478.96230	0.02374
2477.67653	0.02401
2476.39076	0.02441
2475.10499	0.02473
2473.81922	0.02485
2472.53345	0.02481
2471.24769	0.02476
2469.96192	0.02483
2468.67615	0.02500
2467.39038	0.02513
2466.10461	0.02514
2464.81884	0.02513
2463.53307	0.02522
2462.24730	0.02533
2460.96153	0.02528
2459.67577	0.02510
2458.39000	0.02508
2457.10423	0.02533
2455.81846	0.02562
2454.53269	0.02564
2453.24692	0.02538
2451.96115	0.02498
2450.67538	0.02450
2449.38962	0.02391
2448.10385	0.02339
2446.81808	0.02321
2445.53231	0.02346
2444.24654	0.02395
2442.96077	0.02441
2441.67500	0.02471
2440.38923	0.02481
2439.10346	0.02477
2437.81770	0.02466
2436.53193	0.02453
2435.24616	0.02430
2433.96039	0.02393
2432.67462	0.02357
2431.38885	0.02344
2430.10308	0.02356
2428.81731	0.02373
2427.53155	0.02376
2426.24578	0.02366
2424.96001	0.02354
2423.67424	0.02346
2422.38847	0.02345
2421.10270	0.02355
2419.81693	0.02378
2418.53116	0.02408
2417.24539	0.02428
2415.95963	0.02426
2414.67386	0.02399
2413.38809	0.02357
2412.10232	0.02322
2410.81655	0.02308
2409.53078	0.02322
2408.24501	0.02354
2406.95924	0.02384
2405.67347	0.02389
2404.38771	0.02368
2403.10194	0.02334
2401.81617	0.02304
2400.53040	0.02287
2399.24463	0.02284
2397.95886	0.02292
2396.67309	0.02301
2395.38732	0.02301
2394.10156	0.02288
2392.81579	0.02268
2391.53002	0.02252
2390.24425	0.02243
2388.95848	0.02239
2387.67271	0.02241
2386.38694	0.02250
2385.10117	0.02270
2383.81540	0.02299
2382.52964	0.02330
2381.24387	0.02353
2379.95810	0.02367
2378.67233	0.02376
2377.38656	0.02387
2376.10079	0.02402
2374.81502	0.02415
2373.52925	0.02426
2372.24349	0.02435
2370.95772	0.02449
2369.67195	0.02459
2368.38618	0.02467
2367.10041	0.02483
2365.81464	0.02510
2364.52887	0.02528
2363.24310	0.02537
2361.95733	0.02546
2360.67157	0.02567
2359.38580	0.02581
2358.10003	0.02581
2356.81426	0.02561
2355.52849	0.02525
2354.24272	0.02491
2352.95695	0.02470
2351.67118	0.02480
2350.38542	0.02519
2349.09965	0.02557
2347.81388	0.02567
2346.52811	0.02564
2345.24234	0.02558
2343.95657	0.02546
2342.67080	0.02525
2341.38503	0.02525
2340.09926	0.02544
2338.81350	0.02541
2337.52773	0.02510
2336.24196	0.02499
2334.95619	0.02515
2333.67042	0.02522
2332.38465	0.02513
2331.09888	0.02540
2329.81311	0.02557
2328.52735	0.02515
2327.24158	0.02521
2325.95581	0.02572
2324.67004	0.02587
2323.38427	0.02605
2322.09850	0.02619
2320.81273	0.02571
2319.52696	0.02545
2318.24119	0.02540
2316.95543	0.02499
2315.66966	0.02463
2314.38389	0.02431
2313.09812	0.02397
2311.81235	0.02396
2310.52658	0.02393
2309.24081	0.02381
2307.95504	0.02372
2306.66928	0.02361
2305.38351	0.02365
2304.09774	0.02365
2302.81197	0.02344
2301.52620	0.02311
2300.24043	0.02276
2298.95466	0.02253
2297.66889	0.02237
2296.38312	0.02225
2295.09736	0.02221
2293.81159	0.02223
2292.52582	0.02229
2291.24005	0.02233
2289.95428	0.02240
2288.66851	0.02247
2287.38274	0.02241
2286.09697	0.02217
2284.81121	0.02183
2283.52544	0.02160
2282.23967	0.02150
2280.95390	0.02133
2279.66813	0.02087
2278.38236	0.02022
2277.09659	0.01975
2275.81082	0.01975
2274.52505	0.02017
2273.23929	0.02067
2271.95352	0.02088
2270.66775	0.02067
2269.38198	0.02023
2268.09621	0.01982
2266.81044	0.01952
2265.52467	0.01919
2264.23890	0.01871
2262.95314	0.01817
2261.66737	0.01778
2260.38160	0.01765
2259.09583	0.01776
2257.81006	0.01800
2256.52429	0.01827
2255.23852	0.01850
2253.95275	0.01869
2252.66698	0.01885
2251.38122	0.01887
2250.09545	0.01867
2248.80968	0.01828
2247.52391	0.01798
2246.23814	0.01795
2244.95237	0.01810
2243.66660	0.01825
2242.38083	0.01852
2241.09507	0.01910
2239.80930	0.01973
2238.52353	0.01978
2237.23776	0.01894
2235.95199	0.01767
2234.66622	0.01679
2233.38045	0.01674
2232.09468	0.01733
2230.80891	0.01817
2229.52315	0.01891
2228.23738	0.01920
2226.95161	0.01882
2225.66584	0.01790
2224.38007	0.01699
2223.09430	0.01654
2221.80853	0.01652
2220.52276	0.01661
2219.23700	0.01667
2217.95123	0.01677
2216.66546	0.01685
2215.37969	0.01677
2214.09392	0.01655
2212.80815	0.01634
2211.52238	0.01618
2210.23661	0.01592
2208.95084	0.01553
2207.66508	0.01518
2206.37931	0.01506
2205.09354	0.01528
2203.80777	0.01576
2202.52200	0.01627
2201.23623	0.01656
2199.95046	0.01663
2198.66469	0.01677
2197.37893	0.01704
2196.09316	0.01717
2194.80739	0.01695
2193.52162	0.01657
2192.23585	0.01638
2190.95008	0.01629
2189.66431	0.01576
2188.37854	0.01442
2187.09277	0.01266
2185.80701	0.01131
2184.52124	0.01094
2183.23547	0.01143
2181.94970	0.01217
2180.66393	0.01260
2179.37816	0.01251
2178.09239	0.01217
2176.80662	0.01208
2175.52085	0.01244
2174.23509	0.01279
2172.94932	0.01243
2171.66355	0.01118
2170.37778	0.00975
2169.09201	0.00910
2167.80624	0.00982
2166.52047	0.01168
2165.23470	0.01374
2163.94894	0.01490
2162.66317	0.01456
2161.37740	0.01295
2160.09163	0.01093
2158.80586	0.00950
2157.52009	0.00909
2156.23432	0.00923
2154.94855	0.00917
2153.66278	0.00865
2152.37702	0.00804
2151.09125	0.00767
2149.80548	0.00751
2148.51971	0.00728
2147.23394	0.00690
2145.94817	0.00649
2144.66240	0.00635
2143.37663	0.00677
2142.09087	0.00790
2140.80510	0.00951
2139.51933	0.01099
2138.23356	0.01175
2136.94779	0.01170
2135.66202	0.01118
2134.37625	0.01063
2133.09048	0.01036
2131.80471	0.01053
2130.51895	0.01113
2129.23318	0.01187
2127.94741	0.01244
2126.66164	0.01279
2125.37587	0.01307
2124.09010	0.01337
2122.80433	0.01362
2121.51856	0.01384
2120.23280	0.01413
2118.94703	0.01446
2117.66126	0.01468
2116.37549	0.01468
2115.08972	0.01451
2113.80395	0.01435
2112.51818	0.01438
2111.23241	0.01450
2109.94664	0.01436
2108.66088	0.01374
2107.37511	0.01293
2106.08934	0.01243
2104.80357	0.01245
2103.51780	0.01268
2102.23203	0.01269
2100.94626	0.01221
2099.66049	0.01084
2098.37473	0.00994
2097.08896	0.00980
2095.80319	0.01016
2094.51742	0.01078
2093.23165	0.01154
2091.94588	0.01237
2090.66011	0.01311
2089.37434	0.01358
2088.08857	0.01370
2086.80281	0.01349
2085.51704	0.01293
2084.23127	0.01202
2082.94550	0.01101
2081.65973	0.01034
2080.37396	0.01033
2079.08819	0.01079
2077.80242	0.01128
2076.51666	0.01152
2075.23089	0.01161
2073.94512	0.01170
2072.65935	0.01179
2071.37358	0.01173
2070.08781	0.01144
2068.80204	0.01091
2067.51627	0.01016
2066.23050	0.00931
2064.94474	0.00859
2063.65897	0.00827
2062.37320	0.00843
2061.08743	0.00893
2059.80166	0.00958
2058.51589	0.01020
2057.23012	0.01069
2055.94435	0.01094
2054.65859	0.01093
2053.37282	0.01063
2052.08705	0.01003
2050.80128	0.00923
2049.51551	0.00837
2048.22974	0.00751
2046.94397	0.00662
2045.65820	0.00572
2044.37243	0.00502
2043.08667	0.00465
2041.80090	0.00458
2040.51513	0.00476
2039.22936	0.00508
2037.94359	0.00518
2036.65782	0.00458
2035.37205	0.00329
2034.08628	0.00195
2032.80052	0.00126
2031.51475	0.00141
2030.22898	0.00208
2028.94321	0.00299
2027.65744	0.00401
2026.37167	0.00500
2025.08590	0.00570
2023.80013	0.00592
2022.51436	0.00579
2021.22860	0.00568
2019.94283	0.00588
2018.65706	0.00634
2017.37129	0.00663
2016.08552	0.00625
2014.79975	0.00508
2013.51398	0.00360
2012.22821	0.00255
2010.94245	0.00232
2009.65668	0.00274
2008.37091	0.00351
2007.08514	0.00447
2005.79937	0.00548
2004.51360	0.00633
2003.22783	0.00695
2001.94206	0.00750
2000.65629	0.00807
1999.37053	0.00849
1998.08476	0.00868
1996.79899	0.00891
1995.51322	0.00953
1994.22745	0.01046
1992.94168	0.01122
1991.65591	0.01144
1990.37014	0.01114
1989.08438	0.01061
1987.79861	0.01011
1986.51284	0.00970
1985.22707	0.00930
1983.94130	0.00878
1982.65553	0.00817
1981.36976	0.00776
1980.08399	0.00785
1978.79822	0.00830
1977.51246	0.00848
1976.22669	0.00795
1974.94092	0.00695
1973.65515	0.00619
1972.36938	0.00607
1971.08361	0.00636
1969.79784	0.00654
1968.51207	0.00630
1967.22631	0.00581
1965.94054	0.00552
1964.65477	0.00577
1963.36900	0.00657
1962.08323	0.00756
1960.79746	0.00834
1959.51169	0.00882
1958.22592	0.00925
1956.94015	0.00976
1955.65439	0.01016
1954.36862	0.01026
1953.08285	0.01025
1951.79708	0.01047
1950.51131	0.01089
1949.22554	0.01114
1947.93977	0.01105
1946.65400	0.01084
1945.36823	0.01076
1944.08247	0.01082
1942.79670	0.01082
1941.51093	0.01073
1940.22516	0.01057
1938.93939	0.01037
1937.65362	0.01012
1936.36785	0.00991
1935.08208	0.00997
1933.79632	0.01047
1932.51055	0.01132
1931.22478	0.01209
1929.93901	0.01236
1928.65324	0.01200
1927.36747	0.01133
1926.08170	0.01078
1924.79593	0.01065
1923.51016	0.01086
1922.22440	0.01115
1920.93863	0.01127
1919.65286	0.01121
1918.36709	0.01108
1917.08132	0.01103
1915.79555	0.01111
1914.50978	0.01133
1913.22401	0.01168
1911.93825	0.01215
1910.65248	0.01259
1909.36671	0.01284
1908.08094	0.01286
1906.79517	0.01278
1905.50940	0.01278
1904.22363	0.01296
1902.93786	0.01317
1901.65209	0.01327
1900.36633	0.01315
1899.08056	0.01286
1897.79479	0.01244
1896.50902	0.01198
1895.22325	0.01162
1893.93748	0.01153
1892.65171	0.01174
1891.36594	0.01215
1890.08018	0.01254
1888.79441	0.01280
1887.50864	0.01293
1886.22287	0.01297
1884.93710	0.01291
1883.65133	0.01273
1882.36556	0.01250
1881.07979	0.01232
1879.79402	0.01224
1878.50826	0.01228
1877.22249	0.01236
1875.93672	0.01247
1874.65095	0.01260
1873.36518	0.01275
1872.07941	0.01287
1870.79364	0.01291
1869.50787	0.01289
1868.22211	0.01293
1866.93634	0.01304
1865.65057	0.01314
1864.36480	0.01316
1863.07903	0.01306
1861.79326	0.01287
1860.50749	0.01265
1859.22172	0.01250
1857.93595	0.01247
1856.65019	0.01254
1855.36442	0.01265
1854.07865	0.01273
1852.79288	0.01277
1851.50711	0.01277
1850.22134	0.01275
1848.93557	0.01274
1847.64980	0.01272
1846.36404	0.01267
1845.07827	0.01259
1843.79250	0.01252
1842.50673	0.01247
1841.22096	0.01245
1839.93519	0.01249
1838.64942	0.01262
1837.36365	0.01283
1836.07788	0.01300
1834.79212	0.01306
1833.50635	0.01304
1832.22058	0.01307
1830.93481	0.01324
1829.64904	0.01348
1828.36327	0.01361
1827.07750	0.01346
1825.79173	0.01312
1824.50597	0.01282
1823.22020	0.01265
1821.93443	0.01251
1820.64866	0.01231
1819.36289	0.01212
1818.07712	0.01213
1816.79135	0.01244
1815.50558	0.01292
1814.21981	0.01334
1812.93405	0.01355
1811.64828	0.01356
1810.36251	0.01348
1809.07674	0.01342
1807.79097	0.01342
1806.50520	0.01348
1805.21943	0.01359
1803.93366	0.01370
1802.64790	0.01373
1801.36213	0.01368
1800.07636	0.01358
1798.79059	0.01352
1797.50482	0.01351
1796.21905	0.01351
1794.93328	0.01345
1793.64751	0.01335
1792.36174	0.01330
1791.07598	0.01339
1789.79021	0.01356
1788.50444	0.01366
1787.21867	0.01365
1785.93290	0.01358
1784.64713	0.01355
1783.36136	0.01358
1782.07559	0.01366
1780.78983	0.01375
1779.50406	0.01385
1778.21829	0.01391
1776.93252	0.01392
1775.64675	0.01390
1774.36098	0.01386
1773.07521	0.01388
1771.78944	0.01401
1770.50367	0.01419
1769.21791	0.01432
1767.93214	0.01438
1766.64637	0.01441
1765.36060	0.01442
1764.07483	0.01438
1762.78906	0.01431
1761.50329	0.01430
1760.21752	0.01439
1758.93176	0.01453
1757.64599	0.01463
1756.36022	0.01466
1755.07445	0.01460
1753.78868	0.01451
1752.50291	0.01442
1751.21714	0.01442
1749.93137	0.01450
1748.64560	0.01460
1747.35984	0.01469
1746.07407	0.01477
1744.78830	0.01485
1743.50253	0.01488
1742.21676	0.01486
1740.93099	0.01485
1739.64522	0.01492
1738.35945	0.01508
1737.07369	0.01521
1735.78792	0.01520
1734.50215	0.01515
1733.21638	0.01520
1731.93061	0.01536
1730.64484	0.01552
1729.35907	0.01564
1728.07330	0.01575
1726.78753	0.01590
1725.50177	0.01607
1724.21600	0.01626
1722.93023	0.01640
1721.64446	0.01645
1720.35869	0.01638
1719.07292	0.01629
1717.78715	0.01635
1716.50138	0.01664
1715.21561	0.01707
1713.92985	0.01753
1712.64408	0.01792
1711.35831	0.01824
1710.07254	0.01849
1708.78677	0.01871
1707.50100	0.01897
1706.21523	0.01932
1704.92946	0.01976
1703.64370	0.02019
1702.35793	0.02053
1701.07216	0.02086
1699.78639	0.02136
1698.50062	0.02201
1697.21485	0.02268
1695.92908	0.02335
1694.64331	0.02407
1693.35754	0.02477
1692.07178	0.02534
1690.78601	0.02583
1689.50024	0.02634
1688.21447	0.02687
1686.92870	0.02734
1685.64293	0.02777
1684.35716	0.02832
1683.07139	0.02903
1681.78563	0.02972
1680.49986	0.03030
1679.21409	0.03082
1677.92832	0.03138
1676.64255	0.03200
1675.35678	0.03268
1674.07101	0.03340
1672.78524	0.03406
1671.49947	0.03459
1670.21371	0.03509
1668.92794	0.03564
1667.64217	0.03625
1666.35640	0.03681
1665.07063	0.03729
1663.78486	0.03774
1662.49909	0.03827
1661.21332	0.03886
1659.92756	0.03944
1658.64179	0.03994
1657.35602	0.04032
1656.07025	0.04049
1654.78448	0.04047
1653.49871	0.04049
1652.21294	0.04079
1650.92717	0.04131
1649.64140	0.04176
1648.35564	0.04197
1647.06987	0.04204
1645.78410	0.04211
1644.49833	0.04221
1643.21256	0.04229
1641.92679	0.04234
1640.64102	0.04238
1639.35525	0.04240
1638.06949	0.04233
1636.78372	0.04217
1635.49795	0.04199
1634.21218	0.04184
1632.92641	0.04168
1631.64064	0.04150
1630.35487	0.04132
1629.06910	0.04118
1627.78333	0.04108
1626.49757	0.04097
1625.21180	0.04079
1623.92603	0.04057
1622.64026	0.04034
1621.35449	0.04013
1620.06872	0.03986
1618.78295	0.03950
1617.49718	0.03916
1616.21142	0.03898
1614.92565	0.03899
1613.63988	0.03906
1612.35411	0.03908
1611.06834	0.03905
1609.78257	0.03901
1608.49680	0.03897
1607.21103	0.03894
1605.92526	0.03891
1604.63950	0.03891
1603.35373	0.03899
1602.06796	0.03915
1600.78219	0.03935
1599.49642	0.03953
1598.21065	0.03968
1596.92488	0.03982
1595.63911	0.03996
1594.35335	0.04010
1593.06758	0.04025
1591.78181	0.04043
1590.49604	0.04064
1589.21027	0.04088
1587.92450	0.04116
1586.63873	0.04146
1585.35296	0.04179
1584.06719	0.04212
1582.78143	0.04247
1581.49566	0.04286
1580.20989	0.04326
1578.92412	0.04361
1577.63835	0.04387
1576.35258	0.04413
1575.06681	0.04450
1573.78104	0.04495
1572.49528	0.04535
1571.20951	0.04566
1569.92374	0.04598
1568.63797	0.04636
1567.35220	0.04674
1566.06643	0.04704
1564.78066	0.04729
1563.49489	0.04751
1562.20912	0.04767
1560.92336	0.04773
1559.63759	0.04778
1558.35182	0.04794
1557.06605	0.04818
1555.78028	0.04837
1554.49451	0.04845
1553.20874	0.04850
1551.92297	0.04854
1550.63721	0.04855
1549.35144	0.04852
1548.06567	0.04846
1546.77990	0.04836
1545.49413	0.04819
1544.20836	0.04796
1542.92259	0.04764
1541.63682	0.04724
1540.35105	0.04683
1539.06529	0.04652
1537.77952	0.04632
1536.49375	0.04615
1535.20798	0.04590
1533.92221	0.04564
1532.63644	0.04547
1531.35067	0.04541
1530.06490	0.04544
1528.77914	0.04552
1527.49337	0.04565
1526.20760	0.04582
1524.92183	0.04601
1523.63606	0.04619
1522.35029	0.04640
1521.06452	0.04671
1519.77875	0.04714
1518.49298	0.04762
1517.20722	0.04812
1515.92145	0.04867
1514.63568	0.04927
1513.34991	0.04990
1512.06414	0.05057
1510.77837	0.05125
1509.49260	0.05191
1508.20683	0.05251
1506.92107	0.05313
1505.63530	0.05386
1504.34953	0.05465
1503.06376	0.05540
1501.77799	0.05606
1500.49222	0.05665
1499.20645	0.05716
1497.92068	0.05756
1496.63491	0.05790
1495.34915	0.05828
1494.06338	0.05871
1492.77761	0.05914
1491.49184	0.05951
1490.20607	0.05986
1488.92030	0.06024
1487.63453	0.06069
1486.34876	0.06123
1485.06299	0.06185
1483.77723	0.06252
1482.49146	0.06323
1481.20569	0.06399
1479.91992	0.06480
1478.63415	0.06564
1477.34838	0.06642
1476.06261	0.06710
1474.77684	0.06768
1473.49108	0.06822
1472.20531	0.06876
1470.91954	0.06932
1469.63377	0.06983
1468.34800	0.07023
1467.06223	0.07056
1465.77646	0.07089
1464.49069	0.07132
1463.20492	0.07185
1461.91916	0.07241
1460.63339	0.07293
1459.34762	0.07336
1458.06185	0.07374
1456.77608	0.07415
1455.49031	0.07461
1454.20454	0.07507
1452.91877	0.07550
1451.63301	0.07593
1450.34724	0.07639
1449.06147	0.07683
1447.77570	0.07722
1446.48993	0.07752
1445.20416	0.07768
1443.91839	0.07771
1442.63262	0.07766
1441.34685	0.07761
1440.06109	0.07758
1438.77532	0.07755
1437.48955	0.07753
1436.20378	0.07761
1434.91801	0.07783
1433.63224	0.07818
1432.34647	0.07864
1431.06070	0.07924
1429.77494	0.07997
1428.48917	0.08082
1427.20340	0.08176
1425.91763	0.08276
1424.63186	0.08381
1423.34609	0.08487
1422.06032	0.08586
1420.77455	0.08673
1419.48878	0.08752
1418.20302	0.08826
1416.91725	0.08895
1415.63148	0.08949
1414.34571	0.08987
1413.05994	0.09010
1411.77417	0.09021
1410.48840	0.09019
1409.20263	0.09000
1407.91687	0.08963
1406.63110	0.08905
1405.34533	0.08830
1404.05956	0.08740
1402.77379	0.08641
1401.48802	0.08533
1400.20225	0.08416
1398.91648	0.08289
1397.63071	0.08151
1396.34495	0.08004
1395.05918	0.07853
1393.77341	0.07706
1392.48764	0.07561
1391.20187	0.07413
1389.91610	0.07262
1388.63033	0.07108
1387.34456	0.06954
1386.05880	0.06803
1384.77303	0.06656
1383.48726	0.06514
1382.20149	0.06373
1380.91572	0.06233
1379.62995	0.06089
1378.34418	0.05942
1377.05841	0.05792
1375.77264	0.05640
1374.48688	0.05488
1373.20111	0.05337
1371.91534	0.05187
1370.62957	0.05039
1369.34380	0.04893
1368.05803	0.04753
1366.77226	0.04622
1365.48649	0.04498
1364.20073	0.04380
1362.91496	0.04269
1361.62919	0.04169
1360.34342	0.04080
1359.05765	0.03999
1357.77188	0.03923
1356.48611	0.03850
1355.20034	0.03779
1353.91457	0.03711
1352.62881	0.03646
1351.34304	0.03586
1350.05727	0.03532
1348.77150	0.03482
1347.48573	0.03433
1346.19996	0.03381
1344.91419	0.03328
1343.62842	0.03278
1342.34266	0.03237
1341.05689	0.03200
1339.77112	0.03163
1338.48535	0.03126
1337.19958	0.03090
1335.91381	0.03056
1334.62804	0.03026
1333.34227	0.02997
1332.05650	0.02965
1330.77074	0.02927
1329.48497	0.02886
1328.19920	0.02846
1326.91343	0.02810
1325.62766	0.02779
1324.34189	0.02750
1323.05612	0.02722
1321.77035	0.02698
1320.48459	0.02678
1319.19882	0.02659
1317.91305	0.02638
1316.62728	0.02613
1315.34151	0.02585
1314.05574	0.02558
1312.76997	0.02533
1311.48420	0.02510
1310.19843	0.02488
1308.91267	0.02468
1307.62690	0.02450
1306.34113	0.02432
1305.05536	0.02414
1303.76959	0.02396
1302.48382	0.02378
1301.19805	0.02361
1299.91228	0.02343
1298.62652	0.02324
1297.34075	0.02301
1296.05498	0.02276
1294.76921	0.02257
1293.48344	0.02247
1292.19767	0.02246
1290.91190	0.02245
1289.62613	0.02240
1288.34036	0.02231
1287.05460	0.02221
1285.76883	0.02209
1284.48306	0.02196
1283.19729	0.02183
1281.91152	0.02174
1280.62575	0.02170
1279.33998	0.02165
1278.05421	0.02156
1276.76845	0.02142
1275.48268	0.02126
1274.19691	0.02116
1272.91114	0.02112
1271.62537	0.02110
1270.33960	0.02107
1269.05383	0.02102
1267.76806	0.02096
1266.48229	0.02090
1265.19653	0.02083
1263.91076	0.02072
1262.62499	0.02058
1261.33922	0.02045
1260.05345	0.02034
1258.76768	0.02026
1257.48191	0.02019
1256.19614	0.02010
1254.91037	0.02002
1253.62461	0.01995
1252.33884	0.01991
1251.05307	0.01988
1249.76730	0.01986
1248.48153	0.01986
1247.19576	0.01987
1245.90999	0.01986
1244.62422	0.01983
1243.33846	0.01977
1242.05269	0.01968
1240.76692	0.01957
1239.48115	0.01944
1238.19538	0.01930
1236.90961	0.01918
1235.62384	0.01908
1234.33807	0.01904
1233.05230	0.01901
1231.76654	0.01897
1230.48077	0.01889
1229.19500	0.01879
1227.90923	0.01867
1226.62346	0.01853
1225.33769	0.01838
1224.05192	0.01824
1222.76615	0.01812
1221.48039	0.01804
1220.19462	0.01799
1218.90885	0.01794
1217.62308	0.01786
1216.33731	0.01775
1215.05154	0.01763
1213.76577	0.01754
1212.48000	0.01748
1211.19423	0.01746
1209.90847	0.01744
1208.62270	0.01740
1207.33693	0.01735
1206.05116	0.01729
1204.76539	0.01722
1203.47962	0.01715
1202.19385	0.01708
1200.90808	0.01706
1199.62232	0.01713
1198.33655	0.01715
1197.05078	0.01718
1195.76501	0.01719
1194.47924	0.01714
1193.19347	0.01707
1191.90770	0.01699
1190.62193	0.01689
1189.33616	0.01676
1188.05040	0.01660
1186.76463	0.01642
1185.47886	0.01626
1184.19309	0.01615
1182.90732	0.01614
1181.62155	0.01617
1180.33578	0.01622
1179.05001	0.01623
1177.76425	0.01625
1176.47848	0.01631
1175.19271	0.01642
1173.90694	0.01655
1172.62117	0.01669
1171.33540	0.01684
1170.04963	0.01696
1168.76386	0.01699
1167.47809	0.01695
1166.19233	0.01690
1164.90656	0.01693
1163.62079	0.01710
1162.33502	0.01734
1161.04925	0.01758
1159.76348	0.01776
1158.47771	0.01789
1157.19194	0.01799
1155.90618	0.01814
1154.62041	0.01836
1153.33464	0.01861
1152.04887	0.01884
1150.76310	0.01905
1149.47733	0.01930
1148.19156	0.01962
1146.90579	0.02003
1145.62002	0.02051
1144.33426	0.02105
1143.04849	0.02161
1141.76272	0.02219
1140.47695	0.02279
1139.19118	0.02345
1137.90541	0.02422
1136.61964	0.02513
1135.33387	0.02620
1134.04811	0.02744
1132.76234	0.02881
1131.47657	0.03026
1130.19080	0.03182
1128.90503	0.03356
1127.61926	0.03555
1126.33349	0.03776
1125.04772	0.04009
1123.76195	0.04251
1122.47619	0.04499
1121.19042	0.04751
1119.90465	0.05002
1118.61888	0.05253
1117.33311	0.05512
1116.04734	0.05786
1114.76157	0.06068
1113.47580	0.06346
1112.19004	0.06610
1110.90427	0.06864
1109.61850	0.07114
1108.33273	0.07360
1107.04696	0.07599
1105.76119	0.07831
1104.47542	0.08057
1103.18965	0.08283
1101.90388	0.08507
1100.61812	0.08723
1099.33235	0.08927
1098.04658	0.09123
1096.76081	0.09317
1095.47504	0.09509
1094.18927	0.09692
1092.90350	0.09862
1091.61773	0.10018
1090.33197	0.10163
1089.04620	0.10302
1087.76043	0.10437
1086.47466	0.10569
1085.18889	0.10702
1083.90312	0.10843
1082.61735	0.11002
1081.33158	0.11178
1080.04581	0.11367
1078.76005	0.11560
1077.47428	0.11755
1076.18851	0.11956
1074.90274	0.12165
1073.61697	0.12385
1072.33120	0.12614
1071.04543	0.12855
1069.75966	0.13108
1068.47390	0.13371
1067.18813	0.13639
1065.90236	0.13903
1064.61659	0.14163
1063.33082	0.14419
1062.04505	0.14677
1060.75928	0.14941
1059.47351	0.15212
1058.18774	0.15480
1056.90198	0.15741
1055.61621	0.15993
1054.33044	0.16238
1053.04467	0.16479
1051.75890	0.16715
1050.47313	0.16951
1049.18736	0.17189
1047.90159	0.17431
1046.61583	0.17675
1045.33006	0.17925
1044.04429	0.18186
1042.75852	0.18459
1041.47275	0.18736
1040.18698	0.19007
1038.90121	0.19266
1037.61544	0.19515
1036.32967	0.19764
1035.04391	0.20017
1033.75814	0.20269
1032.47237	0.20508
1031.18660	0.20724
1029.90083	0.20914
1028.61506	0.21078
1027.32929	0.21215
1026.04352	0.21329
1024.75775	0.21423
1023.47199	0.21502
1022.18622	0.21561
1020.90045	0.21593
1019.61468	0.21588
1018.32891	0.21542
1017.04314	0.21458
1015.75737	0.21341
1014.47160	0.21191
1013.18584	0.21009
1011.90007	0.20793
1010.61430	0.20544
1009.32853	0.20260
1008.04276	0.19942
1006.75699	0.19594
1005.47122	0.19220
1004.18545	0.18820
1002.89968	0.18393
1001.61392	0.17942
1000.32815	0.17475
999.04238	0.17003
997.75661	0.16525
996.47084	0.16040
995.18507	0.15550
993.89930	0.15062
992.61353	0.14579
991.32777	0.14100
990.04200	0.13622
988.75623	0.13152
987.47046	0.12695
986.18469	0.12252
984.89892	0.11820
983.61315	0.11401
982.32738	0.11003
981.04161	0.10630
979.75585	0.10282
978.47008	0.09956
977.18431	0.09647
975.89854	0.09358
974.61277	0.09101
973.32700	0.08880
972.04123	0.08698
970.75546	0.08554
969.46970	0.08454
968.18393	0.08407
966.89816	0.08411
965.61239	0.08453
964.32662	0.08511
963.04085	0.08565
961.75508	0.08596
960.46931	0.08593
959.18354	0.08549
957.89778	0.08462
956.61201	0.08337
955.32624	0.08182
954.04047	0.08012
952.75470	0.07835
951.46893	0.07658
950.18316	0.07481
948.89739	0.07305
947.61163	0.07132
946.32586	0.06962
945.04009	0.06789
943.75432	0.06614
942.46855	0.06438
941.18278	0.06270
939.89701	0.06116
938.61124	0.05978
937.32547	0.05852
936.03971	0.05731
934.75394	0.05613
933.46817	0.05495
932.18240	0.05379
930.89663	0.05269
929.61086	0.05170
928.32509	0.05085
927.03932	0.05010
925.75356	0.04940
924.46779	0.04870
923.18202	0.04798
921.89625	0.04727
920.61048	0.04665
919.32471	0.04614
918.03894	0.04568
916.75317	0.04515
915.46740	0.04449
914.18164	0.04375
912.89587	0.04305
911.61010	0.04249
910.32433	0.04207
909.03856	0.04176
907.75279	0.04156
906.46702	0.04141
905.18125	0.04123
903.89549	0.04093
902.60972	0.04049
901.32395	0.03998
900.03818	0.03946
898.75241	0.03894
897.46664	0.03850
896.18087	0.03820
894.89510	0.03805
893.60933	0.03798
892.32357	0.03791
891.03780	0.03784
889.75203	0.03785
888.46626	0.03799
887.18049	0.03832
885.89472	0.03893
884.60895	0.03995
883.32318	0.04148
882.03742	0.04347
880.75165	0.04565
879.46588	0.04764
878.18011	0.04924
876.89434	0.05059
875.60857	0.05195
874.32280	0.05339
873.03703	0.05463
871.75126	0.05535
870.46550	0.05541
869.17973	0.05489
867.89396	0.05388
866.60819	0.05246
865.32242	0.05074
864.03665	0.04892
862.75088	0.04712
861.46511	0.04542
860.17935	0.04384
858.89358	0.04243
857.60781	0.04129
856.32204	0.04040
855.03627	0.03968
853.75050	0.03901
852.46473	0.03835
851.17896	0.03779
849.89319	0.03741
848.60743	0.03719
847.32166	0.03701
846.03589	0.03674
844.75012	0.03639
843.46435	0.03603
842.17858	0.03572
840.89281	0.03546
839.60704	0.03520
838.32128	0.03494
837.03551	0.03473
835.74974	0.03457
834.46397	0.03443
833.17820	0.03423
831.89243	0.03400
830.60666	0.03378
829.32089	0.03360
828.03512	0.03343
826.74936	0.03329
825.46359	0.03321
824.17782	0.03323
822.89205	0.03330
821.60628	0.03332
820.32051	0.03329
819.03474	0.03327
817.74897	0.03327
816.46321	0.03320
815.17744	0.03300
813.89167	0.03267
812.60590	0.03234
811.32013	0.03211
810.03436	0.03202
808.74859	0.03203
807.46282	0.03207
806.17705	0.03206
804.89129	0.03198
803.60552	0.03189
802.31975	0.03187
801.03398	0.03195
799.74821	0.03210
798.46244	0.03221
797.17667	0.03226
795.89090	0.03224
794.60513	0.03213
793.31937	0.03194
792.03360	0.03170
790.74783	0.03151
789.46206	0.03141
788.17629	0.03139
786.89052	0.03144
785.60475	0.03153
784.31898	0.03164
783.03322	0.03172
781.74745	0.03173
780.46168	0.03166
779.17591	0.03151
777.89014	0.03133
776.60437	0.03117
775.31860	0.03105
774.03283	0.03098
772.74706	0.03096
771.46130	0.03097
770.17553	0.03101
768.88976	0.03104
767.60399	0.03105
766.31822	0.03107
765.03245	0.03108
763.74668	0.03106
762.46091	0.03105
761.17515	0.03112
759.88938	0.03127
758.60361	0.03139
757.31784	0.03143
756.03207	0.03142
754.74630	0.03142
753.46053	0.03147
752.17476	0.03150
750.88899	0.03145
749.60323	0.03130
748.31746	0.03111
747.03169	0.03101
745.74592	0.03105
744.46015	0.03123
743.17438	0.03146
741.88861	0.03165
740.60284	0.03170
739.31708	0.03155
738.03131	0.03131
736.74554	0.03116
735.45977	0.03122
734.17400	0.03137
732.88823	0.03149
731.60246	0.03150
730.31669	0.03142
729.03092	0.03127
727.74516	0.03109
726.45939	0.03096
725.17362	0.03096
723.88785	0.03102
722.60208	0.03104
721.31631	0.03099
720.03054	0.03099
718.74477	0.03110
717.45901	0.03123
716.17324	0.03126
714.88747	0.03115
713.60170	0.03101
712.31593	0.03093
711.03016	0.03095
709.74439	0.03102
708.45862	0.03107
707.17285	0.03109
705.88709	0.03110
704.60132	0.03110
703.31555	0.03108
702.02978	0.03102
700.74401	0.03095
699.45824	0.03088
698.17247	0.03082
696.88670	0.03076
695.60094	0.03073
694.31517	0.03073
693.02940	0.03076
691.74363	0.03078
690.45786	0.03078
689.17209	0.03075
687.88632	0.03070
686.60055	0.03067
685.31478	0.03066
684.02902	0.03068
682.74325	0.03069
681.45748	0.03067
680.17171	0.03062
678.88594	0.03058
677.60017	0.03057
676.31440	0.03061
675.02863	0.03069
673.74287	0.03080
672.45710	0.03096
671.17133	0.03118
669.88556	0.03138
668.59979	0.03134
667.31402	0.03126
666.02825	0.03125
664.74248	0.03098
663.45671	0.03070
662.17095	0.03050
660.88518	0.03035
659.59941	0.03025
658.31364	0.03016
657.02787	0.03004
655.74210	0.02990
654.45633	0.02979
653.17056	0.02971
651.88480	0.02968
650.59903	0.02966
649.31326	0.02963
648.02749	0.02956
646.74172	0.02945
645.45595	0.02933
644.17018	0.02925
642.88441	0.02923
641.59864	0.02924
640.31288	0.02924
639.02711	0.02920
637.74134	0.02918
636.45557	0.02928
635.16980	0.02959
633.88403	0.03007
632.59826	0.03062
631.31249	0.03107
630.02673	0.03105
628.74096	0.03079
627.45519	0.03175
626.16942	0.03153
624.88365	0.03074
623.59788	0.03069
622.31211	0.03211
621.02634	0.03489
619.74057	0.03823
618.45481	0.04146
617.16904	0.04442
615.88327	0.04703
614.59750	0.04907
613.31173	0.05033
612.02596	0.05120
610.74019	0.05288
609.45442	0.05664
608.16866	0.06263
606.88289	0.06962
605.59712	0.07602
604.31135	0.08075
603.02558	0.08347
601.73981	0.08440
600.45404	0.08400
599.16827	0.08277
597.88250	0.08108
596.59674	0.07916
595.31097	0.07719
594.02520	0.07529
592.73943	0.07359
591.45366	0.07221
590.16789	0.07128
588.88212	0.07087
587.59635	0.07098
586.31059	0.07153
585.02482	0.07248
583.73905	0.07384
582.45328	0.07565
581.16751	0.07788
579.88174	0.08038
578.59597	0.08292
577.31020	0.08529
576.02443	0.08735
574.73867	0.08914
573.45290	0.09082
572.16713	0.09254
570.88136	0.09443
569.59559	0.09660
568.30982	0.09914
567.02405	0.10200
565.73828	0.10499
564.45251	0.10776
563.16675	0.10996
561.88098	0.11120
560.59521	0.11113
559.30944	0.10958
558.02367	0.10670
556.73790	0.10287
555.45213	0.09854
554.16636	0.09401
552.88060	0.08953
551.59483	0.08520
550.30906	0.08110
549.02329	0.07729
547.73752	0.07383
546.45175	0.07077
545.16598	0.06805
543.88021	0.06555
542.59444	0.06316
541.30868	0.06090
540.02291	0.05886
538.73714	0.05709
537.45137	0.05556
536.16560	0.05418
534.87983	0.05288
533.59406	0.05166
532.30829	0.05050
531.02253	0.04933
529.73676	0.04810
528.45099	0.04686
527.16522	0.04572
525.87945	0.04473
524.59368	0.04382
523.30791	0.04294
522.02214	0.04205
520.73637	0.04119
519.45061	0.04041
518.16484	0.03973
516.87907	0.03911
515.59330	0.03850
514.30753	0.03786
513.02176	0.03718
511.73599	0.03655
510.45022	0.03603
509.16446	0.03564
507.87869	0.03532
506.59292	0.03494
505.30715	0.03443
504.02138	0.03388
502.73561	0.03341
501.44984	0.03307
500.16407	0.03282
498.87830	0.03259
497.59254	0.03237
496.30677	0.03217
495.02100	0.03196
493.73523	0.03167
492.44946	0.03130
491.16369	0.03092
489.87792	0.03061
488.59215	0.03039
487.30639	0.03023
486.02062	0.03009
484.73485	0.02997
483.44908	0.02985
482.16331	0.02971
480.87754	0.02956
479.59177	0.02948
478.30600	0.02956
477.02023	0.02977
475.73447	0.03000
474.44870	0.03015
473.16293	0.03023
471.87716	0.03025
470.59139	0.03020
469.30562	0.03004
468.01985	0.02978
466.73408	0.02951
465.44832	0.02929
464.16255	0.02906
462.87678	0.02877
461.59101	0.02841
460.30524	0.02803
459.01947	0.02770
457.73370	0.02739
456.44793	0.02705
455.16216	0.02668
453.87640	0.02633
452.59063	0.02609
451.30486	0.02591
450.01909	0.02573
448.73332	0.02549
447.44755	0.02524
446.16178	0.02501
444.87601	0.02482
443.59025	0.02462
442.30448	0.02437
441.01871	0.02407
439.73294	0.02378
438.44717	0.02357
437.16140	0.02344
435.87563	0.02335
434.58986	0.02329
433.30409	0.02324
432.01833	0.02320
430.73256	0.02313
429.44679	0.02303
428.16102	0.02287
426.87525	0.02269
425.58948	0.02252
424.30371	0.02237
423.01794	0.02222
421.73218	0.02207
420.44641	0.02191
419.16064	0.02178
417.87487	0.02168
416.58910	0.02159
415.30333	0.02150
414.01756	0.02141
412.73179	0.02135
411.44602	0.02129
410.16026	0.02123
408.87449	0.02115
407.58872	0.02109
406.30295	0.02109
405.01718	0.02115
403.73141	0.02125
402.44564	0.02135
401.15987	0.02142
399.87411	0.02143
