3997.45528 0.03491
3996.16951 0.03485
3994.88374 0.03484
3993.59798 0.03452
3992.31221 0.03400
3991.02644 0.03374
3989.74067 0.03402
3988.45490 0.03484
3987.16913 0.03597
3985.88336 0.03697
3984.59759 0.03732
3983.31183 0.03690
3982.02606 0.03608
3980.74029 0.03546
3979.45452 0.03539
3978.16875 0.03577
3976.88298 0.03621
3975.59721 0.03630
3974.31144 0.03591
3973.02567 0.03528
3971.73991 0.03487
3970.45414 0.03491
3969.16837 0.03529
3967.88260 0.03572
3966.59683 0.03589
3965.31106 0.03568
3964.02529 0.03514
3962.73952 0.03455
3961.45376 0.03431
3960.16799 0.03471
3958.88222 0.03572
3957.59645 0.03687
3956.31068 0.03743
3955.02491 0.03687
3953.73914 0.03528
3952.45337 0.03350
3951.16760 0.03257
3949.88184 0.03292
3948.59607 0.03412
3947.31030 0.03537
3946.02453 0.03611
3944.73876 0.03620
3943.45299 0.03577
3942.16722 0.03506
3940.88145 0.03436
3939.59569 0.03392
3938.30992 0.03395
3937.02415 0.03450
3935.73838 0.03544
3934.45261 0.03639
3933.16684 0.03700
3931.88107 0.03717
3930.59530 0.03709
3929.30953 0.03693
3928.02377 0.03669
3926.73800 0.03626
3925.45223 0.03566
3924.16646 0.03500
3922.88069 0.03433
3921.59492 0.03387
3920.30915 0.03404
3919.02338 0.03501
3917.73762 0.03627
3916.45185 0.03692
3915.16608 0.03659
3913.88031 0.03576
3912.59454 0.03519
3911.30877 0.03521
3910.02300 0.03562
3908.73723 0.03612
3907.45146 0.03660
3906.16570 0.03713
3904.87993 0.03777
3903.59416 0.03832
3902.30839 0.03848
3901.02262 0.03818
3899.73685 0.03775
3898.45108 0.03754
3897.16531 0.03744
3895.87955 0.03714
3894.59378 0.03664
3893.30801 0.03629
3892.02224 0.03622
3890.73647 0.03605
3889.45070 0.03531
3888.16493 0.03410
3886.87916 0.03309
3885.59339 0.03281
3884.30763 0.03323
3883.02186 0.03392
3881.73609 0.03462
3880.45032 0.03529
3879.16455 0.03599
3877.87878 0.03672
3876.59301 0.03728
3875.30724 0.03733
3874.02148 0.03669
3872.73571 0.03562
3871.44994 0.03464
3870.16417 0.03426
3868.87840 0.03460
3867.59263 0.03531
3866.30686 0.03597
3865.02109 0.03623
3863.73532 0.03592
3862.44956 0.03502
3861.16379 0.03384
3859.87802 0.03285
3858.59225 0.03247
3857.30648 0.03289
3856.02071 0.03385
3854.73494 0.03483
3853.44917 0.03545
3852.16341 0.03576
3850.87764 0.03605
3849.59187 0.03638
3848.30610 0.03646
3847.02033 0.03605
3845.73456 0.03529
3844.44879 0.03464
3843.16302 0.03436
3841.87725 0.03442
3840.59149 0.03467
3839.30572 0.03496
3838.01995 0.03520
3836.73418 0.03520
3835.44841 0.03481
3834.16264 0.03397
3832.87687 0.03291
3831.59110 0.03198
3830.30534 0.03137
3829.01957 0.03095
3827.73380 0.03053
3826.44803 0.03023
3825.16226 0.03039
3823.87649 0.03111
3822.59072 0.03208
3821.30495 0.03303
3820.01918 0.03392
3818.73342 0.03469
3817.44765 0.03507
3816.16188 0.03483
3814.87611 0.03404
3813.59034 0.03310
3812.30457 0.03252
3811.01880 0.03253
3809.73303 0.03284
3808.44726 0.03299
3807.16150 0.03280
3805.87573 0.03252
3804.58996 0.03251
3803.30419 0.03297
3802.01842 0.03378
3800.73265 0.03452
3799.44688 0.03479
3798.16111 0.03455
3796.87535 0.03414
3795.58958 0.03388
3794.30381 0.03376
3793.01804 0.03365
3791.73227 0.03360
3790.44650 0.03378
3789.16073 0.03423
3787.87496 0.03475
3786.58919 0.03491
3785.30343 0.03432
3784.01766 0.03301
3782.73189 0.03146
3781.44612 0.03025
3780.16035 0.02965
3778.87458 0.02957
3777.58881 0.02993
3776.30304 0.03082
3775.01728 0.03218
3773.73151 0.03356
3772.44574 0.03436
3771.15997 0.03437
3769.87420 0.03387
3768.58843 0.03323
3767.30266 0.03280
3766.01689 0.03284
3764.73112 0.03329
3763.44536 0.03360
3762.15959 0.03318
3760.87382 0.03202
3759.58805 0.03072
3758.30228 0.03000
3757.01651 0.03024
3755.73074 0.03141
3754.44497 0.03308
3753.15921 0.03457
3751.87344 0.03529
3750.58767 0.03510
3749.30190 0.03446
3748.01613 0.03401
3746.73036 0.03390
3745.44459 0.03394
3744.15882 0.03403
3742.87305 0.03413
3741.58729 0.03407
3740.30152 0.03376
3739.01575 0.03319
3737.72998 0.03242
3736.44421 0.03164
3735.15844 0.03103
3733.87267 0.03059
3732.58690 0.03030
3731.30114 0.03025
3730.01537 0.03049
3728.72960 0.03081
3727.44383 0.03102
3726.15806 0.03115
3724.87229 0.03133
3723.58652 0.03148
3722.30075 0.03145
3721.01498 0.03128
3719.72922 0.03126
3718.44345 0.03170
3717.15768 0.03248
3715.87191 0.03304
3714.58614 0.03291
3713.30037 0.03229
3712.01460 0.03187
3710.72883 0.03211
3709.44307 0.03271
3708.15730 0.03320
3706.87153 0.03351
3705.58576 0.03388
3704.29999 0.03431
3703.01422 0.03459
3701.72845 0.03462
3700.44268 0.03443
3699.15691 0.03378
3697.87115 0.03248
3696.58538 0.03080
3695.29961 0.02944
3694.01384 0.02900
3692.72807 0.02955
3691.44230 0.03028
3690.15653 0.03022
3688.87076 0.02931
3687.58500 0.02840
3686.29923 0.02827
3685.01346 0.02900
3683.72769 0.02991
3682.44192 0.03019
3681.15615 0.02975
3679.87038 0.02919
3678.58461 0.02910
3677.29884 0.02943
3676.01308 0.02962
3674.72731 0.02938
3673.44154 0.02904
3672.15577 0.02922
3670.87000 0.03014
3669.58423 0.03137
3668.29846 0.03209
3667.01269 0.03190
3665.72693 0.03109
3664.44116 0.03038
3663.15539 0.03032
3661.86962 0.03108
3660.58385 0.03235
3659.29808 0.03357
3658.01231 0.03424
3656.72654 0.03426
3655.44077 0.03388
3654.15501 0.03349
3652.86924 0.03340
3651.58347 0.03381
3650.29770 0.03460
3649.01193 0.03532
3647.72616 0.03540
3646.44039 0.03459
3645.15462 0.03311
3643.86886 0.03150
3642.58309 0.03038
3641.29732 0.03019
3640.01155 0.03093
3638.72578 0.03220
3637.44001 0.03343
3636.15424 0.03419
3634.86847 0.03430
3633.58270 0.03396
3632.29694 0.03358
3631.01117 0.03358
3629.72540 0.03397
3628.43963 0.03425
3627.15386 0.03379
3625.86809 0.03253
3624.58232 0.03115
3623.29655 0.03036
3622.01079 0.03030
3620.72502 0.03069
3619.43925 0.03131
3618.15348 0.03218
3616.86771 0.03332
3615.58194 0.03460
3614.29617 0.03575
3613.01040 0.03647
3611.72463 0.03655
3610.43887 0.03605
3609.15310 0.03534
3607.86733 0.03485
3606.58156 0.03480
3605.29579 0.03498
3604.01002 0.03508
3602.72425 0.03498
3601.43848 0.03478
3600.15272 0.03461
3598.86695 0.03451
3597.58118 0.03467
3596.29541 0.03533
3595.00964 0.03643
3593.72387 0.03759
3592.43810 0.03864
3591.15233 0.03976
3589.86656 0.04106
3588.58080 0.04218
3587.29503 0.04251
3586.00926 0.04172
3584.72349 0.04014
3583.43772 0.03857
3582.15195 0.03755
3580.86618 0.03711
3579.58041 0.03714
3578.29464 0.03752
3577.00888 0.03816
3575.72311 0.03889
3574.43734 0.03942
3573.15157 0.03953
3571.86580 0.03925
3570.58003 0.03892
3569.29426 0.03894
3568.00849 0.03954
3566.72273 0.04054
3565.43696 0.04146
3564.15119 0.04191
3562.86542 0.04184
3561.57965 0.04157
3560.29388 0.04151
3559.00811 0.04191
3557.72234 0.04264
3556.43657 0.04327
3555.15081 0.04342
3553.86504 0.04298
3552.57927 0.04222
3551.29350 0.04163
3550.00773 0.04166
3548.72196 0.04234
3547.43619 0.04328
3546.15042 0.04402
3544.86466 0.04442
3543.57889 0.04462
3542.29312 0.04468
3541.00735 0.04450
3539.72158 0.04411
3538.43581 0.04374
3537.15004 0.04353
3535.86427 0.04328
3534.57850 0.04283
3533.29274 0.04237
3532.00697 0.04241
3530.72120 0.04322
3529.43543 0.04451
3528.14966 0.04569
3526.86389 0.04628
3525.57812 0.04628
3524.29235 0.04601
3523.00659 0.04585
3521.72082 0.04595
3520.43505 0.04631
3519.14928 0.04691
3517.86351 0.04769
3516.57774 0.04847
3515.29197 0.04898
3514.00620 0.04909
3512.72043 0.04898
3511.43467 0.04893
3510.14890 0.04902
3508.86313 0.04908
3507.57736 0.04893
3506.29159 0.04849
3505.00582 0.04787
3503.72005 0.04723
3502.43428 0.04674
3501.14852 0.04664
3499.86275 0.04706
3498.57698 0.04793
3497.29121 0.04887
3496.00544 0.04950
3494.71967 0.04968
3493.43390 0.04956
3492.14813 0.04945
3490.86236 0.04962
3489.57660 0.05010
3488.29083 0.05072
3487.00506 0.05124
3485.71929 0.05165
3484.43352 0.05205
3483.14775 0.05248
3481.86198 0.05275
3480.57621 0.05268
3479.29045 0.05224
3478.00468 0.05166
3476.71891 0.05118
3475.43314 0.05100
3474.14737 0.05117
3472.86160 0.05156
3471.57583 0.05192
3470.29006 0.05198
3469.00429 0.05160
3467.71853 0.05083
3466.43276 0.04993
3465.14699 0.04924
3463.86122 0.04904
3462.57545 0.04942
3461.28968 0.05021
3460.00391 0.05102
3458.71814 0.05148
3457.43238 0.05154
3456.14661 0.05150
3454.86084 0.05168
3453.57507 0.05209
3452.28930 0.05248
3451.00353 0.05269
3449.71776 0.05284
3448.43199 0.05316
3447.14622 0.05360
3445.86046 0.05389
3444.57469 0.05395
3443.28892 0.05408
3442.00315 0.05453
3440.71738 0.05511
3439.43161 0.05526
3438.14584 0.05477
3436.86007 0.05403
3435.57431 0.05358
3434.28854 0.05355
3433.00277 0.05371
3431.71700 0.05393
3430.43123 0.05431
3429.14546 0.05479
3427.85969 0.05511
3426.57392 0.05508
3425.28815 0.05490
3424.00239 0.05493
3422.71662 0.05529
3421.43085 0.05574
3420.14508 0.05604
3418.85931 0.05615
3417.57354 0.05624
3416.28777 0.05642
3415.00200 0.05661
3413.71624 0.05667
3412.43047 0.05654
3411.14470 0.05626
3409.85893 0.05589
3408.57316 0.05557
3407.28739 0.05541
3406.00162 0.05546
3404.71585 0.05567
3403.43008 0.05597
3402.14432 0.05643
3400.85855 0.05707
3399.57278 0.05738
3398.28701 0.05727
3397.00124 0.05729
3395.71547 0.05733
3394.42970 0.05725
3393.14393 0.05710
3391.85817 0.05713
3390.57240 0.05749
3389.28663 0.05814
3388.00086 0.05885
3386.71509 0.05938
3385.42932 0.05966
3384.14355 0.05980
3382.85778 0.05999
3381.57201 0.06036
3380.28625 0.06090
3379.00048 0.06154
3377.71471 0.06208
3376.42894 0.06226
3375.14317 0.06197
3373.85740 0.06145
3372.57163 0.06115
3371.28586 0.06133
3370.00010 0.06175
3368.71433 0.06195
3367.42856 0.06167
3366.14279 0.06114
3364.85702 0.06071
3363.57125 0.06050
3362.28548 0.06040
3360.99971 0.06032
3359.71394 0.06030
3358.42818 0.06043
3357.14241 0.06070
3355.85664 0.06100
3354.57087 0.06111
3353.28510 0.06097
3351.99933 0.06073
3350.71356 0.06067
3349.42779 0.06082
3348.14202 0.06093
3346.85626 0.06079
3345.57049 0.06059
3344.28472 0.06070
3342.99895 0.06122
3341.71318 0.06179
3340.42741 0.06197
3339.14164 0.06161
3337.85587 0.06107
3336.57011 0.06079
3335.28434 0.06095
3333.99857 0.06134
3332.71280 0.06169
3331.42703 0.06188
3330.14126 0.06191
3328.85549 0.06173
3327.56972 0.06131
3326.28395 0.06081
3324.99819 0.06045
3323.71242 0.06036
3322.42665 0.06048
3321.14088 0.06075
3319.85511 0.06115
3318.56934 0.06161
3317.28357 0.06207
3315.99780 0.06245
3314.71204 0.06283
3313.42627 0.06328
3312.14050 0.06376
3310.85473 0.06414
3309.56896 0.06440
3308.28319 0.06455
3306.99742 0.06452
3305.71165 0.06414
3304.42588 0.06338
3303.14012 0.06247
3301.85435 0.06187
3300.56858 0.06189
3299.28281 0.06237
3297.99704 0.06279
3296.71127 0.06276
3295.42550 0.06248
3294.13973 0.06256
3292.85397 0.06330
3291.56820 0.06440
3290.28243 0.06526
3288.99666 0.06558
3287.71089 0.06539
3286.42512 0.06485
3285.13935 0.06411
3283.85358 0.06340
3282.56781 0.06298
3281.28205 0.06294
3279.99628 0.06317
3278.71051 0.06348
3277.42474 0.06375
3276.13897 0.06389
3274.85320 0.06383
3273.56743 0.06364
3272.28166 0.06351
3270.99590 0.06361
3269.71013 0.06394
3268.42436 0.06427
3267.13859 0.06440
3265.85282 0.06430
3264.56705 0.06411
3263.28128 0.06398
3261.99551 0.06387
3260.70974 0.06362
3259.42398 0.06317
3258.13821 0.06269
3256.85244 0.06246
3255.56667 0.06256
3254.28090 0.06284
3252.99513 0.06307
3251.70936 0.06320
3250.42359 0.06331
3249.13783 0.06343
3247.85206 0.06338
3246.56629 0.06291
3245.28052 0.06210
3243.99475 0.06139
3242.70898 0.06122
3241.42321 0.06167
3240.13744 0.06239
3238.85167 0.06296
3237.56591 0.06311
3236.28014 0.06281
3234.99437 0.06224
3233.70860 0.06161
3232.42283 0.06108
3231.13706 0.06078
3229.85129 0.06078
3228.56552 0.06095
3227.27976 0.06101
3225.99399 0.06076
3224.70822 0.06029
3223.42245 0.05987
3222.13668 0.05965
3220.85091 0.05966
3219.56514 0.05980
3218.27937 0.06003
3216.99360 0.06035
3215.70784 0.06077
3214.42207 0.06117
3213.13630 0.06131
3211.85053 0.06101
3210.56476 0.06040
3209.27899 0.05987
3207.99322 0.05968
3206.70745 0.05973
3205.42169 0.05977
3204.13592 0.05979
3202.85015 0.06003
3201.56438 0.06058
3200.27861 0.06111
3198.99284 0.06117
3197.70707 0.06063
3196.42130 0.05984
3195.13553 0.05924
3193.84977 0.05901
3192.56400 0.05905
3191.27823 0.05920
3189.99246 0.05934
3188.70669 0.05943
3187.42092 0.05944
3186.13515 0.05934
3184.84938 0.05911
3183.56362 0.05876
3182.27785 0.05842
3180.99208 0.05826
3179.70631 0.05829
3178.42054 0.05831
3177.13477 0.05815
3175.84900 0.05779
3174.56323 0.05736
3173.27746 0.05694
3171.99170 0.05655
3170.70593 0.05620
3169.42016 0.05598
3168.13439 0.05603
3166.84862 0.05637
3165.56285 0.05681
3164.27708 0.05709
3162.99131 0.05710
3161.70555 0.05693
3160.41978 0.05673
3159.13401 0.05656
3157.84824 0.05637
3156.56247 0.05607
3155.27670 0.05560
3153.99093 0.05499
3152.70516 0.05441
3151.41939 0.05405
3150.13363 0.05398
3148.84786 0.05414
3147.56209 0.05446
3146.27632 0.05483
3144.99055 0.05514
3143.70478 0.05530
3142.41901 0.05529
3141.13324 0.05518
3139.84748 0.05498
3138.56171 0.05467
3137.27594 0.05431
3135.99017 0.05404
3134.70440 0.05400
3133.41863 0.05426
3132.13286 0.05471
3130.84709 0.05509
3129.56132 0.05508
3128.27556 0.05459
3126.98979 0.05383
3125.70402 0.05314
3124.41825 0.05281
3123.13248 0.05290
3121.84671 0.05324
3120.56094 0.05364
3119.27517 0.05401
3117.98940 0.05441
3116.70364 0.05478
3115.41787 0.05496
3114.13210 0.05481
3112.84633 0.05441
3111.56056 0.05399
3110.27479 0.05375
3108.98902 0.05366
3107.70325 0.05351
3106.41749 0.05312
3105.13172 0.05250
3103.84595 0.05189
3102.56018 0.05159
3101.27441 0.05170
3099.98864 0.05211
3098.70287 0.05262
3097.41710 0.05306
3096.13133 0.05339
3094.84557 0.05362
3093.55980 0.05386
3092.27403 0.05415
3090.98826 0.05442
3089.70249 0.05455
3088.41672 0.05440
3087.13095 0.05401
3085.84518 0.05351
3084.55942 0.05308
3083.27365 0.05283
3081.98788 0.05266
3080.70211 0.05239
3079.41634 0.05201
3078.13057 0.05173
3076.84480 0.05179
3075.55903 0.05216
3074.27326 0.05260
3072.98750 0.05288
3071.70173 0.05303
3070.41596 0.05315
3069.13019 0.05328
3067.84442 0.05332
3066.55865 0.05325
3065.27288 0.05314
3063.98711 0.05303
3062.70135 0.05282
3061.41558 0.05245
3060.12981 0.05200
3058.84404 0.05165
3057.55827 0.05146
3056.27250 0.05132
3054.98673 0.05114
3053.70096 0.05092
3052.41519 0.05072
3051.12943 0.05057
3049.84366 0.05044
3048.55789 0.05031
3047.27212 0.05020
3045.98635 0.05015
3044.70058 0.05018
3043.41481 0.05020
3042.12904 0.05020
3040.84328 0.05021
3039.55751 0.05027
3038.27174 0.05032
3036.98597 0.05030
3035.70020 0.05021
3034.41443 0.05010
3033.12866 0.04998
3031.84289 0.04977
3030.55712 0.04953
3029.27136 0.04940
3027.98559 0.04950
3026.69982 0.04971
3025.41405 0.04983
3024.12828 0.04971
3022.84251 0.04941
3021.55674 0.04908
3020.27097 0.04888
3018.98521 0.04886
3017.69944 0.04899
3016.41367 0.04912
3015.12790 0.04911
3013.84213 0.04891
3012.55636 0.04861
3011.27059 0.04837
3009.98482 0.04827
3008.69905 0.04834
3007.41329 0.04856
3006.12752 0.04884
3004.84175 0.04905
3003.55598 0.04908
3002.27021 0.04906
3000.98444 0.04899
2999.69867 0.04854
2998.41290 0.04854
2997.12714 0.04859
2995.84137 0.04857
2994.55560 0.04842
2993.26983 0.04817
2991.98406 0.04793
2990.69829 0.04781
2989.41252 0.04785
2988.12675 0.04795
2986.84098 0.04807
2985.55522 0.04829
2984.26945 0.04873
2982.98368 0.04928
2981.69791 0.04964
2980.41214 0.04957
2979.12637 0.04921
2977.84060 0.04886
2976.55483 0.04867
2975.26907 0.04854
2973.98330 0.04838
2972.69753 0.04832
2971.41176 0.04858
2970.12599 0.04922
2968.84022 0.04999
2967.55445 0.05054
2966.26868 0.05076
2964.98291 0.05082
2963.69715 0.05090
2962.41138 0.05102
2961.12561 0.05108
2959.83984 0.05108
2958.55407 0.05107
2957.26830 0.05108
2955.98253 0.05114
2954.69676 0.05132
2953.41100 0.05154
2952.12523 0.05159
2950.83946 0.05133
2949.55369 0.05096
2948.26792 0.05078
2946.98215 0.05088
2945.69638 0.05105
2944.41061 0.05113
2943.12484 0.05117
2941.83908 0.05128
2940.55331 0.05144
2939.26754 0.05153
2937.98177 0.05148
2936.69600 0.05127
2935.41023 0.05095
2934.12446 0.05067
2932.83869 0.05059
2931.55293 0.05069
2930.26716 0.05083
2928.98139 0.05099
2927.69562 0.05124
2926.40985 0.05155
2925.12408 0.05170
2923.83831 0.05155
2922.55254 0.05131
2921.26677 0.05128
2919.98101 0.05141
2918.69524 0.05136
2917.40947 0.05096
2916.12370 0.05040
2914.83793 0.04993
2913.55216 0.04959
2912.26639 0.04926
2910.98062 0.04898
2909.69486 0.04884
2908.40909 0.04885
2907.12332 0.04883
2905.83755 0.04867
2904.55178 0.04848
2903.26601 0.04843
2901.98024 0.04862
2900.69447 0.04891
2899.40870 0.04906
2898.12294 0.04890
2896.83717 0.04841
2895.55140 0.04777
2894.26563 0.04720
2892.97986 0.04686
2891.69409 0.04670
2890.40832 0.04662
2889.12255 0.04656
2887.83678 0.04650
2886.55102 0.04642
2885.26525 0.04619
2883.97948 0.04582
2882.69371 0.04551
2881.40794 0.04547
2880.12217 0.04568
2878.83640 0.04588
2877.55063 0.04593
2876.26487 0.04597
2874.97910 0.04617
2873.69333 0.04645
2872.40756 0.04655
2871.12179 0.04640
2869.83602 0.04620
2868.55025 0.04616
2867.26448 0.04619
2865.97871 0.04603
2864.69295 0.04562
2863.40718 0.04524
2862.12141 0.04510
2860.83564 0.04513
2859.54987 0.04511
2858.26410 0.04490
2856.97833 0.04458
2855.69256 0.04429
2854.40680 0.04414
2853.12103 0.04415
2851.83526 0.04424
2850.54949 0.04425
2849.26372 0.04407
2847.97795 0.04373
2846.69218 0.04339
2845.40641 0.04320
2844.12064 0.04318
2842.83488 0.04319
2841.54911 0.04300
2840.26334 0.04253
2838.97757 0.04191
2837.69180 0.04136
2836.40603 0.04098
2835.12026 0.04078
2833.83449 0.04073
2832.54873 0.04081
2831.26296 0.04097
2829.97719 0.04108
2828.69142 0.04108
2827.40565 0.04105
2826.11988 0.04113
2824.83411 0.04134
2823.54834 0.04151
2822.26257 0.04145
2820.97681 0.04115
2819.69104 0.04075
2818.40527 0.04038
2817.11950 0.04009
2815.83373 0.03988
2814.54796 0.03974
2813.26219 0.03969
2811.97642 0.03972
2810.69066 0.03977
2809.40489 0.03975
2808.11912 0.03965
2806.83335 0.03952
2805.54758 0.03936
2804.26181 0.03909
2802.97604 0.03869
2801.69027 0.03833
2800.40450 0.03820
2799.11874 0.03835
2797.83297 0.03863
2796.54720 0.03888
2795.26143 0.03899
2793.97566 0.03894
2792.68989 0.03878
2791.40412 0.03864
2790.11835 0.03858
2788.83259 0.03859
2787.54682 0.03855
2786.26105 0.03841
2784.97528 0.03826
2783.68951 0.03820
2782.40374 0.03823
2781.11797 0.03827
2779.83220 0.03828
2778.54643 0.03824
2777.26067 0.03813
2775.97490 0.03794
2774.68913 0.03773
2773.40336 0.03756
2772.11759 0.03742
2770.83182 0.03732
2769.54605 0.03730
2768.26028 0.03738
2766.97452 0.03747
2765.68875 0.03746
2764.40298 0.03737
2763.11721 0.03732
2761.83144 0.03739
2760.54567 0.03752
2759.25990 0.03754
2757.97413 0.03737
2756.68836 0.03710
2755.40260 0.03695
2754.11683 0.03698
2752.83106 0.03702
2751.54529 0.03691
2750.25952 0.03670
2748.97375 0.03658
2747.68798 0.03659
2746.40221 0.03656
2745.11645 0.03635
2743.83068 0.03606
2742.54491 0.03589
2741.25914 0.03588
2739.97337 0.03594
2738.68760 0.03596
2737.40183 0.03599
2736.11606 0.03608
2734.83029 0.03616
2733.54453 0.03611
2732.25876 0.03597
2730.97299 0.03589
2729.68722 0.03591
2728.40145 0.03599
2727.11568 0.03601
2725.82991 0.03593
2724.54414 0.03577
2723.25838 0.03561
2721.97261 0.03553
2720.68684 0.03557
2719.40107 0.03566
2718.11530 0.03574
2716.82953 0.03574
2715.54376 0.03562
2714.25799 0.03542
2712.97222 0.03522
2711.68646 0.03513
2710.40069 0.03510
2709.11492 0.03501
2707.82915 0.03482
2706.54338 0.03459
2705.25761 0.03441
2703.97184 0.03431
2702.68607 0.03425
2701.40031 0.03417
2700.11454 0.03405
2698.82877 0.03393
2697.54300 0.03391
2696.25723 0.03407
2694.97146 0.03434
2693.68569 0.03455
2692.39992 0.03456
2691.11415 0.03436
2689.82839 0.03413
2688.54262 0.03400
2687.25685 0.03397
2685.97108 0.03392
2684.68531 0.03376
2683.39954 0.03353
2682.11377 0.03337
2680.82800 0.03336
2679.54224 0.03348
2678.25647 0.03358
2676.97070 0.03357
2675.68493 0.03347
2674.39916 0.03333
2673.11339 0.03319
2671.82762 0.03305
2670.54185 0.03296
2669.25608 0.03297
2667.97032 0.03299
2666.68455 0.03292
2665.39878 0.03275
2664.11301 0.03269
2662.82724 0.03291
2661.54147 0.03338
2660.25570 0.03381
2658.96993 0.03398
2657.68417 0.03388
2656.39840 0.03368
2655.11263 0.03353
2653.82686 0.03344
2652.54109 0.03334
2651.25532 0.03314
2649.96955 0.03274
2648.68378 0.03223
2647.39801 0.03177
2646.11225 0.03153
2644.82648 0.03152
2643.54071 0.03167
2642.25494 0.03189
2640.96917 0.03212
2639.68340 0.03232
2638.39763 0.03247
2637.11186 0.03257
2635.82609 0.03250
2634.54033 0.03218
2633.25456 0.03169
2631.96879 0.03131
2630.68302 0.03124
2629.39725 0.03146
2628.11148 0.03174
2626.82571 0.03187
2625.53994 0.03182
2624.25418 0.03166
2622.96841 0.03144
2621.68264 0.03113
2620.39687 0.03074
2619.11110 0.03034
2617.82533 0.02999
2616.53956 0.02966
2615.25379 0.02930
2613.96802 0.02898
2612.68226 0.02875
2611.39649 0.02860
2610.11072 0.02854
2608.82495 0.02859
2607.53918 0.02877
2606.25341 0.02903
2604.96764 0.02929
2603.68187 0.02950
2602.39611 0.02967
2601.11034 0.02975
2599.82457 0.02972
2598.53880 0.02953
2597.25303 0.02919
2595.96726 0.02871
2594.68149 0.02817
2593.39572 0.02770
2592.10995 0.02742
2590.82419 0.02740
2589.53842 0.02760
2588.25265 0.02786
2586.96688 0.02797
2585.68111 0.02784
2584.39534 0.02760
2583.10957 0.02750
2581.82380 0.02761
2580.53804 0.02782
2579.25227 0.02803
2577.96650 0.02822
2576.68073 0.02826
2575.39496 0.02804
2574.10919 0.02767
2572.82342 0.02742
2571.53765 0.02750
2570.25188 0.02781
2568.96612 0.02814
2567.68035 0.02832
2566.39458 0.02829
2565.10881 0.02807
2563.82304 0.02769
2562.53727 0.02729
2561.25150 0.02701
2559.96573 0.02693
2558.67997 0.02694
2557.39420 0.02683
2556.10843 0.02654
2554.82266 0.02620
2553.53689 0.02596
2552.25112 0.02581
2550.96535 0.02567
2549.67958 0.02549
2548.39381 0.02523
2547.10805 0.02486
2545.82228 0.02441
2544.53651 0.02416
2543.25074 0.02435
2541.96497 0.02501
2540.67920 0.02581
2539.39343 0.02635
2538.10766 0.02643
2536.82190 0.02617
2535.53613 0.02583
2534.25036 0.02568
2532.96459 0.02571
2531.67882 0.02571
2530.39305 0.02551
2529.10728 0.02522
2527.82151 0.02515
2526.53574 0.02548
2525.24998 0.02606
2523.96421 0.02658
2522.67844 0.02683
2521.39267 0.02684
2520.10690 0.02678
2518.82113 0.02679
2517.53536 0.02685
2516.24959 0.02682
2514.96383 0.02658
2513.67806 0.02612
2512.39229 0.02568
2511.10652 0.02553
2509.82075 0.02564
2508.53498 0.02565
2507.24921 0.02526
2505.96344 0.02467
2504.67767 0.02431
2503.39191 0.02432
2502.10614 0.02449
2500.82037 0.02465
2499.53460 0.02485
2498.24883 0.02517
2496.96306 0.02554
2495.67729 0.02587
2494.39152 0.02612
2493.10576 0.02624
2491.81999 0.02614
2490.53422 0.02580
2489.24845 0.02531
2487.96268 0.02483
2486.67691 0.02444
2485.39114 0.02427
2484.10537 0.02441
2482.81960 0.02482
2481.53384 0.02522
2480.24807 0.02531
2478.96230 0.02504
2477.67653 0.02467
2476.39076 0.02448
2475.10499 0.02451
2473.81922 0.02455
2472.53345 0.02437
2471.24769 0.02396
2469.96192 0.02357
2468.67615 0.02350
2467.39038 0.02381
2466.10461 0.02433
2464.81884 0.02478
2463.53307 0.02499
2462.24730 0.02500
2460.96153 0.02490
2459.67577 0.02477
2458.39000 0.02466
2457.10423 0.02464
2455.81846 0.02473
2454.53269 0.02479
2453.24692 0.02463
2451.96115 0.02424
2450.67538 0.02389
2449.38962 0.02388
2448.10385 0.02426
2446.81808 0.02481
2445.53231 0.02522
2444.24654 0.02532
2442.96077 0.02517
2441.67500 0.02493
2440.38923 0.02474
2439.10346 0.02466
2437.81770 0.02467
2436.53193 0.02462
2435.24616 0.02443
2433.96039 0.02422
2432.67462 0.02421
2431.38885 0.02447
2430.10308 0.02477
2428.81731 0.02481
2427.53155 0.02454
2426.24578 0.02410
2424.96001 0.02365
2423.67424 0.02324
2422.38847 0.02287
2421.10270 0.02259
2419.81693 0.02259
2418.53116 0.02291
2417.24539 0.02333
2415.95963 0.02357
2414.67386 0.02361
2413.38809 0.02367
2412.10232 0.02388
2410.81655 0.02414
2409.53078 0.02425
2408.24501 0.02410
2406.95924 0.02370
2405.67347 0.02319
2404.38771 0.02282
2403.10194 0.02280
2401.81617 0.02309
2400.53040 0.02346
2399.24463 0.02420
2397.95886 0.02366
2396.67309 0.02327
2395.38732 0.02327
2394.10156 0.02341
2392.81579 0.02358
2391.53002 0.02370
2390.24425 0.02369
2388.95848 0.02362
2387.67271 0.02357
2386.38694 0.02357
2385.10117 0.02354
2383.81540 0.02348
2382.52964 0.02341
2381.24387 0.02337
2379.95810 0.02338
2378.67233 0.02345
2377.38656 0.02363
2376.10079 0.02388
2374.81502 0.02407
2373.52925 0.02420
2372.24349 0.02428
2370.95772 0.02445
2369.67195 0.02446
2368.38618 0.02437
2367.10041 0.02436
2365.81464 0.02449
2364.52887 0.02432
2363.24310 0.02395
2361.95733 0.02380
2360.67157 0.02407
2359.38580 0.02423
2358.10003 0.02427
2356.81426 0.02436
2355.52849 0.02451
2354.24272 0.02466
2352.95695 0.02471
2351.67118 0.02507
2350.38542 0.02572
2349.09965 0.02595
2347.81388 0.02554
2346.52811 0.02542
2345.24234 0.02564
2343.95657 0.02534
2342.67080 0.02441
2341.38503 0.02443
2340.09926 0.02554
2338.81350 0.02563
2337.52773 0.02454
2336.24196 0.02446
2334.95619 0.02510
2333.67042 0.02421
2332.38465 0.02228
2331.09888 0.02219
2329.81311 0.02237
2328.52735 0.02094
2327.24158 0.02130
2325.95581 0.02304
2324.67004 0.02364
2323.38427 0.02485
2322.09850 0.02672
2320.81273 0.02685
2319.52696 0.02701
2318.24119 0.02729
2316.95543 0.02650
2315.66966 0.02598
2314.38389 0.02561
2313.09812 0.02490
2311.81235 0.02463
2310.52658 0.02421
2309.24081 0.02371
2307.95504 0.02338
2306.66928 0.02284
2305.38351 0.02248
2304.09774 0.02224
2302.81197 0.02212
2301.52620 0.02225
2300.24043 0.02231
2298.95466 0.02219
2297.66889 0.02176
2296.38312 0.02121
2295.09736 0.02083
2293.81159 0.02070
2292.52582 0.02084
2291.24005 0.02112
2289.95428 0.02150
2288.66851 0.02185
2287.38274 0.02201
2286.09697 0.02195
2284.81121 0.02179
2283.52544 0.02173
2282.23967 0.02175
2280.95390 0.02173
2279.66813 0.02148
2278.38236 0.02095
2277.09659 0.02024
2275.81082 0.01960
2274.52505 0.01933
2273.23929 0.01955
2271.95352 0.02009
2270.66775 0.02048
2269.38198 0.02037
2268.09621 0.01975
2266.81044 0.01904
2265.52467 0.01864
2264.23890 0.01860
2262.95314 0.01868
2261.66737 0.01860
2260.38160 0.01826
2259.09583 0.01782
2257.81006 0.01747
2256.52429 0.01719
2255.23852 0.01686
2253.95275 0.01655
2252.66698 0.01632
2251.38122 0.01606
2250.09545 0.01628
2248.80968 0.01810
2247.52391 0.01778
2246.23814 0.01715
2244.95237 0.01661
2243.66660 0.01628
2242.38083 0.01609
2241.09507 0.01608
2239.80930 0.01631
2238.52353 0.01668
2237.23776 0.01698
2235.95199 0.01707
2234.66622 0.01702
2233.38045 0.01704
2232.09468 0.01723
2230.80891 0.01755
2229.52315 0.01773
2228.23738 0.01746
2226.95161 0.01663
2225.66584 0.01544
2224.38007 0.01429
2223.09430 0.01347
2221.80853 0.01315
2220.52276 0.01335
2219.23700 0.01396
2217.95123 0.01482
2216.66546 0.01559
2215.37969 0.01589
2214.09392 0.01552
2212.80815 0.01479
2211.52238 0.01435
2210.23661 0.01453
2208.95084 0.01493
2207.66508 0.01489
2206.37931 0.01424
2205.09354 0.01346
2203.80777 0.01315
2202.52200 0.01340
2201.23623 0.01379
2199.95046 0.01390
2198.66469 0.01363
2197.37893 0.01314
2196.09316 0.01274
2194.80739 0.01277
2193.52162 0.01337
2192.23585 0.01434
2190.95008 0.01526
2189.66431 0.01581
2188.37854 0.01589
2187.09277 0.01532
2185.80701 0.01403
2184.52124 0.01247
2183.23547 0.01160
2181.94970 0.01197
2180.66393 0.01316
2179.37816 0.01404
2178.09239 0.01374
2176.80662 0.01235
2175.52085 0.01070
2174.23509 0.00948
2172.94932 0.00880
2171.66355 0.00847
2170.37778 0.00865
2169.09201 0.00961
2167.80624 0.01106
2166.52047 0.01217
2165.23470 0.01222
2163.94894 0.01100
2162.66317 0.00880
2161.37740 0.00631
2160.09163 0.00460
2158.80586 0.00449
2157.52009 0.00560
2156.23432 0.00661
2154.94855 0.00643
2153.66278 0.00505
2152.37702 0.00348
2151.09125 0.00294
2149.80548 0.00406
2148.51971 0.00640
2147.23394 0.00888
2145.94817 0.01054
2144.66240 0.01102
2143.37663 0.01053
2142.09087 0.00961
2140.80510 0.00888
2139.51933 0.00870
2138.23356 0.00898
2136.94779 0.00942
2135.66202 0.00984
2134.37625 0.01028
2133.09048 0.01073
2131.80471 0.01098
2130.51895 0.01093
2129.23318 0.01079
2127.94741 0.01086
2126.66164 0.01126
2125.37587 0.01186
2124.09010 0.01247
2122.80433 0.01291
2121.51856 0.01296
2120.23280 0.01263
2118.94703 0.01225
2117.66126 0.01224
2116.37549 0.01267
2115.08972 0.01324
2113.80395 0.01361
2112.51818 0.01366
2111.23241 0.01357
2109.94664 0.01364
2108.66088 0.01399
2107.37511 0.01436
2106.08934 0.01436
2104.80357 0.01399
2103.51780 0.01358
2102.23203 0.01340
2100.94626 0.01337
2099.66049 0.01473
2098.37473 0.01540
2097.08896 0.01508
2095.80319 0.01449
2094.51742 0.01394
2093.23165 0.01345
2091.94588 0.01304
2090.66011 0.01269
2089.37434 0.01235
2088.08857 0.01193
2086.80281 0.01149
2085.51704 0.01116
2084.23127 0.01109
2082.94550 0.01131
2081.65973 0.01165
2080.37396 0.01191
2079.08819 0.01200
2077.80242 0.01202
2076.51666 0.01208
2075.23089 0.01230
2073.94512 0.01269
2072.65935 0.01316
2071.37358 0.01350
2070.08781 0.01343
2068.80204 0.01281
2067.51627 0.01174
2066.23050 0.01062
2064.94474 0.00980
2063.65897 0.00937
2062.37320 0.00919
2061.08743 0.00917
2059.80166 0.00944
2058.51589 0.01010
2057.23012 0.01089
2055.94435 0.01133
2054.65859 0.01121
2053.37282 0.01084
2052.08705 0.01074
2050.80128 0.01098
2049.51551 0.01117
2048.22974 0.01092
2046.94397 0.01026
2045.65820 0.00944
2044.37243 0.00865
2043.08667 0.00806
2041.80090 0.00791
2040.51513 0.00837
2039.22936 0.00930
2037.94359 0.01018
2036.65782 0.01051
2035.37205 0.01015
2034.08628 0.00928
2032.80052 0.00811
2031.51475 0.00676
2030.22898 0.00544
2028.94321 0.00466
2027.65744 0.00484
2026.37167 0.00574
2025.08590 0.00668
2023.80013 0.00721
2022.51436 0.00750
2021.22860 0.00780
2019.94283 0.00804
2018.65706 0.00809
2017.37129 0.00819
2016.08552 0.00873
2014.79975 0.00960
2013.51398 0.01025
2012.22821 0.01020
2010.94245 0.00954
2009.65668 0.00877
2008.37091 0.00837
2007.08514 0.00854
2005.79937 0.00901
2004.51360 0.00927
2003.22783 0.00898
2001.94206 0.00835
2000.65629 0.00787
1999.37053 0.00774
1998.08476 0.00769
1996.79899 0.00735
1995.51322 0.00677
1994.22745 0.00644
1992.94168 0.00670
1991.65591 0.00745
1990.37014 0.00827
1989.08438 0.00892
1987.79861 0.00952
1986.51284 0.01013
1985.22707 0.01071
1983.94130 0.01126
1982.65553 0.01205
1981.36976 0.01332
1980.08399 0.01489
1978.79822 0.01612
1977.51246 0.01641
1976.22669 0.01560
1974.94092 0.01414
1973.65515 0.01277
1972.36938 0.01216
1971.08361 0.01250
1969.79784 0.01330
1968.51207 0.01374
1967.22631 0.01330
1965.94054 0.01225
1964.65477 0.01141
1963.36900 0.01130
1962.08323 0.01166
1960.79746 0.01190
1959.51169 0.01178
1958.22592 0.01148
1956.94015 0.01114
1955.65439 0.01080
1954.36862 0.01057
1953.08285 0.01070
1951.79708 0.01117
1950.51131 0.01165
1949.22554 0.01183
1947.93977 0.01177
1946.65400 0.01179
1945.36823 0.01211
1944.08247 0.01261
1942.79670 0.01299
1941.51093 0.01315
1940.22516 0.01328
1938.93939 0.01360
1937.65362 0.01405
1936.36785 0.01431
1935.08208 0.01416
1933.79632 0.01375
1932.51055 0.01343
1931.22478 0.01343
1929.93901 0.01373
1928.65324 0.01411
1927.36747 0.01435
1926.08170 0.01431
1924.79593 0.01406
1923.51016 0.01387
1922.22440 0.01399
1920.93863 0.01435
1919.65286 0.01463
1918.36709 0.01456
1917.08132 0.01422
1915.79555 0.01390
1914.50978 0.01382
1913.22401 0.01399
1911.93825 0.01427
1910.65248 0.01448
1909.36671 0.01451
1908.08094 0.01433
1906.79517 0.01398
1905.50940 0.01353
1904.22363 0.01310
1902.93786 0.01280
1901.65209 0.01272
1900.36633 0.01287
1899.08056 0.01320
1897.79479 0.01362
1896.50902 0.01405
1895.22325 0.01443
1893.93748 0.01474
1892.65171 0.01497
1891.36594 0.01509
1890.08018 0.01513
1888.79441 0.01507
1887.50864 0.01491
1886.22287 0.01464
1884.93710 0.01430
1883.65133 0.01399
1882.36556 0.01381
1881.07979 0.01375
1879.79402 0.01374
1878.50826 0.01376
1877.22249 0.01382
1875.93672 0.01392
1874.65095 0.01402
1873.36518 0.01413
1872.07941 0.01426
1870.79364 0.01439
1869.50787 0.01440
1868.22211 0.01424
1866.93634 0.01401
1865.65057 0.01389
1864.36480 0.01395
1863.07903 0.01413
1861.79326 0.01426
1860.50749 0.01420
1859.22172 0.01398
1857.93595 0.01369
1856.65019 0.01345
1855.36442 0.01333
1854.07865 0.01339
1852.79288 0.01362
1851.50711 0.01395
1850.22134 0.01426
1848.93557 0.01445
1847.64980 0.01455
1846.36404 0.01459
1845.07827 0.01458
1843.79250 0.01450
1842.50673 0.01435
1841.22096 0.01419
1839.93519 0.01410
1838.64942 0.01414
1837.36365 0.01425
1836.07788 0.01437
1834.79212 0.01450
1833.50635 0.01464
1832.22058 0.01475
1830.93481 0.01477
1829.64904 0.01475
1828.36327 0.01482
1827.07750 0.01507
1825.79173 0.01545
1824.50597 0.01582
1823.22020 0.01604
1821.93443 0.01607
1820.64866 0.01592
1819.36289 0.01561
1818.07712 0.01513
1816.79135 0.01451
1815.50558 0.01389
1814.21981 0.01340
1812.93405 0.01313
1811.64828 0.01305
1810.36251 0.01309
1809.07674 0.01319
1807.79097 0.01332
1806.50520 0.01351
1805.21943 0.01376
1803.93366 0.01400
1802.64790 0.01413
1801.36213 0.01414
1800.07636 0.01409
1798.79059 0.01405
1797.50482 0.01410
1796.21905 0.01427
1794.93328 0.01449
1793.64751 0.01468
1792.36174 0.01480
1791.07598 0.01489
1789.79021 0.01497
1788.50444 0.01500
1787.21867 0.01496
1785.93290 0.01487
1784.64713 0.01477
1783.36136 0.01473
1782.07559 0.01476
1780.78983 0.01482
1779.50406 0.01485
1778.21829 0.01479
1776.93252 0.01465
1775.64675 0.01451
1774.36098 0.01440
1773.07521 0.01435
1771.78944 0.01431
1770.50367 0.01426
1769.21791 0.01418
1767.93214 0.01408
1766.64637 0.01404
1765.36060 0.01411
1764.07483 0.01430
1762.78906 0.01456
1761.50329 0.01477
1760.21752 0.01484
1758.93176 0.01473
1757.64599 0.01448
1756.36022 0.01421
1755.07445 0.01404
1753.78868 0.01400
1752.50291 0.01406
1751.21714 0.01419
1749.93137 0.01431
1748.64560 0.01435
1747.35984 0.01431
1746.07407 0.01422
1744.78830 0.01413
1743.50253 0.01408
1742.21676 0.01406
1740.93099 0.01408
1739.64522 0.01415
1738.35945 0.01430
1737.07369 0.01448
1735.78792 0.01461
1734.50215 0.01467
1733.21638 0.01463
1731.93061 0.01450
1730.64484 0.01428
1729.35907 0.01408
1728.07330 0.01400
1726.78753 0.01406
1725.50177 0.01416
1724.21600 0.01426
1722.93023 0.01439
1721.64446 0.01462
1720.35869 0.01497
1719.07292 0.01537
1717.78715 0.01571
1716.50138 0.01593
1715.21561 0.01602
1713.92985 0.01609
1712.64408 0.01628
1711.35831 0.01664
1710.07254 0.01713
1708.78677 0.01769
1707.50100 0.01826
1706.21523 0.01885
1704.92946 0.01953
1703.64370 0.02035
1702.35793 0.02125
1701.07216 0.02218
1699.78639 0.02312
1698.50062 0.02407
1697.21485 0.02499
1695.92908 0.02588
1694.64331 0.02673
1693.35754 0.02750
1692.07178 0.02822
1690.78601 0.02903
1689.50024 0.03003
1688.21447 0.03120
1686.92870 0.03245
1685.64293 0.03368
1684.35716 0.03482
1683.07139 0.03583
1681.78563 0.03668
1680.49986 0.03742
1679.21409 0.03821
1677.92832 0.03914
1676.64255 0.04018
1675.35678 0.04125
1674.07101 0.04233
1672.78524 0.04337
1671.49947 0.04438
1670.21371 0.04536
1668.92794 0.04627
1667.64217 0.04709
1666.35640 0.04786
1665.07063 0.04868
1663.78486 0.04959
1662.49909 0.05053
1661.21332 0.05142
1659.92756 0.05224
1658.64179 0.05304
1657.35602 0.05396
1656.07025 0.05499
1654.78448 0.05600
1653.49871 0.05682
1652.21294 0.05735
1650.92717 0.05759
1649.64140 0.05765
1648.35564 0.05773
1647.06987 0.05794
1645.78410 0.05820
1644.49833 0.05833
1643.21256 0.05825
1641.92679 0.05805
1640.64102 0.05785
1639.35525 0.05773
1638.06949 0.05765
1636.78372 0.05748
1635.49795 0.05711
1634.21218 0.05651
1632.92641 0.05571
1631.64064 0.05486
1630.35487 0.05404
1629.06910 0.05329
1627.78333 0.05253
1626.49757 0.05172
1625.21180 0.05086
1623.92603 0.04997
1622.64026 0.04911
1621.35449 0.04829
1620.06872 0.04750
1618.78295 0.04671
1617.49718 0.04588
1616.21142 0.04502
1614.92565 0.04414
1613.63988 0.04327
1612.35411 0.04248
1611.06834 0.04181
1609.78257 0.04122
1608.49680 0.04068
1607.21103 0.04016
1605.92526 0.03970
1604.63950 0.03930
1603.35373 0.03897
1602.06796 0.03869
1600.78219 0.03845
1599.49642 0.03825
1598.21065 0.03811
1596.92488 0.03805
1595.63911 0.03809
1594.35335 0.03823
1593.06758 0.03841
1591.78181 0.03859
1590.49604 0.03873
1589.21027 0.03886
1587.92450 0.03899
1586.63873 0.03913
1585.35296 0.03928
1584.06719 0.03948
1582.78143 0.03978
1581.49566 0.04022
1580.20989 0.04082
1578.92412 0.04152
1577.63835 0.04221
1576.35258 0.04280
1575.06681 0.04331
1573.78104 0.04378
1572.49528 0.04425
1571.20951 0.04474
1569.92374 0.04526
1568.63797 0.04578
1567.35220 0.04626
1566.06643 0.04670
1564.78066 0.04715
1563.49489 0.04768
1562.20912 0.04832
1560.92336 0.04898
1559.63759 0.04956
1558.35182 0.04998
1557.06605 0.05024
1555.78028 0.05039
1554.49451 0.05054
1553.20874 0.05074
1551.92297 0.05095
1550.63721 0.05116
1549.35144 0.05139
1548.06567 0.05168
1546.77990 0.05200
1545.49413 0.05235
1544.20836 0.05272
1542.92259 0.05308
1541.63682 0.05337
1540.35105 0.05348
1539.06529 0.05341
1537.77952 0.05321
1536.49375 0.05298
1535.20798 0.05282
1533.92221 0.05280
1532.63644 0.05290
1531.35067 0.05305
1530.06490 0.05323
1528.77914 0.05342
1527.49337 0.05366
1526.20760 0.05395
1524.92183 0.05428
1523.63606 0.05464
1522.35029 0.05499
1521.06452 0.05532
1519.77875 0.05561
1518.49298 0.05586
1517.20722 0.05610
1515.92145 0.05640
1514.63568 0.05680
1513.34991 0.05729
1512.06414 0.05791
1510.77837 0.05866
1509.49260 0.05950
1508.20683 0.06029
1506.92107 0.06093
1505.63530 0.06138
1504.34953 0.06167
1503.06376 0.06191
1501.77799 0.06220
1500.49222 0.06261
1499.20645 0.06307
1497.92068 0.06347
1496.63491 0.06374
1495.34915 0.06393
1494.06338 0.06408
1492.77761 0.06427
1491.49184 0.06456
1490.20607 0.06496
1488.92030 0.06543
1487.63453 0.06594
1486.34876 0.06643
1485.06299 0.06694
1483.77723 0.06750
1482.49146 0.06817
1481.20569 0.06898
1479.91992 0.06993
1478.63415 0.07097
1477.34838 0.07204
1476.06261 0.07309
1474.77684 0.07405
1473.49108 0.07487
1472.20531 0.07558
1470.91954 0.07619
1469.63377 0.07670
1468.34800 0.07709
1467.06223 0.07740
1465.77646 0.07768
1464.49069 0.07801
1463.20492 0.07846
1461.91916 0.07908
1460.63339 0.07987
1459.34762 0.08076
1458.06185 0.08164
1456.77608 0.08242
1455.49031 0.08305
1454.20454 0.08354
1452.91877 0.08396
1451.63301 0.08436
1450.34724 0.08471
1449.06147 0.08496
1447.77570 0.08508
1446.48993 0.08508
1445.20416 0.08497
1443.91839 0.08480
1442.63262 0.08459
1441.34685 0.08441
1440.06109 0.08424
1438.77532 0.08409
1437.48955 0.08394
1436.20378 0.08381
1434.91801 0.08376
1433.63224 0.08386
1432.34647 0.08413
1431.06070 0.08461
1429.77494 0.08526
1428.48917 0.08605
1427.20340 0.08696
1425.91763 0.08798
1424.63186 0.08910
1423.34609 0.09028
1422.06032 0.09144
1420.77455 0.09251
1419.48878 0.09351
1418.20302 0.09443
1416.91725 0.09526
1415.63148 0.09596
1414.34571 0.09651
1413.05994 0.09691
1411.77417 0.09713
1410.48840 0.09716
1409.20263 0.09698
1407.91687 0.09661
1406.63110 0.09606
1405.34533 0.09534
1404.05956 0.09449
1402.77379 0.09349
1401.48802 0.09234
1400.20225 0.09106
1398.91648 0.08969
1397.63071 0.08826
1396.34495 0.08679
1395.05918 0.08526
1393.77341 0.08369
1392.48764 0.08207
1391.20187 0.08042
1389.91610 0.07876
1388.63033 0.07708
1387.34456 0.07537
1386.05880 0.07363
1384.77303 0.07185
1383.48726 0.07005
1382.20149 0.06823
1380.91572 0.06641
1379.62995 0.06459
1378.34418 0.06279
1377.05841 0.06102
1375.77264 0.05929
1374.48688 0.05760
1373.20111 0.05595
1371.91534 0.05435
1370.62957 0.05277
1369.34380 0.05120
1368.05803 0.04968
1366.77226 0.04828
1365.48649 0.04704
1364.20073 0.04591
1362.91496 0.04482
1361.62919 0.04368
1360.34342 0.04254
1359.05765 0.04150
1357.77188 0.04060
1356.48611 0.03982
1355.20034 0.03913
1353.91457 0.03847
1352.62881 0.03786
1351.34304 0.03732
1350.05727 0.03686
1348.77150 0.03644
1347.48573 0.03604
1346.19996 0.03563
1344.91419 0.03519
1343.62842 0.03477
1342.34266 0.03438
1341.05689 0.03401
1339.77112 0.03365
1338.48535 0.03332
1337.19958 0.03302
1335.91381 0.03273
1334.62804 0.03248
1333.34227 0.03224
1332.05650 0.03201
1330.77074 0.03174
1329.48497 0.03142
1328.19920 0.03104
1326.91343 0.03064
1325.62766 0.03026
1324.34189 0.02993
1323.05612 0.02966
1321.77035 0.02944
1320.48459 0.02924
1319.19882 0.02904
1317.91305 0.02882
1316.62728 0.02860
1315.34151 0.02838
1314.05574 0.02817
1312.76997 0.02795
1311.48420 0.02771
1310.19843 0.02744
1308.91267 0.02715
1307.62690 0.02686
1306.34113 0.02656
1305.05536 0.02628
1303.76959 0.02603
1302.48382 0.02581
1301.19805 0.02562
1299.91228 0.02540
1298.62652 0.02515
1297.34075 0.02489
1296.05498 0.02465
1294.76921 0.02445
1293.48344 0.02431
1292.19767 0.02424
1290.91190 0.02420
1289.62613 0.02418
1288.34036 0.02414
1287.05460 0.02407
1285.76883 0.02400
1284.48306 0.02393
1283.19729 0.02384
1281.91152 0.02374
1280.62575 0.02362
1279.33998 0.02349
1278.05421 0.02335
1276.76845 0.02320
1275.48268 0.02306
1274.19691 0.02294
1272.91114 0.02283
1271.62537 0.02275
1270.33960 0.02268
1269.05383 0.02266
1267.76806 0.02270
1266.48229 0.02279
1265.19653 0.02287
1263.91076 0.02290
1262.62499 0.02284
1261.33922 0.02274
1260.05345 0.02266
1258.76768 0.02261
1257.48191 0.02261
1256.19614 0.02265
1254.91037 0.02271
1253.62461 0.02275
1252.33884 0.02278
1251.05307 0.02278
1249.76730 0.02276
1248.48153 0.02272
1247.19576 0.02267
1245.90999 0.02265
1244.62422 0.02269
1243.33846 0.02275
1242.05269 0.02277
1240.76692 0.02273
1239.48115 0.02262
1238.19538 0.02249
1236.90961 0.02237
1235.62384 0.02227
1234.33807 0.02216
1233.05230 0.02204
1231.76654 0.02188
1230.48077 0.02167
1229.19500 0.02140
1227.90923 0.02110
1226.62346 0.02083
1225.33769 0.02064
1224.05192 0.02049
1222.76615 0.02031
1221.48039 0.02004
1220.19462 0.01973
1218.90885 0.01944
1217.62308 0.01922
1216.33731 0.01903
1215.05154 0.01885
1213.76577 0.01867
1212.48000 0.01852
1211.19423 0.01846
1209.90847 0.01847
1208.62270 0.01852
1207.33693 0.01858
1206.05116 0.01862
1204.76539 0.01865
1203.47962 0.01867
1202.19385 0.01861
1200.90808 0.01839
1199.62232 0.01824
1198.33655 0.01819
1197.05078 0.01816
1195.76501 0.01813
1194.47924 0.01810
1193.19347 0.01805
1191.90770 0.01797
1190.62193 0.01783
1189.33616 0.01762
1188.05040 0.01739
1186.76463 0.01718
1185.47886 0.01701
1184.19309 0.01690
1182.90732 0.01684
1181.62155 0.01680
1180.33578 0.01679
1179.05001 0.01678
1177.76425 0.01677
1176.47848 0.01680
1175.19271 0.01690
1173.90694 0.01705
1172.62117 0.01719
1171.33540 0.01727
1170.04963 0.01730
1168.76386 0.01734
1167.47809 0.01742
1166.19233 0.01754
1164.90656 0.01766
1163.62079 0.01775
1162.33502 0.01782
1161.04925 0.01788
1159.76348 0.01794
1158.47771 0.01805
1157.19194 0.01824
1155.90618 0.01852
1154.62041 0.01884
1153.33464 0.01913
1152.04887 0.01933
1150.76310 0.01944
1149.47733 0.01955
1148.19156 0.01973
1146.90579 0.02000
1145.62002 0.02036
1144.33426 0.02080
1143.04849 0.02131
1141.76272 0.02194
1140.47695 0.02267
1139.19118 0.02347
1137.90541 0.02434
1136.61964 0.02528
1135.33387 0.02628
1134.04811 0.02732
1132.76234 0.02843
1131.47657 0.02968
1130.19080 0.03110
1128.90503 0.03270
1127.61926 0.03445
1126.33349 0.03639
1125.04772 0.03854
1123.76195 0.04090
1122.47619 0.04341
1121.19042 0.04598
1119.90465 0.04856
1118.61888 0.05116
1117.33311 0.05380
1116.04734 0.05655
1114.76157 0.05940
1113.47580 0.06226
1112.19004 0.06506
1110.90427 0.06773
1109.61850 0.07029
1108.33273 0.07278
1107.04696 0.07527
1105.76119 0.07778
1104.47542 0.08031
1103.18965 0.08280
1101.90388 0.08516
1100.61812 0.08738
1099.33235 0.08951
1098.04658 0.09164
1096.76081 0.09378
1095.47504 0.09592
1094.18927 0.09800
1092.90350 0.09994
1091.61773 0.10172
1090.33197 0.10336
1089.04620 0.10494
1087.76043 0.10654
1086.47466 0.10820
1085.18889 0.10988
1083.90312 0.11158
1082.61735 0.11330
1081.33158 0.11509
1080.04581 0.11696
1078.76005 0.11896
1077.47428 0.12112
1076.18851 0.12345
1074.90274 0.12589
1073.61697 0.12837
1072.33120 0.13082
1071.04543 0.13323
1069.75966 0.13566
1068.47390 0.13820
1067.18813 0.14090
1065.90236 0.14379
1064.61659 0.14679
1063.33082 0.14980
1062.04505 0.15274
1060.75928 0.15561
1059.47351 0.15841
1058.18774 0.16113
1056.90198 0.16375
1055.61621 0.16628
1054.33044 0.16875
1053.04467 0.17121
1051.75890 0.17369
1050.47313 0.17621
1049.18736 0.17879
1047.90159 0.18143
1046.61583 0.18411
1045.33006 0.18682
1044.04429 0.18957
1042.75852 0.19234
1041.47275 0.19508
1040.18698 0.19776
1038.90121 0.20043
1037.61544 0.20314
1036.32967 0.20589
1035.04391 0.20865
1033.75814 0.21138
1032.47237 0.21400
1031.18660 0.21646
1029.90083 0.21868
1028.61506 0.22066
1027.32929 0.22243
1026.04352 0.22404
1024.75775 0.22551
1023.47199 0.22683
1022.18622 0.22795
1020.90045 0.22884
1019.61468 0.22943
1018.32891 0.22967
1017.04314 0.22952
1015.75737 0.22901
1014.47160 0.22821
1013.18584 0.22715
1011.90007 0.22578
1010.61430 0.22398
1009.32853 0.22170
1008.04276 0.21902
1006.75699 0.21605
1005.47122 0.21282
1004.18545 0.20929
1002.89968 0.20542
1001.61392 0.20124
1000.32815 0.19683
999.04238 0.19227
997.75661 0.18757
996.47084 0.18272
995.18507 0.17770
993.89930 0.17257
992.61353 0.16742
991.32777 0.16231
990.04200 0.15723
988.75623 0.15218
987.47046 0.14718
986.18469 0.14229
984.89892 0.13754
983.61315 0.13293
982.32738 0.12843
981.04161 0.12404
979.75585 0.11979
978.47008 0.11574
977.18431 0.11195
975.89854 0.10849
974.61277 0.10539
973.32700 0.10273
972.04123 0.10056
970.75546 0.09888
969.46970 0.09767
968.18393 0.09694
966.89816 0.09670
965.61239 0.09693
964.32662 0.09744
963.04085 0.09796
961.75508 0.09823
960.46931 0.09814
959.18354 0.09766
957.89778 0.09676
956.61201 0.09540
955.32624 0.09366
954.04047 0.09169
952.75470 0.08963
951.46893 0.08751
950.18316 0.08533
948.89739 0.08309
947.61163 0.08084
946.32586 0.07867
945.04009 0.07664
943.75432 0.07476
942.46855 0.07299
941.18278 0.07125
939.89701 0.06952
938.61124 0.06784
937.32547 0.06622
936.03971 0.06470
934.75394 0.06329
933.46817 0.06200
932.18240 0.06079
930.89663 0.05962
929.61086 0.05850
928.32509 0.05745
927.03932 0.05646
925.75356 0.05549
924.46779 0.05455
923.18202 0.05369
921.89625 0.05295
920.61048 0.05230
919.32471 0.05163
918.03894 0.05088
916.75317 0.05009
915.46740 0.04939
914.18164 0.04884
912.89587 0.04836
911.61010 0.04783
910.32433 0.04716
909.03856 0.04641
907.75279 0.04570
906.46702 0.04513
905.18125 0.04473
903.89549 0.04445
902.60972 0.04421
901.32395 0.04391
900.03818 0.04347
898.75241 0.04294
897.46664 0.04243
896.18087 0.04204
894.89510 0.04171
893.60933 0.04140
892.32357 0.04109
891.03780 0.04085
889.75203 0.04074
888.46626 0.04082
887.18049 0.04121
885.89472 0.04206
884.60895 0.04352
883.32318 0.04567
882.03742 0.04834
880.75165 0.05105
879.46588 0.05335
878.18011 0.05503
876.89434 0.05633
875.60857 0.05763
874.32280 0.05908
873.03703 0.06047
871.75126 0.06136
870.46550 0.06145
869.17973 0.06075
867.89396 0.05941
866.60819 0.05761
865.32242 0.05553
864.03665 0.05334
862.75088 0.05119
861.46511 0.04919
860.17935 0.04743
858.89358 0.04598
857.60781 0.04485
856.32204 0.04393
855.03627 0.04308
853.75050 0.04225
852.46473 0.04153
851.17896 0.04097
849.89319 0.04056
848.60743 0.04017
847.32166 0.03971
846.03589 0.03920
844.75012 0.03868
843.46435 0.03819
842.17858 0.03779
840.89281 0.03752
839.60704 0.03735
838.32128 0.03720
837.03551 0.03693
835.74974 0.03652
834.46397 0.03606
833.17820 0.03567
831.89243 0.03538
830.60666 0.03516
829.32089 0.03499
828.03512 0.03489
826.74936 0.03482
825.46359 0.03472
824.17782 0.03451
822.89205 0.03422
821.60628 0.03398
820.32051 0.03389
819.03474 0.03393
817.74897 0.03400
816.46321 0.03402
815.17744 0.03396
813.89167 0.03386
812.60590 0.03378
811.32013 0.03371
810.03436 0.03362
808.74859 0.03347
807.46282 0.03331
806.17705 0.03316
804.89129 0.03306
803.60552 0.03302
802.31975 0.03303
801.03398 0.03307
799.74821 0.03307
798.46244 0.03301
797.17667 0.03290
795.89090 0.03279
794.60513 0.03269
793.31937 0.03261
792.03360 0.03255
790.74783 0.03252
789.46206 0.03251
788.17629 0.03251
786.89052 0.03252
785.60475 0.03254
784.31898 0.03252
783.03322 0.03243
781.74745 0.03229
780.46168 0.03219
779.17591 0.03219
777.89014 0.03223
776.60437 0.03225
775.31860 0.03225
774.03283 0.03225
772.74706 0.03227
771.46130 0.03231
770.17553 0.03236
768.88976 0.03242
767.60399 0.03247
766.31822 0.03250
765.03245 0.03255
763.74668 0.03266
762.46091 0.03281
761.17515 0.03289
759.88938 0.03283
758.60361 0.03264
757.31784 0.03241
756.03207 0.03226
754.74630 0.03229
753.46053 0.03249
752.17476 0.03276
750.88899 0.03294
749.60323 0.03293
748.31746 0.03280
747.03169 0.03269
745.74592 0.03266
744.46015 0.03263
743.17438 0.03252
741.88861 0.03232
740.60284 0.03212
739.31708 0.03202
738.03131 0.03204
736.74554 0.03215
735.45977 0.03231
734.17400 0.03249
732.88823 0.03263
731.60246 0.03262
730.31669 0.03246
729.03092 0.03230
727.74516 0.03226
726.45939 0.03234
725.17362 0.03243
723.88785 0.03246
722.60208 0.03262
721.31631 0.03306
720.03054 0.03350
718.74477 0.03381
717.45901 0.03394
716.17324 0.03391
714.88747 0.03373
713.60170 0.03347
712.31593 0.03320
711.03016 0.03299
709.74439 0.03286
708.45862 0.03278
707.17285 0.03270
705.88709 0.03264
704.60132 0.03263
703.31555 0.03269
702.02978 0.03278
700.74401 0.03285
699.45824 0.03290
698.17247 0.03297
696.88670 0.03310
695.60094 0.03327
694.31517 0.03341
693.02940 0.03349
691.74363 0.03351
690.45786 0.03349
689.17209 0.03345
687.88632 0.03336
686.60055 0.03323
685.31478 0.03304
684.02902 0.03283
682.74325 0.03262
681.45748 0.03245
680.17171 0.03229
678.88594 0.03217
677.60017 0.03211
676.31440 0.03212
675.02863 0.03218
673.74287 0.03227
672.45710 0.03247
671.17133 0.03283
669.88556 0.03301
668.59979 0.03259
667.31402 0.03253
666.02825 0.03309
664.74248 0.03294
663.45671 0.03250
662.17095 0.03221
660.88518 0.03207
659.59941 0.03202
658.31364 0.03200
657.02787 0.03195
655.74210 0.03182
654.45633 0.03163
653.17056 0.03143
651.88480 0.03128
650.59903 0.03117
649.31326 0.03109
648.02749 0.03102
646.74172 0.03096
645.45595 0.03095
644.17018 0.03098
642.88441 0.03102
641.59864 0.03100
640.31288 0.03094
639.02711 0.03090
637.74134 0.03091
636.45557 0.03098
635.16980 0.03110
633.88403 0.03129
632.59826 0.03144
631.31249 0.03119
630.02673 0.03123
628.74096 0.03362
627.45519 0.03483
626.16942 0.03891
624.88365 0.04505
623.59788 0.05099
622.31211 0.05535
621.02634 0.05749
619.74057 0.05775
618.45481 0.05713
617.16904 0.05640
615.88327 0.05596
614.59750 0.05648
613.31173 0.05890
612.02596 0.06364
610.74019 0.06984
609.45442 0.07591
608.16866 0.08113
606.88289 0.08604
605.59712 0.09121
604.31135 0.09613
603.02558 0.09945
601.73981 0.10016
600.45404 0.09839
599.16827 0.09518
597.88250 0.09162
596.59674 0.08833
595.31097 0.08544
594.02520 0.08289
592.73943 0.08071
591.45366 0.07907
590.16789 0.07811
588.88212 0.07782
587.59635 0.07808
586.31059 0.07883
585.02482 0.08005
583.73905 0.08170
582.45328 0.08370
581.16751 0.08596
579.88174 0.08840
578.59597 0.09091
577.31020 0.09340
576.02443 0.09581
574.73867 0.09812
573.45290 0.10033
572.16713 0.10257
570.88136 0.10502
569.59559 0.10785
568.30982 0.11106
567.02405 0.11444
565.73828 0.11769
564.45251 0.12049
563.16675 0.12253
561.88098 0.12354
560.59521 0.12334
559.30944 0.12187
558.02367 0.11924
556.73790 0.11561
555.45213 0.11120
554.16636 0.10629
552.88060 0.10113
551.59483 0.09598
550.30906 0.09108
549.02329 0.08658
547.73752 0.08252
546.45175 0.07884
545.16598 0.07552
543.88021 0.07258
542.59444 0.07006
541.30868 0.06790
540.02291 0.06595
538.73714 0.06407
537.45137 0.06218
536.16560 0.06035
534.87983 0.05863
533.59406 0.05707
532.30829 0.05565
531.02253 0.05431
529.73676 0.05297
528.45099 0.05157
527.16522 0.05015
525.87945 0.04885
524.59368 0.04780
523.30791 0.04701
522.02214 0.04637
520.73637 0.04574
519.45061 0.04503
518.16484 0.04423
516.87907 0.04336
515.59330 0.04248
514.30753 0.04164
513.02176 0.04088
511.73599 0.04022
510.45022 0.03966
509.16446 0.03916
507.87869 0.03865
506.59292 0.03810
505.30715 0.03754
504.02138 0.03703
502.73561 0.03656
501.44984 0.03606
500.16407 0.03549
498.87830 0.03493
497.59254 0.03443
496.30677 0.03399
495.02100 0.03354
493.73523 0.03312
492.44946 0.03278
491.16369 0.03259
489.87792 0.03251
488.59215 0.03241
487.30639 0.03219
486.02062 0.03187
484.73485 0.03155
483.44908 0.03134
482.16331 0.03123
480.87754 0.03119
479.59177 0.03115
478.30600 0.03112
477.02023 0.03111
475.73447 0.03116
474.44870 0.03131
473.16293 0.03156
471.87716 0.03184
470.59139 0.03201
469.30562 0.03199
468.01985 0.03182
466.73408 0.03157
465.44832 0.03124
464.16255 0.03080
462.87678 0.03024
461.59101 0.02963
460.30524 0.02909
459.01947 0.02872
457.73370 0.02853
456.44793 0.02841
455.16216 0.02822
453.87640 0.02789
452.59063 0.02748
451.30486 0.02709
450.01909 0.02677
448.73332 0.02649
447.44755 0.02620
446.16178 0.02591
444.87601 0.02564
443.59025 0.02542
442.30448 0.02528
441.01871 0.02519
439.73294 0.02514
438.44717 0.02508
437.16140 0.02497
435.87563 0.02480
434.58986 0.02461
433.30409 0.02442
432.01833 0.02424
430.73256 0.02403
429.44679 0.02378
428.16102 0.02352
426.87525 0.02331
425.58948 0.02318
424.30371 0.02311
423.01794 0.02305
421.73218 0.02296
420.44641 0.02284
419.16064 0.02268
417.87487 0.02252
416.58910 0.02234
415.30333 0.02215
414.01756 0.02198
412.73179 0.02183
411.44602 0.02169
410.16026 0.02157
408.87449 0.02148
407.58872 0.02146
406.30295 0.02149
405.01718 0.02154
403.73141 0.02157
402.44564 0.02159
401.15987 0.02163
399.87411 0.02169
