3997.45528	0.10687
3996.16951	0.10591
3994.88374	0.10498
3993.59798	0.10451
3992.31221	0.10464
3991.02644	0.10484
3989.74067	0.10441
3988.45490	0.10323
3987.16913	0.10186
3985.88336	0.10095
3984.59759	0.10060
3983.31183	0.10042
3982.02606	0.10028
3980.74029	0.10052
3979.45452	0.10132
3978.16875	0.10220
3976.88298	0.10240
3975.59721	0.10188
3974.31144	0.10148
3973.02567	0.10204
3971.73991	0.10339
3970.45414	0.10448
3969.16837	0.10455
3967.88260	0.10399
3966.59683	0.10381
3965.31106	0.10444
3964.02529	0.10540
3962.73952	0.10587
3961.45376	0.10548
3960.16799	0.10435
3958.88222	0.10286
3957.59645	0.10144
3956.31068	0.10048
3955.02491	0.10013
3953.73914	0.10033
3952.45337	0.10093
3951.16760	0.10178
3949.88184	0.10266
3948.59607	0.10325
3947.31030	0.10326
3946.02453	0.10278
3944.73876	0.10232
3943.45299	0.10256
3942.16722	0.10372
3940.88145	0.10530
3939.59569	0.10642
3938.30992	0.10651
3937.02415	0.10575
3935.73838	0.10490
3934.45261	0.10460
3933.16684	0.10488
3931.88107	0.10516
3930.59530	0.10478
3929.30953	0.10366
3928.02377	0.10247
3926.73800	0.10203
3925.45223	0.10248
3924.16646	0.10316
3922.88069	0.10334
3921.59492	0.10297
3920.30915	0.10254
3919.02338	0.10242
3917.73762	0.10256
3916.45185	0.10259
3915.16608	0.10226
3913.88031	0.10162
3912.59454	0.10102
3911.30877	0.10080
3910.02300	0.10107
3908.73723	0.10159
3907.45146	0.10198
3906.16570	0.10200
3904.87993	0.10164
3903.59416	0.10104
3902.30839	0.10053
3901.02262	0.10043
3899.73685	0.10070
3898.45108	0.10088
3897.16531	0.10057
3895.87955	0.09989
3894.59378	0.09923
3893.30801	0.09882
3892.02224	0.09849
3890.73647	0.09812
3889.45070	0.09803
3888.16493	0.09873
3886.87916	0.10012
3885.59339	0.10129
3884.30763	0.10154
3883.02186	0.10100
3881.73609	0.10034
3880.45032	0.09988
3879.16455	0.09940
3877.87878	0.09853
3876.59301	0.09708
3875.30724	0.09523
3874.02148	0.09360
3872.73571	0.09299
3871.44994	0.09375
3870.16417	0.09532
3868.87840	0.09679
3867.59263	0.09771
3866.30686	0.09806
3865.02109	0.09796
3863.73532	0.09765
3862.44956	0.09739
3861.16379	0.09729
3859.87802	0.09727
3858.59225	0.09714
3857.30648	0.09679
3856.02071	0.09625
3854.73494	0.09582
3853.44917	0.09576
3852.16341	0.09603
3850.87764	0.09638
3849.59187	0.09653
3848.30610	0.09635
3847.02033	0.09594
3845.73456	0.09547
3844.44879	0.09514
3843.16302	0.09499
3841.87725	0.09495
3840.59149	0.09501
3839.30572	0.09520
3838.01995	0.09539
3836.73418	0.09541
3835.44841	0.09542
3834.16264	0.09564
3832.87687	0.09597
3831.59110	0.09594
3830.30534	0.09520
3829.01957	0.09386
3827.73380	0.09244
3826.44803	0.09153
3825.16226	0.09154
3823.87649	0.09247
3822.59072	0.09372
3821.30495	0.09453
3820.01918	0.09464
3818.73342	0.09456
3817.44765	0.09482
3816.16188	0.09540
3814.87611	0.09597
3813.59034	0.09634
3812.30457	0.09645
3811.01880	0.09623
3809.73303	0.09576
3808.44726	0.09529
3807.16150	0.09502
3805.87573	0.09503
3804.58996	0.09527
3803.30419	0.09553
3802.01842	0.09547
3800.73265	0.09501
3799.44688	0.09446
3798.16111	0.09408
3796.87535	0.09369
3795.58958	0.09300
3794.30381	0.09213
3793.01804	0.09144
3791.73227	0.09107
3790.44650	0.09084
3789.16073	0.09045
3787.87496	0.08987
3786.58919	0.08933
3785.30343	0.08910
3784.01766	0.08926
3782.73189	0.08968
3781.44612	0.09011
3780.16035	0.09023
3778.87458	0.08987
3777.58881	0.08925
3776.30304	0.08883
3775.01728	0.08900
3773.73151	0.08979
3772.44574	0.09091
3771.15997	0.09201
3769.87420	0.09275
3768.58843	0.09306
3767.30266	0.09304
3766.01689	0.09279
3764.73112	0.09228
3763.44536	0.09156
3762.15959	0.09092
3760.87382	0.09069
3759.58805	0.09093
3758.30228	0.09135
3757.01651	0.09169
3755.73074	0.09192
3754.44497	0.09211
3753.15921	0.09205
3751.87344	0.09151
3750.58767	0.09069
3749.30190	0.08998
3748.01613	0.08961
3746.73036	0.08959
3745.44459	0.08966
3744.15882	0.08934
3742.87305	0.08860
3741.58729	0.08807
3740.30152	0.08828
3739.01575	0.08918
3737.72998	0.09019
3736.44421	0.09070
3735.15844	0.09055
3733.87267	0.09005
3732.58690	0.08940
3731.30114	0.08844
3730.01537	0.08719
3728.72960	0.08602
3727.44383	0.08519
3726.15806	0.08458
3724.87229	0.08410
3723.58652	0.08382
3722.30075	0.08381
3721.01498	0.08415
3719.72922	0.08491
3718.44345	0.08607
3717.15768	0.08727
3715.87191	0.08797
3714.58614	0.08785
3713.30037	0.08703
3712.01460	0.08602
3710.72883	0.08545
3709.44307	0.08564
3708.15730	0.08624
3706.87153	0.08662
3705.58576	0.08642
3704.29999	0.08583
3703.01422	0.08508
3701.72845	0.08432
3700.44268	0.08367
3699.15691	0.08338
3697.87115	0.08350
3696.58538	0.08380
3695.29961	0.08410
3694.01384	0.08450
3692.72807	0.08508
3691.44230	0.08566
3690.15653	0.08601
3688.87076	0.08609
3687.58500	0.08605
3686.29923	0.08605
3685.01346	0.08623
3683.72769	0.08657
3682.44192	0.08705
3681.15615	0.08752
3679.87038	0.08775
3678.58461	0.08757
3677.29884	0.08704
3676.01308	0.08640
3674.72731	0.08601
3673.44154	0.08632
3672.15577	0.08728
3670.87000	0.08820
3669.58423	0.08830
3668.29846	0.08756
3667.01269	0.08655
3665.72693	0.08583
3664.44116	0.08563
3663.15539	0.08595
3661.86962	0.08665
3660.58385	0.08753
3659.29808	0.08839
3658.01231	0.08900
3656.72654	0.08919
3655.44077	0.08897
3654.15501	0.08862
3652.86924	0.08843
3651.58347	0.08845
3650.29770	0.08867
3649.01193	0.08913
3647.72616	0.08983
3646.44039	0.09059
3645.15462	0.09108
3643.86886	0.09113
3642.58309	0.09076
3641.29732	0.09017
3640.01155	0.08963
3638.72578	0.08933
3637.44001	0.08922
3636.15424	0.08911
3634.86847	0.08896
3633.58270	0.08894
3632.29694	0.08931
3631.01117	0.09011
3629.72540	0.09100
3628.43963	0.09163
3627.15386	0.09203
3625.86809	0.09263
3624.58232	0.09357
3623.29655	0.09450
3622.01079	0.09504
3620.72502	0.09517
3619.43925	0.09518
3618.15348	0.09523
3616.86771	0.09524
3615.58194	0.09514
3614.29617	0.09507
3613.01040	0.09519
3611.72463	0.09558
3610.43887	0.09618
3609.15310	0.09686
3607.86733	0.09741
3606.58156	0.09758
3605.29579	0.09740
3604.01002	0.09726
3602.72425	0.09753
3601.43848	0.09810
3600.15272	0.09859
3598.86695	0.09886
3597.58118	0.09924
3596.29541	0.09996
3595.00964	0.10089
3593.72387	0.10174
3592.43810	0.10241
3591.15233	0.10287
3589.86656	0.10297
3588.58080	0.10261
3587.29503	0.10187
3586.00926	0.10107
3584.72349	0.10059
3583.43772	0.10073
3582.15195	0.10158
3580.86618	0.10285
3579.58041	0.10411
3578.29464	0.10505
3577.00888	0.10554
3575.72311	0.10560
3574.43734	0.10546
3573.15157	0.10552
3571.86580	0.10593
3570.58003	0.10636
3569.29426	0.10640
3568.00849	0.10608
3566.72273	0.10579
3565.43696	0.10585
3564.15119	0.10621
3562.86542	0.10668
3561.57965	0.10710
3560.29388	0.10742
3559.00811	0.10764
3557.72234	0.10796
3556.43657	0.10863
3555.15081	0.10962
3553.86504	0.11052
3552.57927	0.11080
3551.29350	0.11023
3550.00773	0.10909
3548.72196	0.10799
3547.43619	0.10746
3546.15042	0.10770
3544.86466	0.10854
3543.57889	0.10957
3542.29312	0.11043
3541.00735	0.11099
3539.72158	0.11141
3538.43581	0.11194
3537.15004	0.11268
3535.86427	0.11345
3534.57850	0.11392
3533.29274	0.11395
3532.00697	0.11374
3530.72120	0.11365
3529.43543	0.11378
3528.14966	0.11404
3526.86389	0.11432
3525.57812	0.11465
3524.29235	0.11499
3523.00659	0.11518
3521.72082	0.11519
3520.43505	0.11523
3519.14928	0.11552
3517.86351	0.11602
3516.57774	0.11652
3515.29197	0.11681
3514.00620	0.11676
3512.72043	0.11631
3511.43467	0.11555
3510.14890	0.11486
3508.86313	0.11470
3507.57736	0.11515
3506.29159	0.11586
3505.00582	0.11645
3503.72005	0.11691
3502.43428	0.11749
3501.14852	0.11820
3499.86275	0.11868
3498.57698	0.11867
3497.29121	0.11831
3496.00544	0.11807
3494.71967	0.11819
3493.43390	0.11851
3492.14813	0.11869
3490.86236	0.11863
3489.57660	0.11865
3488.29083	0.11911
3487.00506	0.12000
3485.71929	0.12094
3484.43352	0.12160
3483.14775	0.12198
3481.86198	0.12222
3480.57621	0.12239
3479.29045	0.12246
3478.00468	0.12242
3476.71891	0.12229
3475.43314	0.12218
3474.14737	0.12225
3472.86160	0.12261
3471.57583	0.12314
3470.29006	0.12359
3469.00429	0.12377
3467.71853	0.12377
3466.43276	0.12386
3465.14699	0.12423
3463.86122	0.12488
3462.57545	0.12558
3461.28968	0.12598
3460.00391	0.12584
3458.71814	0.12518
3457.43238	0.12437
3456.14661	0.12391
3454.86084	0.12414
3453.57507	0.12503
3452.28930	0.12624
3451.00353	0.12735
3449.71776	0.12803
3448.43199	0.12807
3447.14622	0.12751
3445.86046	0.12661
3444.57469	0.12578
3443.28892	0.12531
3442.00315	0.12510
3440.71738	0.12496
3439.43161	0.12489
3438.14584	0.12504
3436.86007	0.12544
3435.57431	0.12598
3434.28854	0.12657
3433.00277	0.12720
3431.71700	0.12779
3430.43123	0.12820
3429.14546	0.12836
3427.85969	0.12835
3426.57392	0.12835
3425.28815	0.12842
3424.00239	0.12848
3422.71662	0.12836
3421.43085	0.12807
3420.14508	0.12790
3418.85931	0.12821
3417.57354	0.12902
3416.28777	0.12997
3415.00200	0.13056
3413.71624	0.13058
3412.43047	0.13023
3411.14470	0.12987
3409.85893	0.12970
3408.57316	0.12967
3407.28739	0.12965
3406.00162	0.12964
3404.71585	0.12983
3403.43008	0.13035
3402.14432	0.13103
3400.85855	0.13151
3399.57278	0.13152
3398.28701	0.13105
3397.00124	0.13047
3395.71547	0.13018
3394.42970	0.13036
3393.14393	0.13088
3391.85817	0.13130
3390.57240	0.13131
3389.28663	0.13101
3388.00086	0.13093
3386.71509	0.13138
3385.42932	0.13219
3384.14355	0.13289
3382.85778	0.13313
3381.57201	0.13290
3380.28625	0.13241
3379.00048	0.13193
3377.71471	0.13159
3376.42894	0.13127
3375.14317	0.13079
3373.85740	0.13007
3372.57163	0.12920
3371.28586	0.12833
3370.00010	0.12774
3368.71433	0.12784
3367.42856	0.12889
3366.14279	0.13065
3364.85702	0.13239
3363.57125	0.13340
3362.28548	0.13348
3360.99971	0.13296
3359.71394	0.13234
3358.42818	0.13194
3357.14241	0.13185
3355.85664	0.13197
3354.57087	0.13214
3353.28510	0.13220
3351.99933	0.13214
3350.71356	0.13203
3349.42779	0.13188
3348.14202	0.13157
3346.85626	0.13102
3345.57049	0.13035
3344.28472	0.12982
3342.99895	0.12960
3341.71318	0.12964
3340.42741	0.12985
3339.14164	0.13012
3337.85587	0.13042
3336.57011	0.13067
3335.28434	0.13071
3333.99857	0.13046
3332.71280	0.13002
3331.42703	0.12960
3330.14126	0.12933
3328.85549	0.12913
3327.56972	0.12887
3326.28395	0.12856
3324.99819	0.12835
3323.71242	0.12834
3322.42665	0.12845
3321.14088	0.12856
3319.85511	0.12865
3318.56934	0.12873
3317.28357	0.12874
3315.99780	0.12871
3314.71204	0.12881
3313.42627	0.12920
3312.14050	0.12985
3310.85473	0.13053
3309.56896	0.13101
3308.28319	0.13110
3306.99742	0.13074
3305.71165	0.13004
3304.42588	0.12926
3303.14012	0.12861
3301.85435	0.12816
3300.56858	0.12786
3299.28281	0.12764
3297.99704	0.12747
3296.71127	0.12734
3295.42550	0.12722
3294.13973	0.12709
3292.85397	0.12694
3291.56820	0.12686
3290.28243	0.12702
3288.99666	0.12750
3287.71089	0.12812
3286.42512	0.12857
3285.13935	0.12866
3283.85358	0.12850
3282.56781	0.12837
3281.28205	0.12843
3279.99628	0.12860
3278.71051	0.12868
3277.42474	0.12860
3276.13897	0.12843
3274.85320	0.12822
3273.56743	0.12792
3272.28166	0.12748
3270.99590	0.12692
3269.71013	0.12637
3268.42436	0.12596
3267.13859	0.12575
3265.85282	0.12572
3264.56705	0.12577
3263.28128	0.12580
3261.99551	0.12573
3260.70974	0.12554
3259.42398	0.12525
3258.13821	0.12499
3256.85244	0.12487
3255.56667	0.12493
3254.28090	0.12499
3252.99513	0.12489
3251.70936	0.12470
3250.42359	0.12463
3249.13783	0.12479
3247.85206	0.12507
3246.56629	0.12530
3245.28052	0.12540
3243.99475	0.12539
3242.70898	0.12534
3241.42321	0.12523
3240.13744	0.12495
3238.85167	0.12443
3237.56591	0.12376
3236.28014	0.12327
3234.99437	0.12324
3233.70860	0.12371
3232.42283	0.12438
3231.13706	0.12487
3229.85129	0.12497
3228.56552	0.12479
3227.27976	0.12458
3225.99399	0.12447
3224.70822	0.12440
3223.42245	0.12425
3222.13668	0.12404
3220.85091	0.12392
3219.56514	0.12388
3218.27937	0.12382
3216.99360	0.12371
3215.70784	0.12365
3214.42207	0.12370
3213.13630	0.12370
3211.85053	0.12348
3210.56476	0.12306
3209.27899	0.12260
3207.99322	0.12221
3206.70745	0.12183
3205.42169	0.12140
3204.13592	0.12092
3202.85015	0.12051
3201.56438	0.12035
3200.27861	0.12049
3198.99284	0.12074
3197.70707	0.12083
3196.42130	0.12071
3195.13553	0.12061
3193.84977	0.12067
3192.56400	0.12074
3191.27823	0.12053
3189.99246	0.11997
3188.70669	0.11930
3187.42092	0.11880
3186.13515	0.11853
3184.84938	0.11840
3183.56362	0.11836
3182.27785	0.11842
3180.99208	0.11851
3179.70631	0.11844
3178.42054	0.11812
3177.13477	0.11766
3175.84900	0.11734
3174.56323	0.11729
3173.27746	0.11739
3171.99170	0.11739
3170.70593	0.11718
3169.42016	0.11687
3168.13439	0.11664
3166.84862	0.11661
3165.56285	0.11672
3164.27708	0.11675
3162.99131	0.11648
3161.70555	0.11598
3160.41978	0.11556
3159.13401	0.11546
3157.84824	0.11560
3156.56247	0.11576
3155.27670	0.11583
3153.99093	0.11592
3152.70516	0.11613
3151.41939	0.11630
3150.13363	0.11613
3148.84786	0.11551
3147.56209	0.11470
3146.27632	0.11405
3144.99055	0.11373
3143.70478	0.11361
3142.41901	0.11353
3141.13324	0.11347
3139.84748	0.11342
3138.56171	0.11332
3137.27594	0.11314
3135.99017	0.11306
3134.70440	0.11325
3133.41863	0.11364
3132.13286	0.11386
3130.84709	0.11360
3129.56132	0.11288
3128.27556	0.11202
3126.98979	0.11138
3125.70402	0.11109
3124.41825	0.11113
3123.13248	0.11134
3121.84671	0.11155
3120.56094	0.11152
3119.27517	0.11121
3117.98940	0.11075
3116.70364	0.11038
3115.41787	0.11023
3114.13210	0.11026
3112.84633	0.11030
3111.56056	0.11024
3110.27479	0.11005
3108.98902	0.10979
3107.70325	0.10952
3106.41749	0.10925
3105.13172	0.10898
3103.84595	0.10879
3102.56018	0.10879
3101.27441	0.10895
3099.98864	0.10906
3098.70287	0.10892
3097.41710	0.10855
3096.13133	0.10816
3094.84557	0.10791
3093.55980	0.10769
3092.27403	0.10730
3090.98826	0.10673
3089.70249	0.10624
3088.41672	0.10614
3087.13095	0.10642
3085.84518	0.10674
3084.55942	0.10678
3083.27365	0.10656
3081.98788	0.10631
3080.70211	0.10617
3079.41634	0.10611
3078.13057	0.10599
3076.84480	0.10580
3075.55903	0.10563
3074.27326	0.10561
3072.98750	0.10577
3071.70173	0.10599
3070.41596	0.10605
3069.13019	0.10591
3067.84442	0.10568
3066.55865	0.10550
3065.27288	0.10532
3063.98711	0.10497
3062.70135	0.10446
3061.41558	0.10397
3060.12981	0.10373
3058.84404	0.10387
3057.55827	0.10427
3056.27250	0.10457
3054.98673	0.10443
3053.70096	0.10379
3052.41519	0.10297
3051.12943	0.10242
3049.84366	0.10231
3048.55789	0.10244
3047.27212	0.10258
3045.98635	0.10266
3044.70058	0.10273
3043.41481	0.10278
3042.12904	0.10273
3040.84328	0.10259
3039.55751	0.10243
3038.27174	0.10224
3036.98597	0.10194
3035.70020	0.10151
3034.41443	0.10101
3033.12866	0.10052
3031.84289	0.10002
3030.55712	0.09960
3029.27136	0.09938
3027.98559	0.09939
3026.69982	0.09950
3025.41405	0.09957
3024.12828	0.09960
3022.84251	0.09961
3021.55674	0.09953
3020.27097	0.09920
3018.98521	0.09861
3017.69944	0.09799
3016.41367	0.09770
3015.12790	0.09794
3013.84213	0.09858
3012.55636	0.09925
3011.27059	0.09952
3009.98482	0.09922
3008.69905	0.09845
3007.41329	0.09759
3006.12752	0.09699
3004.84175	0.09677
3003.55598	0.09676
3002.27021	0.09673
3000.98444	0.09660
2999.69867	0.09645
2998.41290	0.09641
2997.12714	0.09654
2995.84137	0.09677
2994.55560	0.09700
2993.26983	0.09713
2991.98406	0.09721
2990.69829	0.09731
2989.41252	0.09744
2988.12675	0.09750
2986.84098	0.09745
2985.55522	0.09734
2984.26945	0.09734
2982.98368	0.09759
2981.69791	0.09811
2980.41214	0.09885
2979.12637	0.09978
2977.84060	0.10093
2976.55483	0.10221
2975.26907	0.10342
2973.98330	0.10433
2972.69753	0.10501
2971.41176	0.10578
2970.12599	0.10701
2968.84022	0.10875
2967.55445	0.11071
2966.26868	0.11256
2964.98291	0.11423
2963.69715	0.11578
2962.41138	0.11722
2961.12561	0.11847
2959.83984	0.11954
2958.55407	0.12061
2957.26830	0.12181
2955.98253	0.12310
2954.69676	0.12428
2953.41100	0.12515
2952.12523	0.12562
2950.83946	0.12567
2949.55369	0.12540
2948.26792	0.12498
2946.98215	0.12459
2945.69638	0.12432
2944.41061	0.12416
2943.12484	0.12407
2941.83908	0.12401
2940.55331	0.12408
2939.26754	0.12447
2937.98177	0.12532
2936.69600	0.12663
2935.41023	0.12819
2934.12446	0.12973
2932.83869	0.13112
2931.55293	0.13237
2930.26716	0.13353
2928.98139	0.13457
2927.69562	0.13547
2926.40985	0.13623
2925.12408	0.13681
2923.83831	0.13714
2922.55254	0.13708
2921.26677	0.13656
2919.98101	0.13568
2918.69524	0.13459
2917.40947	0.13343
2916.12370	0.13229
2914.83793	0.13128
2913.55216	0.13045
2912.26639	0.12968
2910.98062	0.12879
2909.69486	0.12765
2908.40909	0.12628
2907.12332	0.12474
2905.83755	0.12318
2904.55178	0.12180
2903.26601	0.12077
2901.98024	0.12002
2900.69447	0.11935
2899.40870	0.11855
2898.12294	0.11753
2896.83717	0.11636
2895.55140	0.11513
2894.26563	0.11392
2892.97986	0.11269
2891.69409	0.11144
2890.40832	0.11032
2889.12255	0.10950
2887.83678	0.10906
2886.55102	0.10885
2885.26525	0.10868
2883.97948	0.10846
2882.69371	0.10826
2881.40794	0.10816
2880.12217	0.10825
2878.83640	0.10854
2877.55063	0.10896
2876.26487	0.10939
2874.97910	0.10980
2873.69333	0.11019
2872.40756	0.11058
2871.12179	0.11099
2869.83602	0.11142
2868.55025	0.11182
2867.26448	0.11207
2865.97871	0.11206
2864.69295	0.11188
2863.40718	0.11176
2862.12141	0.11187
2860.83564	0.11217
2859.54987	0.11248
2858.26410	0.11268
2856.97833	0.11272
2855.69256	0.11256
2854.40680	0.11216
2853.12103	0.11149
2851.83526	0.11063
2850.54949	0.10969
2849.26372	0.10875
2847.97795	0.10771
2846.69218	0.10647
2845.40641	0.10507
2844.12064	0.10367
2842.83488	0.10241
2841.54911	0.10122
2840.26334	0.09997
2838.97757	0.09860
2837.69180	0.09716
2836.40603	0.09577
2835.12026	0.09458
2833.83449	0.09362
2832.54873	0.09279
2831.26296	0.09197
2829.97719	0.09117
2828.69142	0.09047
2827.40565	0.08990
2826.11988	0.08932
2824.83411	0.08864
2823.54834	0.08791
2822.26257	0.08726
2820.97681	0.08679
2819.69104	0.08647
2818.40527	0.08620
2817.11950	0.08586
2815.83373	0.08538
2814.54796	0.08484
2813.26219	0.08437
2811.97642	0.08403
2810.69066	0.08380
2809.40489	0.08367
2808.11912	0.08358
2806.83335	0.08346
2805.54758	0.08325
2804.26181	0.08297
2802.97604	0.08271
2801.69027	0.08256
2800.40450	0.08250
2799.11874	0.08247
2797.83297	0.08240
2796.54720	0.08225
2795.26143	0.08203
2793.97566	0.08175
2792.68989	0.08141
2791.40412	0.08104
2790.11835	0.08069
2788.83259	0.08038
2787.54682	0.08006
2786.26105	0.07973
2784.97528	0.07942
2783.68951	0.07918
2782.40374	0.07905
2781.11797	0.07902
2779.83220	0.07900
2778.54643	0.07896
2777.26067	0.07895
2775.97490	0.07902
2774.68913	0.07907
2773.40336	0.07898
2772.11759	0.07874
2770.83182	0.07849
2769.54605	0.07836
2768.26028	0.07829
2766.97452	0.07812
2765.68875	0.07777
2764.40298	0.07735
2763.11721	0.07705
2761.83144	0.07691
2760.54567	0.07681
2759.25990	0.07659
2757.97413	0.07627
2756.68836	0.07596
2755.40260	0.07577
2754.11683	0.07567
2752.83106	0.07559
2751.54529	0.07552
2750.25952	0.07552
2748.97375	0.07560
2747.68798	0.07569
2746.40221	0.07567
2745.11645	0.07553
2743.83068	0.07533
2742.54491	0.07514
2741.25914	0.07501
2739.97337	0.07494
2738.68760	0.07486
2737.40183	0.07471
2736.11606	0.07450
2734.83029	0.07433
2733.54453	0.07436
2732.25876	0.07464
2730.97299	0.07507
2729.68722	0.07545
2728.40145	0.07557
2727.11568	0.07536
2725.82991	0.07493
2724.54414	0.07448
2723.25838	0.07415
2721.97261	0.07389
2720.68684	0.07360
2719.40107	0.07323
2718.11530	0.07289
2716.82953	0.07270
2715.54376	0.07269
2714.25799	0.07274
2712.97222	0.07268
2711.68646	0.07247
2710.40069	0.07217
2709.11492	0.07191
2707.82915	0.07177
2706.54338	0.07170
2705.25761	0.07169
2703.97184	0.07170
2702.68607	0.07172
2701.40031	0.07165
2700.11454	0.07146
2698.82877	0.07122
2697.54300	0.07106
2696.25723	0.07097
2694.97146	0.07086
2693.68569	0.07069
2692.39992	0.07048
2691.11415	0.07033
2689.82839	0.07029
2688.54262	0.07033
2687.25685	0.07036
2685.97108	0.07033
2684.68531	0.07022
2683.39954	0.07006
2682.11377	0.06985
2680.82800	0.06959
2679.54224	0.06934
2678.25647	0.06918
2676.97070	0.06911
2675.68493	0.06914
2674.39916	0.06929
2673.11339	0.06953
2671.82762	0.06972
2670.54185	0.06975
2669.25608	0.06964
2667.97032	0.06949
2666.68455	0.06933
2665.39878	0.06912
2664.11301	0.06886
2662.82724	0.06858
2661.54147	0.06839
2660.25570	0.06837
2658.96993	0.06848
2657.68417	0.06860
2656.39840	0.06858
2655.11263	0.06833
2653.82686	0.06796
2652.54109	0.06763
2651.25532	0.06749
2649.96955	0.06751
2648.68378	0.06751
2647.39801	0.06729
2646.11225	0.06677
2644.82648	0.06607
2643.54071	0.06546
2642.25494	0.06518
2640.96917	0.06532
2639.68340	0.06563
2638.39763	0.06576
2637.11186	0.06552
2635.82609	0.06501
2634.54033	0.06447
2633.25456	0.06404
2631.96879	0.06377
2630.68302	0.06370
2629.39725	0.06379
2628.11148	0.06383
2626.82571	0.06360
2625.53994	0.06302
2624.25418	0.06225
2622.96841	0.06157
2621.68264	0.06120
2620.39687	0.06115
2619.11110	0.06128
2617.82533	0.06143
2616.53956	0.06151
2615.25379	0.06147
2613.96802	0.06125
2612.68226	0.06082
2611.39649	0.06027
2610.11072	0.05974
2608.82495	0.05932
2607.53918	0.05908
2606.25341	0.05905
2604.96764	0.05922
2603.68187	0.05942
2602.39611	0.05946
2601.11034	0.05923
2599.82457	0.05880
2598.53880	0.05836
2597.25303	0.05807
2595.96726	0.05785
2594.68149	0.05757
2593.39572	0.05721
2592.10995	0.05697
2590.82419	0.05698
2589.53842	0.05710
2588.25265	0.05705
2586.96688	0.05679
2585.68111	0.05652
2584.39534	0.05645
2583.10957	0.05656
2581.82380	0.05666
2580.53804	0.05662
2579.25227	0.05645
2577.96650	0.05629
2576.68073	0.05619
2575.39496	0.05611
2574.10919	0.05594
2572.82342	0.05563
2571.53765	0.05526
2570.25188	0.05498
2568.96612	0.05490
2567.68035	0.05500
2566.39458	0.05519
2565.10881	0.05536
2563.82304	0.05545
2562.53727	0.05539
2561.25150	0.05512
2559.96573	0.05476
2558.67997	0.05451
2557.39420	0.05452
2556.10843	0.05469
2554.82266	0.05487
2553.53689	0.05496
2552.25112	0.05494
2550.96535	0.05482
2549.67958	0.05460
2548.39381	0.05432
2547.10805	0.05402
2545.82228	0.05385
2544.53651	0.05391
2543.25074	0.05415
2541.96497	0.05433
2540.67920	0.05428
2539.39343	0.05403
2538.10766	0.05373
2536.82190	0.05346
2535.53613	0.05330
2534.25036	0.05328
2532.96459	0.05339
2531.67882	0.05347
2530.39305	0.05338
2529.10728	0.05306
2527.82151	0.05255
2526.53574	0.05199
2525.24998	0.05150
2523.96421	0.05122
2522.67844	0.05121
2521.39267	0.05141
2520.10690	0.05161
2518.82113	0.05164
2517.53536	0.05148
2516.24959	0.05129
2514.96383	0.05125
2513.67806	0.05138
2512.39229	0.05155
2511.10652	0.05160
2509.82075	0.05151
2508.53498	0.05141
2507.24921	0.05141
2505.96344	0.05145
2504.67767	0.05141
2503.39191	0.05122
2502.10614	0.05090
2500.82037	0.05046
2499.53460	0.04998
2498.24883	0.04962
2496.96306	0.04952
2495.67729	0.04967
2494.39152	0.04989
2493.10576	0.05000
2491.81999	0.04993
2490.53422	0.04976
2489.24845	0.04960
2487.96268	0.04957
2486.67691	0.04972
2485.39114	0.04996
2484.10537	0.05016
2482.81960	0.05032
2481.53384	0.05053
2480.24807	0.05077
2478.96230	0.05079
2477.67653	0.05047
2476.39076	0.05004
2475.10499	0.04985
2473.81922	0.04995
2472.53345	0.05012
2471.24769	0.05015
2469.96192	0.05006
2468.67615	0.04992
2467.39038	0.04980
2466.10461	0.04975
2464.81884	0.04976
2463.53307	0.04974
2462.24730	0.04967
2460.96153	0.04955
2459.67577	0.04943
2458.39000	0.04936
2457.10423	0.04949
2455.81846	0.04983
2454.53269	0.05016
2453.24692	0.05018
2451.96115	0.04980
2450.67538	0.04923
2449.38962	0.04882
2448.10385	0.04879
2446.81808	0.04904
2445.53231	0.04919
2444.24654	0.04891
2442.96077	0.04829
2441.67500	0.04780
2440.38923	0.04775
2439.10346	0.04803
2437.81770	0.04834
2436.53193	0.04847
2435.24616	0.04839
2433.96039	0.04816
2432.67462	0.04790
2431.38885	0.04773
2430.10308	0.04767
2428.81731	0.04763
2427.53155	0.04748
2426.24578	0.04726
2424.96001	0.04707
2423.67424	0.04701
2422.38847	0.04714
2421.10270	0.04745
2419.81693	0.04781
2418.53116	0.04803
2417.24539	0.04809
2415.95963	0.04814
2414.67386	0.04830
2413.38809	0.04843
2412.10232	0.04830
2410.81655	0.04785
2409.53078	0.04725
2408.24501	0.04673
2406.95924	0.04649
2405.67347	0.04652
2404.38771	0.04663
2403.10194	0.04659
2401.81617	0.04638
2400.53040	0.04617
2399.24463	0.04619
2397.95886	0.04632
2396.67309	0.04648
2395.38732	0.04663
2394.10156	0.04676
2392.81579	0.04690
2391.53002	0.04702
2390.24425	0.04708
2388.95848	0.04704
2387.67271	0.04693
2386.38694	0.04684
2385.10117	0.04680
2383.81540	0.04677
2382.52964	0.04664
2381.24387	0.04644
2379.95810	0.04621
2378.67233	0.04597
2377.38656	0.04562
2376.10079	0.04513
2374.81502	0.04459
2373.52925	0.04417
2372.24349	0.04389
2370.95772	0.04367
2369.67195	0.04336
2368.38618	0.04286
2367.10041	0.04221
2365.81464	0.04161
2364.52887	0.04129
2363.24310	0.04130
2361.95733	0.04148
2360.67157	0.04158
2359.38580	0.04157
2358.10003	0.04164
2356.81426	0.04198
2355.52849	0.04256
2354.24272	0.04320
2352.95695	0.04375
2351.67118	0.04418
2350.38542	0.04445
2349.09965	0.04452
2347.81388	0.04440
2346.52811	0.04419
2345.24234	0.04399
2343.95657	0.04384
2342.67080	0.04368
2341.38503	0.04348
2340.09926	0.04325
2338.81350	0.04305
2337.52773	0.04293
2336.24196	0.04288
2334.95619	0.04281
2333.67042	0.04266
2332.38465	0.04241
2331.09888	0.04215
2329.81311	0.04207
2328.52735	0.04233
2327.24158	0.04291
2325.95581	0.04355
2324.67004	0.04395
2323.38427	0.04401
2322.09850	0.04390
2320.81273	0.04385
2319.52696	0.04394
2318.24119	0.04408
2316.95543	0.04417
2315.66966	0.04417
2314.38389	0.04416
2313.09812	0.04422
2311.81235	0.04436
2310.52658	0.04454
2309.24081	0.04469
2307.95504	0.04478
2306.66928	0.04478
2305.38351	0.04466
2304.09774	0.04444
2302.81197	0.04421
2301.52620	0.04406
2300.24043	0.04396
2298.95466	0.04375
2297.66889	0.04328
2296.38312	0.04256
2295.09736	0.04182
2293.81159	0.04134
2292.52582	0.04125
2291.24005	0.04148
2289.95428	0.04177
2288.66851	0.04188
2287.38274	0.04176
2286.09697	0.04152
2284.81121	0.04137
2283.52544	0.04142
2282.23967	0.04159
2280.95390	0.04173
2279.66813	0.04169
2278.38236	0.04142
2277.09659	0.04093
2275.81082	0.04025
2274.52505	0.03947
2273.23929	0.03868
2271.95352	0.03793
2270.66775	0.03728
2269.38198	0.03688
2268.09621	0.03694
2266.81044	0.03742
2265.52467	0.03790
2264.23890	0.03793
2262.95314	0.03742
2261.66737	0.03665
2260.38160	0.03592
2259.09583	0.03531
2257.81006	0.03484
2256.52429	0.03457
2255.23852	0.03447
2253.95275	0.03438
2252.66698	0.03419
2251.38122	0.03409
2250.09545	0.03436
2248.80968	0.03487
2247.52391	0.03491
2246.23814	0.03460
2244.95237	0.03441
2243.66660	0.03459
2242.38083	0.03474
2241.09507	0.03434
2239.80930	0.03335
2238.52353	0.03231
2237.23776	0.03170
2235.95199	0.03163
2234.66622	0.03187
2233.38045	0.03199
2232.09468	0.03174
2230.80891	0.03122
2229.52315	0.03076
2228.23738	0.03057
2226.95161	0.03058
2225.66584	0.03056
2224.38007	0.03038
2223.09430	0.03013
2221.80853	0.02996
2220.52276	0.02990
2219.23700	0.02990
2217.95123	0.02990
2216.66546	0.02986
2215.37969	0.02963
2214.09392	0.02906
2212.80815	0.02827
2211.52238	0.02770
2210.23661	0.02755
2208.95084	0.02757
2207.66508	0.02752
2206.37931	0.02759
2205.09354	0.02810
2203.80777	0.02887
2202.52200	0.02927
2201.23623	0.02890
2199.95046	0.02788
2198.66469	0.02666
2197.37893	0.02572
2196.09316	0.02540
2194.80739	0.02586
2193.52162	0.02690
2192.23585	0.02798
2190.95008	0.02850
2189.66431	0.02825
2188.37854	0.02756
2187.09277	0.02691
2185.80701	0.02645
2184.52124	0.02589
2183.23547	0.02496
2181.94970	0.02385
2180.66393	0.02307
2179.37816	0.02299
2178.09239	0.02343
2176.80662	0.02370
2175.52085	0.02332
2174.23509	0.02252
2172.94932	0.02207
2171.66355	0.02237
2170.37778	0.02291
2169.09201	0.02290
2167.80624	0.02211
2166.52047	0.02109
2165.23470	0.02046
2163.94894	0.02024
2162.66317	0.01999
2161.37740	0.01923
2160.09163	0.01786
2158.80586	0.01623
2157.52009	0.01504
2156.23432	0.01468
2154.94855	0.01501
2153.66278	0.01566
2152.37702	0.01634
2151.09125	0.01686
2149.80548	0.01709
2148.51971	0.01734
2147.23394	0.01819
2145.94817	0.01988
2144.66240	0.02187
2143.37663	0.02330
2142.09087	0.02384
2140.80510	0.02389
2139.51933	0.02403
2138.23356	0.02447
2136.94779	0.02501
2135.66202	0.02539
2134.37625	0.02551
2133.09048	0.02544
2131.80471	0.02525
2130.51895	0.02511
2129.23318	0.02523
2127.94741	0.02569
2126.66164	0.02628
2125.37587	0.02678
2124.09010	0.02721
2122.80433	0.02765
2121.51856	0.02808
2120.23280	0.02834
2118.94703	0.02831
2117.66126	0.02810
2116.37549	0.02791
2115.08972	0.02780
2113.80395	0.02757
2112.51818	0.02706
2111.23241	0.02639
2109.94664	0.02583
2108.66088	0.02549
2107.37511	0.02533
2106.08934	0.02529
2104.80357	0.02533
2103.51780	0.02535
2102.23203	0.02523
2100.94626	0.02501
2099.66049	0.02536
2098.37473	0.02544
2097.08896	0.02531
2095.80319	0.02532
2094.51742	0.02558
2093.23165	0.02601
2091.94588	0.02639
2090.66011	0.02659
2089.37434	0.02666
2088.08857	0.02671
2086.80281	0.02664
2085.51704	0.02626
2084.23127	0.02561
2082.94550	0.02508
2081.65973	0.02502
2080.37396	0.02538
2079.08819	0.02582
2077.80242	0.02609
2076.51666	0.02618
2075.23089	0.02609
2073.94512	0.02572
2072.65935	0.02496
2071.37358	0.02399
2070.08781	0.02319
2068.80204	0.02280
2067.51627	0.02272
2066.23050	0.02273
2064.94474	0.02275
2063.65897	0.02276
2062.37320	0.02261
2061.08743	0.02209
2059.80166	0.02116
2058.51589	0.02000
2057.23012	0.01885
2055.94435	0.01791
2054.65859	0.01736
2053.37282	0.01746
2052.08705	0.01829
2050.80128	0.01949
2049.51551	0.02014
2048.22974	0.01955
2046.94397	0.01792
2045.65820	0.01624
2044.37243	0.01535
2043.08667	0.01529
2041.80090	0.01563
2040.51513	0.01606
2039.22936	0.01659
2037.94359	0.01723
2036.65782	0.01787
2035.37205	0.01832
2034.08628	0.01843
2032.80052	0.01809
2031.51475	0.01725
2030.22898	0.01599
2028.94321	0.01459
2027.65744	0.01329
2026.37167	0.01225
2025.08590	0.01156
2023.80013	0.01144
2022.51436	0.01204
2021.22860	0.01319
2019.94283	0.01442
2018.65706	0.01521
2017.37129	0.01539
2016.08552	0.01517
2014.79975	0.01496
2013.51398	0.01511
2012.22821	0.01555
2010.94245	0.01585
2009.65668	0.01560
2008.37091	0.01492
2007.08514	0.01437
2005.79937	0.01436
2004.51360	0.01483
2003.22783	0.01543
2001.94206	0.01597
2000.65629	0.01654
1999.37053	0.01736
1998.08476	0.01845
1996.79899	0.01954
1995.51322	0.02021
1994.22745	0.02028
1992.94168	0.01987
1991.65591	0.01937
1990.37014	0.01907
1989.08438	0.01901
1987.79861	0.01899
1986.51284	0.01891
1985.22707	0.01890
1983.94130	0.01915
1982.65553	0.01964
1981.36976	0.02022
1980.08399	0.02080
1978.79822	0.02133
1977.51246	0.02159
1976.22669	0.02125
1974.94092	0.02025
1973.65515	0.01901
1972.36938	0.01812
1971.08361	0.01781
1969.79784	0.01792
1968.51207	0.01833
1967.22631	0.01913
1965.94054	0.02024
1964.65477	0.02114
1963.36900	0.02126
1962.08323	0.02059
1960.79746	0.01969
1959.51169	0.01919
1958.22592	0.01929
1956.94015	0.01976
1955.65439	0.02029
1954.36862	0.02075
1953.08285	0.02124
1951.79708	0.02174
1950.51131	0.02211
1949.22554	0.02228
1947.93977	0.02244
1946.65400	0.02275
1945.36823	0.02318
1944.08247	0.02356
1942.79670	0.02377
1941.51093	0.02383
1940.22516	0.02389
1938.93939	0.02412
1937.65362	0.02454
1936.36785	0.02501
1935.08208	0.02526
1933.79632	0.02515
1932.51055	0.02474
1931.22478	0.02432
1929.93901	0.02411
1928.65324	0.02408
1927.36747	0.02399
1926.08170	0.02372
1924.79593	0.02341
1923.51016	0.02333
1922.22440	0.02357
1920.93863	0.02403
1919.65286	0.02447
1918.36709	0.02471
1917.08132	0.02472
1915.79555	0.02468
1914.50978	0.02475
1913.22401	0.02493
1911.93825	0.02506
1910.65248	0.02503
1909.36671	0.02488
1908.08094	0.02476
1906.79517	0.02486
1905.50940	0.02524
1904.22363	0.02576
1902.93786	0.02614
1901.65209	0.02621
1900.36633	0.02600
1899.08056	0.02574
1897.79479	0.02561
1896.50902	0.02561
1895.22325	0.02562
1893.93748	0.02551
1892.65171	0.02519
1891.36594	0.02475
1890.08018	0.02446
1888.79441	0.02458
1887.50864	0.02514
1886.22287	0.02582
1884.93710	0.02619
1883.65133	0.02611
1882.36556	0.02578
1881.07979	0.02552
1879.79402	0.02542
1878.50826	0.02543
1877.22249	0.02542
1875.93672	0.02538
1874.65095	0.02537
1873.36518	0.02546
1872.07941	0.02560
1870.79364	0.02565
1869.50787	0.02551
1868.22211	0.02529
1866.93634	0.02522
1865.65057	0.02546
1864.36480	0.02586
1863.07903	0.02615
1861.79326	0.02618
1860.50749	0.02603
1859.22172	0.02587
1857.93595	0.02582
1856.65019	0.02585
1855.36442	0.02587
1854.07865	0.02580
1852.79288	0.02567
1851.50711	0.02555
1850.22134	0.02545
1848.93557	0.02536
1847.64980	0.02526
1846.36404	0.02518
1845.07827	0.02517
1843.79250	0.02523
1842.50673	0.02530
1841.22096	0.02535
1839.93519	0.02533
1838.64942	0.02525
1837.36365	0.02512
1836.07788	0.02502
1834.79212	0.02501
1833.50635	0.02509
1832.22058	0.02522
1830.93481	0.02532
1829.64904	0.02534
1828.36327	0.02531
1827.07750	0.02531
1825.79173	0.02541
1824.50597	0.02561
1823.22020	0.02587
1821.93443	0.02613
1820.64866	0.02634
1819.36289	0.02646
1818.07712	0.02647
1816.79135	0.02641
1815.50558	0.02630
1814.21981	0.02620
1812.93405	0.02616
1811.64828	0.02619
1810.36251	0.02622
1809.07674	0.02625
1807.79097	0.02627
1806.50520	0.02630
1805.21943	0.02633
1803.93366	0.02636
1802.64790	0.02640
1801.36213	0.02643
1800.07636	0.02647
1798.79059	0.02654
1797.50482	0.02663
1796.21905	0.02672
1794.93328	0.02674
1793.64751	0.02671
1792.36174	0.02664
1791.07598	0.02659
1789.79021	0.02658
1788.50444	0.02664
1787.21867	0.02672
1785.93290	0.02678
1784.64713	0.02679
1783.36136	0.02677
1782.07559	0.02679
1780.78983	0.02690
1779.50406	0.02706
1778.21829	0.02719
1776.93252	0.02723
1775.64675	0.02722
1774.36098	0.02725
1773.07521	0.02737
1771.78944	0.02754
1770.50367	0.02771
1769.21791	0.02786
1767.93214	0.02795
1766.64637	0.02798
1765.36060	0.02800
1764.07483	0.02805
1762.78906	0.02815
1761.50329	0.02825
1760.21752	0.02835
1758.93176	0.02848
1757.64599	0.02863
1756.36022	0.02879
1755.07445	0.02894
1753.78868	0.02912
1752.50291	0.02929
1751.21714	0.02938
1749.93137	0.02938
1748.64560	0.02936
1747.35984	0.02938
1746.07407	0.02942
1744.78830	0.02946
1743.50253	0.02954
1742.21676	0.02969
1740.93099	0.02989
1739.64522	0.03006
1738.35945	0.03015
1737.07369	0.03024
1735.78792	0.03044
1734.50215	0.03069
1733.21638	0.03087
1731.93061	0.03094
1730.64484	0.03102
1729.35907	0.03116
1728.07330	0.03134
1726.78753	0.03154
1725.50177	0.03176
1724.21600	0.03197
1722.93023	0.03217
1721.64446	0.03241
1720.35869	0.03278
1719.07292	0.03332
1717.78715	0.03392
1716.50138	0.03445
1715.21561	0.03487
1713.92985	0.03524
1712.64408	0.03562
1711.35831	0.03604
1710.07254	0.03648
1708.78677	0.03695
1707.50100	0.03742
1706.21523	0.03788
1704.92946	0.03829
1703.64370	0.03871
1702.35793	0.03922
1701.07216	0.03975
1699.78639	0.04013
1698.50062	0.04041
1697.21485	0.04073
1695.92908	0.04104
1694.64331	0.04123
1693.35754	0.04136
1692.07178	0.04163
1690.78601	0.04204
1689.50024	0.04250
1688.21447	0.04295
1686.92870	0.04346
1685.64293	0.04402
1684.35716	0.04445
1683.07139	0.04466
1681.78563	0.04477
1680.49986	0.04493
1679.21409	0.04522
1677.92832	0.04562
1676.64255	0.04610
1675.35678	0.04655
1674.07101	0.04687
1672.78524	0.04713
1671.49947	0.04745
1670.21371	0.04785
1668.92794	0.04826
1667.64217	0.04862
1666.35640	0.04891
1665.07063	0.04921
1663.78486	0.04956
1662.49909	0.04994
1661.21332	0.05034
1659.92756	0.05074
1658.64179	0.05112
1657.35602	0.05145
1656.07025	0.05178
1654.78448	0.05221
1653.49871	0.05262
1652.21294	0.05283
1650.92717	0.05287
1649.64140	0.05297
1648.35564	0.05322
1647.06987	0.05355
1645.78410	0.05379
1644.49833	0.05392
1643.21256	0.05402
1641.92679	0.05413
1640.64102	0.05430
1639.35525	0.05455
1638.06949	0.05490
1636.78372	0.05529
1635.49795	0.05561
1634.21218	0.05582
1632.92641	0.05606
1631.64064	0.05645
1630.35487	0.05693
1629.06910	0.05737
1627.78333	0.05773
1626.49757	0.05806
1625.21180	0.05848
1623.92603	0.05903
1622.64026	0.05965
1621.35449	0.06027
1620.06872	0.06091
1618.78295	0.06159
1617.49718	0.06226
1616.21142	0.06282
1614.92565	0.06327
1613.63988	0.06374
1612.35411	0.06428
1611.06834	0.06487
1609.78257	0.06546
1608.49680	0.06605
1607.21103	0.06666
1605.92526	0.06728
1604.63950	0.06790
1603.35373	0.06849
1602.06796	0.06905
1600.78219	0.06957
1599.49642	0.07006
1598.21065	0.07056
1596.92488	0.07106
1595.63911	0.07150
1594.35335	0.07186
1593.06758	0.07213
1591.78181	0.07237
1590.49604	0.07261
1589.21027	0.07287
1587.92450	0.07314
1586.63873	0.07340
1585.35296	0.07367
1584.06719	0.07395
1582.78143	0.07424
1581.49566	0.07456
1580.20989	0.07490
1578.92412	0.07528
1577.63835	0.07570
1576.35258	0.07607
1575.06681	0.07629
1573.78104	0.07643
1572.49528	0.07659
1571.20951	0.07679
1569.92374	0.07697
1568.63797	0.07706
1567.35220	0.07712
1566.06643	0.07722
1564.78066	0.07738
1563.49489	0.07756
1562.20912	0.07779
1560.92336	0.07805
1559.63759	0.07824
1558.35182	0.07825
1557.06605	0.07809
1555.78028	0.07791
1554.49451	0.07778
1553.20874	0.07765
1551.92297	0.07752
1550.63721	0.07739
1549.35144	0.07720
1548.06567	0.07691
1546.77990	0.07651
1545.49413	0.07602
1544.20836	0.07542
1542.92259	0.07475
1541.63682	0.07411
1540.35105	0.07351
1539.06529	0.07286
1537.77952	0.07212
1536.49375	0.07136
1535.20798	0.07073
1533.92221	0.07023
1532.63644	0.06983
1531.35067	0.06954
1530.06490	0.06937
1528.77914	0.06933
1527.49337	0.06937
1526.20760	0.06949
1524.92183	0.06974
1523.63606	0.07021
1522.35029	0.07088
1521.06452	0.07165
1519.77875	0.07243
1518.49298	0.07327
1517.20722	0.07421
1515.92145	0.07524
1514.63568	0.07637
1513.34991	0.07762
1512.06414	0.07895
1510.77837	0.08035
1509.49260	0.08187
1508.20683	0.08357
1506.92107	0.08534
1505.63530	0.08697
1504.34953	0.08840
1503.06376	0.08970
1501.77799	0.09096
1500.49222	0.09218
1499.20645	0.09334
1497.92068	0.09444
1496.63491	0.09550
1495.34915	0.09647
1494.06338	0.09738
1492.77761	0.09831
1491.49184	0.09930
1490.20607	0.10032
1488.92030	0.10137
1487.63453	0.10248
1486.34876	0.10367
1485.06299	0.10497
1483.77723	0.10641
1482.49146	0.10801
1481.20569	0.10973
1479.91992	0.11150
1478.63415	0.11322
1477.34838	0.11486
1476.06261	0.11642
1474.77684	0.11797
1473.49108	0.11954
1472.20531	0.12106
1470.91954	0.12251
1469.63377	0.12390
1468.34800	0.12525
1467.06223	0.12653
1465.77646	0.12769
1464.49069	0.12871
1463.20492	0.12962
1461.91916	0.13054
1460.63339	0.13159
1459.34762	0.13280
1458.06185	0.13407
1456.77608	0.13520
1455.49031	0.13605
1454.20454	0.13668
1452.91877	0.13719
1451.63301	0.13758
1450.34724	0.13781
1449.06147	0.13783
1447.77570	0.13765
1446.48993	0.13729
1445.20416	0.13683
1443.91839	0.13635
1442.63262	0.13586
1441.34685	0.13532
1440.06109	0.13480
1438.77532	0.13440
1437.48955	0.13418
1436.20378	0.13412
1434.91801	0.13424
1433.63224	0.13464
1432.34647	0.13538
1431.06070	0.13648
1429.77494	0.13789
1428.48917	0.13958
1427.20340	0.14149
1425.91763	0.14351
1424.63186	0.14556
1423.34609	0.14758
1422.06032	0.14957
1420.77455	0.15152
1419.48878	0.15333
1418.20302	0.15486
1416.91725	0.15610
1415.63148	0.15706
1414.34571	0.15776
1413.05994	0.15818
1411.77417	0.15830
1410.48840	0.15810
1409.20263	0.15758
1407.91687	0.15670
1406.63110	0.15544
1405.34533	0.15380
1404.05956	0.15185
1402.77379	0.14964
1401.48802	0.14724
1400.20225	0.14466
1398.91648	0.14193
1397.63071	0.13910
1396.34495	0.13621
1395.05918	0.13325
1393.77341	0.13023
1392.48764	0.12719
1391.20187	0.12420
1389.91610	0.12134
1388.63033	0.11862
1387.34456	0.11603
1386.05880	0.11353
1384.77303	0.11111
1383.48726	0.10872
1382.20149	0.10632
1380.91572	0.10392
1379.62995	0.10152
1378.34418	0.09911
1377.05841	0.09667
1375.77264	0.09410
1374.48688	0.09136
1373.20111	0.08850
1371.91534	0.08564
1370.62957	0.08292
1369.34380	0.08041
1368.05803	0.07811
1366.77226	0.07599
1365.48649	0.07398
1364.20073	0.07204
1362.91496	0.07013
1361.62919	0.06828
1360.34342	0.06656
1359.05765	0.06500
1357.77188	0.06359
1356.48611	0.06226
1355.20034	0.06099
1353.91457	0.05976
1352.62881	0.05859
1351.34304	0.05749
1350.05727	0.05649
1348.77150	0.05557
1347.48573	0.05473
1346.19996	0.05389
1344.91419	0.05302
1343.62842	0.05212
1342.34266	0.05124
1341.05689	0.05044
1339.77112	0.04972
1338.48535	0.04903
1337.19958	0.04835
1335.91381	0.04766
1334.62804	0.04696
1333.34227	0.04630
1332.05650	0.04573
1330.77074	0.04525
1329.48497	0.04483
1328.19920	0.04440
1326.91343	0.04395
1325.62766	0.04350
1324.34189	0.04312
1323.05612	0.04279
1321.77035	0.04247
1320.48459	0.04211
1319.19882	0.04170
1317.91305	0.04129
1316.62728	0.04093
1315.34151	0.04064
1314.05574	0.04041
1312.76997	0.04019
1311.48420	0.03996
1310.19843	0.03973
1308.91267	0.03945
1307.62690	0.03912
1306.34113	0.03871
1305.05536	0.03828
1303.76959	0.03791
1302.48382	0.03767
1301.19805	0.03750
1299.91228	0.03734
1298.62652	0.03712
1297.34075	0.03686
1296.05498	0.03658
1294.76921	0.03633
1293.48344	0.03611
1292.19767	0.03593
1290.91190	0.03576
1289.62613	0.03558
1288.34036	0.03538
1287.05460	0.03514
1285.76883	0.03490
1284.48306	0.03466
1283.19729	0.03445
1281.91152	0.03425
1280.62575	0.03406
1279.33998	0.03387
1278.05421	0.03370
1276.76845	0.03354
1275.48268	0.03340
1274.19691	0.03327
1272.91114	0.03312
1271.62537	0.03291
1270.33960	0.03267
1269.05383	0.03245
1267.76806	0.03230
1266.48229	0.03220
1265.19653	0.03211
1263.91076	0.03201
1262.62499	0.03188
1261.33922	0.03174
1260.05345	0.03157
1258.76768	0.03136
1257.48191	0.03113
1256.19614	0.03091
1254.91037	0.03073
1253.62461	0.03060
1252.33884	0.03049
1251.05307	0.03040
1249.76730	0.03031
1248.48153	0.03018
1247.19576	0.02998
1245.90999	0.02976
1244.62422	0.02959
1243.33846	0.02950
1242.05269	0.02948
1240.76692	0.02946
1239.48115	0.02938
1238.19538	0.02920
1236.90961	0.02897
1235.62384	0.02872
1234.33807	0.02853
1233.05230	0.02841
1231.76654	0.02834
1230.48077	0.02829
1229.19500	0.02822
1227.90923	0.02814
1226.62346	0.02807
1225.33769	0.02800
1224.05192	0.02795
1222.76615	0.02787
1221.48039	0.02777
1220.19462	0.02765
1218.90885	0.02754
1217.62308	0.02744
1216.33731	0.02734
1215.05154	0.02723
1213.76577	0.02711
1212.48000	0.02700
1211.19423	0.02692
1209.90847	0.02689
1208.62270	0.02691
1207.33693	0.02694
1206.05116	0.02694
1204.76539	0.02688
1203.47962	0.02678
1202.19385	0.02671
1200.90808	0.02667
1199.62232	0.02664
1198.33655	0.02669
1197.05078	0.02669
1195.76501	0.02659
1194.47924	0.02644
1193.19347	0.02632
1191.90770	0.02626
1190.62193	0.02623
1189.33616	0.02623
1188.05040	0.02626
1186.76463	0.02630
1185.47886	0.02632
1184.19309	0.02630
1182.90732	0.02623
1181.62155	0.02617
1180.33578	0.02616
1179.05001	0.02620
1177.76425	0.02628
1176.47848	0.02634
1175.19271	0.02637
1173.90694	0.02639
1172.62117	0.02645
1171.33540	0.02660
1170.04963	0.02680
1168.76386	0.02700
1167.47809	0.02718
1166.19233	0.02737
1164.90656	0.02756
1163.62079	0.02775
1162.33502	0.02795
1161.04925	0.02819
1159.76348	0.02850
1158.47771	0.02882
1157.19194	0.02911
1155.90618	0.02940
1154.62041	0.02975
1153.33464	0.03020
1152.04887	0.03075
1150.76310	0.03134
1149.47733	0.03194
1148.19156	0.03258
1146.90579	0.03332
1145.62002	0.03419
1144.33426	0.03517
1143.04849	0.03622
1141.76272	0.03729
1140.47695	0.03844
1139.19118	0.03974
1137.90541	0.04128
1136.61964	0.04309
1135.33387	0.04511
1134.04811	0.04721
1132.76234	0.04941
1131.47657	0.05182
1130.19080	0.05459
1128.90503	0.05777
1127.61926	0.06133
1126.33349	0.06522
1125.04772	0.06937
1123.76195	0.07370
1122.47619	0.07814
1121.19042	0.08263
1119.90465	0.08719
1118.61888	0.09193
1117.33311	0.09685
1116.04734	0.10185
1114.76157	0.10676
1113.47580	0.11149
1112.19004	0.11604
1110.90427	0.12049
1109.61850	0.12494
1108.33273	0.12938
1107.04696	0.13374
1105.76119	0.13793
1104.47542	0.14195
1103.18965	0.14586
1101.90388	0.14971
1100.61812	0.15349
1099.33235	0.15713
1098.04658	0.16059
1096.76081	0.16391
1095.47504	0.16713
1094.18927	0.17025
1092.90350	0.17319
1091.61773	0.17587
1090.33197	0.17831
1089.04620	0.18061
1087.76043	0.18288
1086.47466	0.18519
1085.18889	0.18755
1083.90312	0.18994
1082.61735	0.19242
1081.33158	0.19508
1080.04581	0.19798
1078.76005	0.20110
1077.47428	0.20440
1076.18851	0.20788
1074.90274	0.21158
1073.61697	0.21553
1072.33120	0.21968
1071.04543	0.22398
1069.75966	0.22844
1068.47390	0.23307
1067.18813	0.23785
1065.90236	0.24275
1064.61659	0.24775
1063.33082	0.25289
1062.04505	0.25820
1060.75928	0.26360
1059.47351	0.26897
1058.18774	0.27423
1056.90198	0.27936
1055.61621	0.28444
1054.33044	0.28952
1053.04467	0.29466
1051.75890	0.29994
1050.47313	0.30539
1049.18736	0.31102
1047.90159	0.31679
1046.61583	0.32262
1045.33006	0.32856
1044.04429	0.33467
1042.75852	0.34099
1041.47275	0.34747
1040.18698	0.35404
1038.90121	0.36065
1037.61544	0.36731
1036.32967	0.37401
1035.04391	0.38071
1033.75814	0.38730
1032.47237	0.39370
1031.18660	0.39984
1029.90083	0.40571
1028.61506	0.41120
1027.32929	0.41619
1026.04352	0.42060
1024.75775	0.42444
1023.47199	0.42770
1022.18622	0.43036
1020.90045	0.43239
1019.61468	0.43376
1018.32891	0.43442
1017.04314	0.43428
1015.75737	0.43323
1014.47160	0.43124
1013.18584	0.42837
1011.90007	0.42465
1010.61430	0.42003
1009.32853	0.41446
1008.04276	0.40800
1006.75699	0.40080
1005.47122	0.39299
1004.18545	0.38458
1002.89968	0.37558
1001.61392	0.36600
1000.32815	0.35591
999.04238	0.34542
997.75661	0.33460
996.47084	0.32355
995.18507	0.31234
993.89930	0.30111
992.61353	0.29002
991.32777	0.27918
990.04200	0.26858
988.75623	0.25816
987.47046	0.24792
986.18469	0.23797
984.89892	0.22842
983.61315	0.21937
982.32738	0.21085
981.04161	0.20291
979.75585	0.19554
978.47008	0.18872
977.18431	0.18239
975.89854	0.17657
974.61277	0.17140
973.32700	0.16704
972.04123	0.16357
970.75546	0.16100
969.46970	0.15936
968.18393	0.15876
966.89816	0.15921
965.61239	0.16046
964.32662	0.16208
963.04085	0.16357
961.75508	0.16453
960.46931	0.16462
959.18354	0.16363
957.89778	0.16148
956.61201	0.15837
955.32624	0.15467
954.04047	0.15069
952.75470	0.14663
951.46893	0.14254
950.18316	0.13847
948.89739	0.13453
947.61163	0.13073
946.32586	0.12703
945.04009	0.12337
943.75432	0.11980
942.46855	0.11644
941.18278	0.11328
939.89701	0.11025
938.61124	0.10729
937.32547	0.10440
936.03971	0.10166
934.75394	0.09915
933.46817	0.09687
932.18240	0.09477
930.89663	0.09274
929.61086	0.09079
928.32509	0.08899
927.03932	0.08737
925.75356	0.08589
924.46779	0.08447
923.18202	0.08307
921.89625	0.08174
920.61048	0.08053
919.32471	0.07942
918.03894	0.07836
916.75317	0.07730
915.46740	0.07626
914.18164	0.07531
912.89587	0.07452
911.61010	0.07385
910.32433	0.07319
909.03856	0.07245
907.75279	0.07163
906.46702	0.07078
905.18125	0.06995
903.89549	0.06919
902.60972	0.06850
901.32395	0.06787
900.03818	0.06728
898.75241	0.06672
897.46664	0.06616
896.18087	0.06558
894.89510	0.06505
893.60933	0.06470
892.32357	0.06458
891.03780	0.06460
889.75203	0.06467
888.46626	0.06489
887.18049	0.06553
885.89472	0.06696
884.60895	0.06941
883.32318	0.07284
882.03742	0.07685
880.75165	0.08081
879.46588	0.08411
878.18011	0.08659
876.89434	0.08863
875.60857	0.09080
874.32280	0.09326
873.03703	0.09555
871.75126	0.09690
870.46550	0.09684
869.17973	0.09545
867.89396	0.09310
866.60819	0.09010
865.32242	0.08663
864.03665	0.08292
862.75088	0.07930
861.46511	0.07607
860.17935	0.07333
858.89358	0.07102
857.60781	0.06901
856.32204	0.06722
855.03627	0.06563
853.75050	0.06427
852.46473	0.06319
851.17896	0.06237
849.89319	0.06174
848.60743	0.06119
847.32166	0.06066
846.03589	0.06012
844.75012	0.05960
843.46435	0.05908
842.17858	0.05852
840.89281	0.05796
839.60704	0.05746
838.32128	0.05703
837.03551	0.05663
835.74974	0.05621
834.46397	0.05578
833.17820	0.05540
831.89243	0.05511
830.60666	0.05491
829.32089	0.05476
828.03512	0.05461
826.74936	0.05440
825.46359	0.05416
824.17782	0.05397
822.89205	0.05387
821.60628	0.05380
820.32051	0.05365
819.03474	0.05340
817.74897	0.05317
816.46321	0.05305
815.17744	0.05305
813.89167	0.05304
812.60590	0.05297
811.32013	0.05285
810.03436	0.05269
808.74859	0.05250
807.46282	0.05227
806.17705	0.05205
804.89129	0.05191
803.60552	0.05185
802.31975	0.05182
801.03398	0.05176
799.74821	0.05164
798.46244	0.05147
797.17667	0.05134
795.89090	0.05129
794.60513	0.05126
793.31937	0.05117
792.03360	0.05099
790.74783	0.05081
789.46206	0.05072
788.17629	0.05072
786.89052	0.05073
785.60475	0.05066
784.31898	0.05048
783.03322	0.05027
781.74745	0.05013
780.46168	0.05010
779.17591	0.05013
777.89014	0.05014
776.60437	0.05011
775.31860	0.05005
774.03283	0.04995
772.74706	0.04981
771.46130	0.04966
770.17553	0.04955
768.88976	0.04952
767.60399	0.04956
766.31822	0.04963
765.03245	0.04968
763.74668	0.04974
762.46091	0.04980
761.17515	0.04987
759.88938	0.04994
758.60361	0.05000
757.31784	0.05005
756.03207	0.05007
754.74630	0.05000
753.46053	0.04982
752.17476	0.04957
750.88899	0.04929
749.60323	0.04903
748.31746	0.04883
747.03169	0.04872
745.74592	0.04868
744.46015	0.04864
743.17438	0.04859
741.88861	0.04852
740.60284	0.04846
739.31708	0.04833
738.03131	0.04813
736.74554	0.04790
735.45977	0.04770
734.17400	0.04756
732.88823	0.04749
731.60246	0.04746
730.31669	0.04745
729.03092	0.04746
727.74516	0.04748
726.45939	0.04747
725.17362	0.04744
723.88785	0.04735
722.60208	0.04742
721.31631	0.04751
720.03054	0.04750
718.74477	0.04738
717.45901	0.04721
716.17324	0.04705
714.88747	0.04687
713.60170	0.04669
712.31593	0.04650
711.03016	0.04633
709.74439	0.04618
708.45862	0.04608
707.17285	0.04602
705.88709	0.04596
704.60132	0.04587
703.31555	0.04576
702.02978	0.04565
700.74401	0.04556
699.45824	0.04549
698.17247	0.04543
696.88670	0.04537
695.60094	0.04535
694.31517	0.04533
693.02940	0.04530
691.74363	0.04524
690.45786	0.04518
689.17209	0.04511
687.88632	0.04503
686.60055	0.04492
685.31478	0.04476
684.02902	0.04455
682.74325	0.04432
681.45748	0.04406
680.17171	0.04382
678.88594	0.04364
677.60017	0.04356
676.31440	0.04359
675.02863	0.04371
673.74287	0.04388
672.45710	0.04405
671.17133	0.04419
669.88556	0.04429
668.59979	0.04439
667.31402	0.04446
666.02825	0.04443
664.74248	0.04427
663.45671	0.04397
662.17095	0.04364
660.88518	0.04333
659.59941	0.04304
658.31364	0.04279
657.02787	0.04257
655.74210	0.04241
654.45633	0.04229
653.17056	0.04221
651.88480	0.04216
650.59903	0.04212
649.31326	0.04210
648.02749	0.04210
646.74172	0.04215
645.45595	0.04221
644.17018	0.04228
642.88441	0.04232
641.59864	0.04238
640.31288	0.04248
639.02711	0.04261
637.74134	0.04276
636.45557	0.04300
635.16980	0.04340
633.88403	0.04400
632.59826	0.04467
631.31249	0.04536
630.02673	0.04636
628.74096	0.04751
627.45519	0.04760
626.16942	0.04905
624.88365	0.05151
623.59788	0.05414
622.31211	0.05681
621.02634	0.05969
619.74057	0.06302
618.45481	0.06685
617.16904	0.07108
615.88327	0.07549
614.59750	0.08019
613.31173	0.08592
612.02596	0.09381
610.74019	0.10415
609.45442	0.11532
608.16866	0.12482
606.88289	0.13180
605.59712	0.13739
604.31135	0.14262
603.02558	0.14716
601.73981	0.14988
600.45404	0.15003
599.16827	0.14760
597.88250	0.14318
596.59674	0.13770
595.31097	0.13212
594.02520	0.12715
592.73943	0.12315
591.45366	0.12016
590.16789	0.11813
588.88212	0.11704
587.59635	0.11695
586.31059	0.11788
585.02482	0.11973
583.73905	0.12230
582.45328	0.12548
581.16751	0.12926
579.88174	0.13358
578.59597	0.13822
577.31020	0.14285
576.02443	0.14718
574.73867	0.15113
573.45290	0.15474
572.16713	0.15820
570.88136	0.16188
569.59559	0.16630
568.30982	0.17184
567.02405	0.17841
565.73828	0.18544
564.45251	0.19204
563.16675	0.19730
561.88098	0.20045
560.59521	0.20101
559.30944	0.19882
558.02367	0.19404
556.73790	0.18714
555.45213	0.17877
554.16636	0.16961
552.88060	0.16023
551.59483	0.15102
550.30906	0.14223
549.02329	0.13407
547.73752	0.12662
546.45175	0.11988
545.16598	0.11377
543.88021	0.10821
542.59444	0.10323
541.30868	0.09881
540.02291	0.09494
538.73714	0.09154
537.45137	0.08846
536.16560	0.08555
534.87983	0.08273
533.59406	0.08003
532.30829	0.07753
531.02253	0.07530
529.73676	0.07335
528.45099	0.07160
527.16522	0.06990
525.87945	0.06812
524.59368	0.06625
523.30791	0.06434
522.02214	0.06254
520.73637	0.06095
519.45061	0.05963
518.16484	0.05852
516.87907	0.05751
515.59330	0.05647
514.30753	0.05532
513.02176	0.05413
511.73599	0.05301
510.45022	0.05205
509.16446	0.05121
507.87869	0.05037
506.59292	0.04946
505.30715	0.04848
504.02138	0.04756
502.73561	0.04679
501.44984	0.04619
500.16407	0.04567
498.87830	0.04517
497.59254	0.04469
496.30677	0.04421
495.02100	0.04375
493.73523	0.04329
492.44946	0.04285
491.16369	0.04248
489.87792	0.04220
488.59215	0.04197
487.30639	0.04179
486.02062	0.04166
484.73485	0.04161
483.44908	0.04166
482.16331	0.04176
480.87754	0.04185
479.59177	0.04194
478.30600	0.04211
477.02023	0.04239
475.73447	0.04274
474.44870	0.04309
473.16293	0.04340
471.87716	0.04365
470.59139	0.04379
469.30562	0.04377
468.01985	0.04357
466.73408	0.04326
465.44832	0.04288
464.16255	0.04241
462.87678	0.04184
461.59101	0.04117
460.30524	0.04049
459.01947	0.03990
457.73370	0.03942
456.44793	0.03900
455.16216	0.03858
453.87640	0.03810
452.59063	0.03757
451.30486	0.03702
450.01909	0.03653
448.73332	0.03614
447.44755	0.03586
446.16178	0.03562
444.87601	0.03538
443.59025	0.03510
442.30448	0.03479
441.01871	0.03447
439.73294	0.03420
438.44717	0.03401
437.16140	0.03395
435.87563	0.03400
434.58986	0.03406
433.30409	0.03405
432.01833	0.03393
430.73256	0.03375
429.44679	0.03356
428.16102	0.03337
426.87525	0.03314
425.58948	0.03288
424.30371	0.03262
423.01794	0.03239
421.73218	0.03219
420.44641	0.03197
419.16064	0.03172
417.87487	0.03146
416.58910	0.03127
415.30333	0.03116
414.01756	0.03110
412.73179	0.03106
411.44602	0.03102
410.16026	0.03096
408.87449	0.03091
407.58872	0.03086
406.30295	0.03082
405.01718	0.03080
403.73141	0.03083
402.44564	0.03092
401.15987	0.03105
399.87411	0.03120
