3997.45528 0.05296
3996.16951 0.05399
3994.88374 0.05469
3993.59798 0.05459
3992.31221 0.05374
3991.02644 0.05272
3989.74067 0.05212
3988.45490 0.05218
3987.16913 0.05268
3985.88336 0.05315
3984.59759 0.05324
3983.31183 0.05279
3982.02606 0.05187
3980.74029 0.05084
3979.45452 0.05021
3978.16875 0.05024
3976.88298 0.05075
3975.59721 0.05150
3974.31144 0.05241
3973.02567 0.05327
3971.73991 0.05361
3970.45414 0.05313
3969.16837 0.05225
3967.88260 0.05177
3966.59683 0.05212
3965.31106 0.05301
3964.02529 0.05376
3962.73952 0.05392
3961.45376 0.05343
3960.16799 0.05260
3958.88222 0.05182
3957.59645 0.05134
3956.31068 0.05110
3955.02491 0.05099
3953.73914 0.05105
3952.45337 0.05149
3951.16760 0.05231
3949.88184 0.05304
3948.59607 0.05311
3947.31030 0.05244
3946.02453 0.05156
3944.73876 0.05104
3943.45299 0.05108
3942.16722 0.05161
3940.88145 0.05250
3939.59569 0.05345
3938.30992 0.05401
3937.02415 0.05387
3935.73838 0.05319
3934.45261 0.05234
3933.16684 0.05161
3931.88107 0.05117
3930.59530 0.05111
3929.30953 0.05133
3928.02377 0.05163
3926.73800 0.05192
3925.45223 0.05223
3924.16646 0.05231
3922.88069 0.05172
3921.59492 0.05038
3920.30915 0.04881
3919.02338 0.04778
3917.73762 0.04757
3916.45185 0.04792
3915.16608 0.04846
3913.88031 0.04899
3912.59454 0.04943
3911.30877 0.04974
3910.02300 0.04995
3908.73723 0.05006
3907.45146 0.05003
3906.16570 0.04981
3904.87993 0.04951
3903.59416 0.04943
3902.30839 0.04974
3901.02262 0.05033
3899.73685 0.05103
3898.45108 0.05169
3897.16531 0.05215
3895.87955 0.05224
3894.59378 0.05201
3893.30801 0.05182
3892.02224 0.05186
3890.73647 0.05203
3889.45070 0.05205
3888.16493 0.05188
3886.87916 0.05172
3885.59339 0.05180
3884.30763 0.05210
3883.02186 0.05233
3881.73609 0.05217
3880.45032 0.05158
3879.16455 0.05089
3877.87878 0.05035
3876.59301 0.05001
3875.30724 0.04980
3874.02148 0.04971
3872.73571 0.04975
3871.44994 0.04978
3870.16417 0.04945
3868.87840 0.04847
3867.59263 0.04702
3866.30686 0.04584
3865.02109 0.04554
3863.73532 0.04589
3862.44956 0.04621
3861.16379 0.04628
3859.87802 0.04651
3858.59225 0.04728
3857.30648 0.04838
3856.02071 0.04939
3854.73494 0.05010
3853.44917 0.05048
3852.16341 0.05052
3850.87764 0.05040
3849.59187 0.05055
3848.30610 0.05134
3847.02033 0.05248
3845.73456 0.05322
3844.44879 0.05302
3843.16302 0.05196
3841.87725 0.05053
3840.59149 0.04923
3839.30572 0.04837
3838.01995 0.04807
3836.73418 0.04826
3835.44841 0.04876
3834.16264 0.04924
3832.87687 0.04929
3831.59110 0.04870
3830.30534 0.04773
3829.01957 0.04697
3827.73380 0.04673
3826.44803 0.04678
3825.16226 0.04666
3823.87649 0.04635
3822.59072 0.04630
3821.30495 0.04692
3820.01918 0.04806
3818.73342 0.04905
3817.44765 0.04936
3816.16188 0.04906
3814.87611 0.04873
3813.59034 0.04882
3812.30457 0.04930
3811.01880 0.04983
3809.73303 0.05011
3808.44726 0.05002
3807.16150 0.04949
3805.87573 0.04860
3804.58996 0.04769
3803.30419 0.04720
3802.01842 0.04742
3800.73265 0.04831
3799.44688 0.04955
3798.16111 0.05070
3796.87535 0.05134
3795.58958 0.05110
3794.30381 0.04987
3793.01804 0.04797
3791.73227 0.04607
3790.44650 0.04476
3789.16073 0.04418
3787.87496 0.04410
3786.58919 0.04434
3785.30343 0.04499
3784.01766 0.04600
3782.73189 0.04703
3781.44612 0.04775
3780.16035 0.04817
3778.87458 0.04839
3777.58881 0.04836
3776.30304 0.04798
3775.01728 0.04730
3773.73151 0.04655
3772.44574 0.04594
3771.15997 0.04566
3769.87420 0.04589
3768.58843 0.04655
3767.30266 0.04725
3766.01689 0.04755
3764.73112 0.04736
3763.44536 0.04690
3762.15959 0.04639
3760.87382 0.04595
3759.58805 0.04580
3758.30228 0.04624
3757.01651 0.04719
3755.73074 0.04803
3754.44497 0.04806
3753.15921 0.04720
3751.87344 0.04615
3750.58767 0.04560
3749.30190 0.04563
3748.01613 0.04567
3746.73036 0.04523
3745.44459 0.04436
3744.15882 0.04350
3742.87305 0.04318
3741.58729 0.04359
3740.30152 0.04457
3739.01575 0.04566
3737.72998 0.04640
3736.44421 0.04664
3735.15844 0.04655
3733.87267 0.04649
3732.58690 0.04658
3731.30114 0.04667
3730.01537 0.04647
3728.72960 0.04584
3727.44383 0.04495
3726.15806 0.04413
3724.87229 0.04374
3723.58652 0.04389
3722.30075 0.04451
3721.01498 0.04540
3719.72922 0.04628
3718.44345 0.04679
3717.15768 0.04657
3715.87191 0.04556
3714.58614 0.04423
3713.30037 0.04334
3712.01460 0.04330
3710.72883 0.04380
3709.44307 0.04418
3708.15730 0.04424
3706.87153 0.04431
3705.58576 0.04468
3704.29999 0.04514
3703.01422 0.04518
3701.72845 0.04451
3700.44268 0.04322
3699.15691 0.04169
3697.87115 0.04054
3696.58538 0.04023
3695.29961 0.04072
3694.01384 0.04147
3692.72807 0.04190
3691.44230 0.04184
3690.15653 0.04143
3688.87076 0.04089
3687.58500 0.04050
3686.29923 0.04054
3685.01346 0.04109
3683.72769 0.04182
3682.44192 0.04230
3681.15615 0.04237
3679.87038 0.04220
3678.58461 0.04195
3677.29884 0.04173
3676.01308 0.04175
3674.72731 0.04226
3673.44154 0.04322
3672.15577 0.04419
3670.87000 0.04482
3669.58423 0.04521
3668.29846 0.04566
3667.01269 0.04619
3665.72693 0.04634
3664.44116 0.04557
3663.15539 0.04390
3661.86962 0.04206
3660.58385 0.04095
3659.29808 0.04102
3658.01231 0.04210
3656.72654 0.04371
3655.44077 0.04530
3654.15501 0.04633
3652.86924 0.04646
3651.58347 0.04563
3650.29770 0.04418
3649.01193 0.04270
3647.72616 0.04179
3646.44039 0.04166
3645.15462 0.04213
3643.86886 0.04293
3642.58309 0.04396
3641.29732 0.04520
3640.01155 0.04639
3638.72578 0.04717
3637.44001 0.04744
3636.15424 0.04734
3634.86847 0.04714
3633.58270 0.04696
3632.29694 0.04680
3631.01117 0.04667
3629.72540 0.04667
3628.43963 0.04681
3627.15386 0.04683
3625.86809 0.04634
3624.58232 0.04525
3623.29655 0.04396
3622.01079 0.04302
3620.72502 0.04277
3619.43925 0.04319
3618.15348 0.04402
3616.86771 0.04487
3615.58194 0.04555
3614.29617 0.04625
3613.01040 0.04731
3611.72463 0.04866
3610.43887 0.04975
3609.15310 0.05017
3607.86733 0.05004
3606.58156 0.04973
3605.29579 0.04944
3604.01002 0.04918
3602.72425 0.04897
3601.43848 0.04893
3600.15272 0.04912
3598.86695 0.04953
3597.58118 0.05003
3596.29541 0.05036
3595.00964 0.05022
3593.72387 0.04959
3592.43810 0.04889
3591.15233 0.04857
3589.86656 0.04861
3588.58080 0.04878
3587.29503 0.04897
3586.00926 0.04929
3584.72349 0.04966
3583.43772 0.04981
3582.15195 0.04954
3580.86618 0.04910
3579.58041 0.04901
3578.29464 0.04958
3577.00888 0.05063
3575.72311 0.05165
3574.43734 0.05220
3573.15157 0.05215
3571.86580 0.05171
3570.58003 0.05127
3569.29426 0.05118
3568.00849 0.05152
3566.72273 0.05217
3565.43696 0.05287
3564.15119 0.05347
3562.86542 0.05391
3561.57965 0.05414
3560.29388 0.05410
3559.00811 0.05385
3557.72234 0.05372
3556.43657 0.05401
3555.15081 0.05468
3553.86504 0.05529
3552.57927 0.05552
3551.29350 0.05538
3550.00773 0.05508
3548.72196 0.05475
3547.43619 0.05454
3546.15042 0.05455
3544.86466 0.05473
3543.57889 0.05476
3542.29312 0.05443
3541.00735 0.05389
3539.72158 0.05356
3538.43581 0.05374
3537.15004 0.05429
3535.86427 0.05474
3534.57850 0.05479
3533.29274 0.05464
3532.00697 0.05489
3530.72120 0.05586
3529.43543 0.05714
3528.14966 0.05793
3526.86389 0.05787
3525.57812 0.05738
3524.29235 0.05718
3523.00659 0.05761
3521.72082 0.05843
3520.43505 0.05915
3519.14928 0.05938
3517.86351 0.05900
3516.57774 0.05819
3515.29197 0.05731
3514.00620 0.05679
3512.72043 0.05676
3511.43467 0.05707
3510.14890 0.05748
3508.86313 0.05792
3507.57736 0.05844
3506.29159 0.05897
3505.00582 0.05930
3503.72005 0.05929
3502.43428 0.05904
3501.14852 0.05882
3499.86275 0.05883
3498.57698 0.05903
3497.29121 0.05908
3496.00544 0.05868
3494.71967 0.05795
3493.43390 0.05743
3492.14813 0.05760
3490.86236 0.05850
3489.57660 0.05963
3488.29083 0.06036
3487.00506 0.06043
3485.71929 0.06018
3484.43352 0.06011
3483.14775 0.06039
3481.86198 0.06071
3480.57621 0.06081
3479.29045 0.06088
3478.00468 0.06120
3476.71891 0.06170
3475.43314 0.06205
3474.14737 0.06204
3472.86160 0.06188
3471.57583 0.06188
3470.29006 0.06212
3469.00429 0.06244
3467.71853 0.06255
3466.43276 0.06236
3465.14699 0.06203
3463.86122 0.06184
3462.57545 0.06190
3461.28968 0.06195
3460.00391 0.06168
3458.71814 0.06103
3457.43238 0.06025
3456.14661 0.05963
3454.86084 0.05928
3453.57507 0.05930
3452.28930 0.05971
3451.00353 0.06048
3449.71776 0.06146
3448.43199 0.06242
3447.14622 0.06307
3445.86046 0.06314
3444.57469 0.06268
3443.28892 0.06210
3442.00315 0.06186
3440.71738 0.06205
3439.43161 0.06242
3438.14584 0.06271
3436.86007 0.06281
3435.57431 0.06280
3434.28854 0.06286
3433.00277 0.06320
3431.71700 0.06388
3430.43123 0.06478
3429.14546 0.06562
3427.85969 0.06605
3426.57392 0.06585
3425.28815 0.06512
3424.00239 0.06422
3422.71662 0.06364
3421.43085 0.06368
3420.14508 0.06429
3418.85931 0.06517
3417.57354 0.06598
3416.28777 0.06654
3415.00200 0.06680
3413.71624 0.06677
3412.43047 0.06649
3411.14470 0.06602
3409.85893 0.06548
3408.57316 0.06510
3407.28739 0.06516
3406.00162 0.06574
3404.71585 0.06658
3403.43008 0.06720
3402.14432 0.06739
3400.85855 0.06744
3399.57278 0.06766
3398.28701 0.06805
3397.00124 0.06826
3395.71547 0.06819
3394.42970 0.06813
3393.14393 0.06841
3391.85817 0.06895
3390.57240 0.06941
3389.28663 0.06960
3388.00086 0.06966
3386.71509 0.06967
3385.42932 0.06946
3384.14355 0.06876
3382.85778 0.06768
3381.57201 0.06669
3380.28625 0.06624
3379.00048 0.06636
3377.71471 0.06674
3376.42894 0.06708
3375.14317 0.06725
3373.85740 0.06734
3372.57163 0.06746
3371.28586 0.06768
3370.00010 0.06794
3368.71433 0.06818
3367.42856 0.06837
3366.14279 0.06847
3364.85702 0.06837
3363.57125 0.06805
3362.28548 0.06773
3360.99971 0.06762
3359.71394 0.06777
3358.42818 0.06802
3357.14241 0.06828
3355.85664 0.06860
3354.57087 0.06898
3353.28510 0.06919
3351.99933 0.06894
3350.71356 0.06824
3349.42779 0.06742
3348.14202 0.06682
3346.85626 0.06662
3345.57049 0.06679
3344.28472 0.06721
3342.99895 0.06772
3341.71318 0.06807
3340.42741 0.06816
3339.14164 0.06807
3337.85587 0.06804
3336.57011 0.06819
3335.28434 0.06844
3333.99857 0.06856
3332.71280 0.06843
3331.42703 0.06825
3330.14126 0.06830
3328.85549 0.06859
3327.56972 0.06886
3326.28395 0.06885
3324.99819 0.06862
3323.71242 0.06846
3322.42665 0.06861
3321.14088 0.06896
3319.85511 0.06926
3318.56934 0.06932
3317.28357 0.06922
3315.99780 0.06914
3314.71204 0.06917
3313.42627 0.06931
3312.14050 0.06951
3310.85473 0.06975
3309.56896 0.07002
3308.28319 0.07020
3306.99742 0.07011
3305.71165 0.06976
3304.42588 0.06944
3303.14012 0.06953
3301.85435 0.07011
3300.56858 0.07084
3299.28281 0.07131
3297.99704 0.07140
3296.71127 0.07128
3295.42550 0.07104
3294.13973 0.07054
3292.85397 0.06974
3291.56820 0.06891
3290.28243 0.06841
3288.99666 0.06833
3287.71089 0.06841
3286.42512 0.06834
3285.13935 0.06803
3283.85358 0.06751
3282.56781 0.06699
3281.28205 0.06680
3279.99628 0.06723
3278.71051 0.06810
3277.42474 0.06884
3276.13897 0.06898
3274.85320 0.06854
3273.56743 0.06797
3272.28166 0.06773
3270.99590 0.06803
3269.71013 0.06869
3268.42436 0.06932
3267.13859 0.06962
3265.85282 0.06961
3264.56705 0.06957
3263.28128 0.06971
3261.99551 0.07006
3260.70974 0.07051
3259.42398 0.07086
3258.13821 0.07084
3256.85244 0.07016
3255.56667 0.06881
3254.28090 0.06720
3252.99513 0.06597
3251.70936 0.06560
3250.42359 0.06600
3249.13783 0.06658
3247.85206 0.06677
3246.56629 0.06650
3245.28052 0.06616
3243.99475 0.06619
3242.70898 0.06667
3241.42321 0.06740
3240.13744 0.06811
3238.85167 0.06857
3237.56591 0.06855
3236.28014 0.06801
3234.99437 0.06722
3233.70860 0.06663
3232.42283 0.06642
3231.13706 0.06635
3229.85129 0.06619
3228.56552 0.06601
3227.27976 0.06605
3225.99399 0.06645
3224.70822 0.06705
3223.42245 0.06750
3222.13668 0.06753
3220.85091 0.06713
3219.56514 0.06652
3218.27937 0.06595
3216.99360 0.06560
3215.70784 0.06558
3214.42207 0.06590
3213.13630 0.06635
3211.85053 0.06654
3210.56476 0.06623
3209.27899 0.06558
3207.99322 0.06496
3206.70745 0.06456
3205.42169 0.06431
3204.13592 0.06409
3202.85015 0.06390
3201.56438 0.06385
3200.27861 0.06402
3198.99284 0.06443
3197.70707 0.06497
3196.42130 0.06540
3195.13553 0.06547
3193.84977 0.06514
3192.56400 0.06457
3191.27823 0.06403
3189.99246 0.06366
3188.70669 0.06346
3187.42092 0.06340
3186.13515 0.06353
3184.84938 0.06393
3183.56362 0.06453
3182.27785 0.06511
3180.99208 0.06540
3179.70631 0.06529
3178.42054 0.06487
3177.13477 0.06429
3175.84900 0.06362
3174.56323 0.06287
3173.27746 0.06211
3171.99170 0.06156
3170.70593 0.06141
3169.42016 0.06160
3168.13439 0.06190
3166.84862 0.06216
3165.56285 0.06231
3164.27708 0.06238
3162.99131 0.06234
3161.70555 0.06217
3160.41978 0.06189
3159.13401 0.06157
3157.84824 0.06126
3156.56247 0.06100
3155.27670 0.06082
3153.99093 0.06078
3152.70516 0.06082
3151.41939 0.06086
3150.13363 0.06090
3148.84786 0.06101
3147.56209 0.06113
3146.27632 0.06106
3144.99055 0.06071
3143.70478 0.06031
3142.41901 0.06019
3141.13324 0.06047
3139.84748 0.06092
3138.56171 0.06120
3137.27594 0.06108
3135.99017 0.06063
3134.70440 0.06013
3133.41863 0.05979
3132.13286 0.05959
3130.84709 0.05940
3129.56132 0.05925
3128.27556 0.05925
3126.98979 0.05939
3125.70402 0.05952
3124.41825 0.05954
3123.13248 0.05945
3121.84671 0.05926
3120.56094 0.05890
3119.27517 0.05838
3117.98940 0.05785
3116.70364 0.05742
3115.41787 0.05715
3114.13210 0.05707
3112.84633 0.05725
3111.56056 0.05765
3110.27479 0.05813
3108.98902 0.05844
3107.70325 0.05847
3106.41749 0.05825
3105.13172 0.05793
3103.84595 0.05759
3102.56018 0.05730
3101.27441 0.05709
3099.98864 0.05702
3098.70287 0.05715
3097.41710 0.05752
3096.13133 0.05801
3094.84557 0.05837
3093.55980 0.05842
3092.27403 0.05815
3090.98826 0.05766
3089.70249 0.05712
3088.41672 0.05677
3087.13095 0.05685
3085.84518 0.05735
3084.55942 0.05787
3083.27365 0.05802
3081.98788 0.05768
3080.70211 0.05714
3079.41634 0.05667
3078.13057 0.05642
3076.84480 0.05640
3075.55903 0.05662
3074.27326 0.05705
3072.98750 0.05759
3071.70173 0.05806
3070.41596 0.05830
3069.13019 0.05826
3067.84442 0.05801
3066.55865 0.05766
3065.27288 0.05727
3063.98711 0.05688
3062.70135 0.05665
3061.41558 0.05673
3060.12981 0.05712
3058.84404 0.05764
3057.55827 0.05801
3056.27250 0.05810
3054.98673 0.05791
3053.70096 0.05747
3052.41519 0.05680
3051.12943 0.05603
3049.84366 0.05543
3048.55789 0.05526
3047.27212 0.05558
3045.98635 0.05612
3044.70058 0.05644
3043.41481 0.05636
3042.12904 0.05610
3040.84328 0.05595
3039.55751 0.05594
3038.27174 0.05583
3036.98597 0.05544
3035.70020 0.05485
3034.41443 0.05434
3033.12866 0.05410
3031.84289 0.05415
3030.55712 0.05433
3029.27136 0.05447
3027.98559 0.05451
3026.69982 0.05444
3025.41405 0.05429
3024.12828 0.05404
3022.84251 0.05371
3021.55674 0.05339
3020.27097 0.05321
3018.98521 0.05329
3017.69944 0.05360
3016.41367 0.05392
3015.12790 0.05401
3013.84213 0.05382
3012.55636 0.05347
3011.27059 0.05312
3009.98482 0.05289
3008.69905 0.05287
3007.41329 0.05309
3006.12752 0.05342
3004.84175 0.05363
3003.55598 0.05365
3002.27021 0.05364
3000.98444 0.05375
2999.69867 0.05393
2998.41290 0.05394
2997.12714 0.05359
2995.84137 0.05304
2994.55560 0.05263
2993.26983 0.05253
2991.98406 0.05264
2990.69829 0.05283
2989.41252 0.05312
2988.12675 0.05353
2986.84098 0.05397
2985.55522 0.05434
2984.26945 0.05460
2982.98368 0.05477
2981.69791 0.05483
2980.41214 0.05475
2979.12637 0.05464
2977.84060 0.05465
2976.55483 0.05485
2975.26907 0.05517
2973.98330 0.05556
2972.69753 0.05603
2971.41176 0.05650
2970.12599 0.05675
2968.84022 0.05664
2967.55445 0.05628
2966.26868 0.05603
2964.98291 0.05612
2963.69715 0.05659
2962.41138 0.05731
2961.12561 0.05813
2959.83984 0.05890
2958.55407 0.05950
2957.26830 0.05991
2955.98253 0.06023
2954.69676 0.06048
2953.41100 0.06049
2952.12523 0.06011
2950.83946 0.05949
2949.55369 0.05897
2948.26792 0.05885
2946.98215 0.05912
2945.69638 0.05963
2944.41061 0.06019
2943.12484 0.06065
2941.83908 0.06096
2940.55331 0.06111
2939.26754 0.06120
2937.98177 0.06130
2936.69600 0.06140
2935.41023 0.06147
2934.12446 0.06158
2932.83869 0.06177
2931.55293 0.06195
2930.26716 0.06204
2928.98139 0.06210
2927.69562 0.06232
2926.40985 0.06274
2925.12408 0.06321
2923.83831 0.06353
2922.55254 0.06359
2921.26677 0.06338
2919.98101 0.06292
2918.69524 0.06237
2917.40947 0.06189
2916.12370 0.06143
2914.83793 0.06084
2913.55216 0.06011
2912.26639 0.05946
2910.98062 0.05908
2909.69486 0.05893
2908.40909 0.05883
2907.12332 0.05873
2905.83755 0.05872
2904.55178 0.05885
2903.26601 0.05890
2901.98024 0.05863
2900.69447 0.05801
2899.40870 0.05731
2898.12294 0.05683
2896.83717 0.05670
2895.55140 0.05690
2894.26563 0.05730
2892.97986 0.05761
2891.69409 0.05755
2890.40832 0.05705
2889.12255 0.05637
2887.83678 0.05584
2886.55102 0.05564
2885.26525 0.05565
2883.97948 0.05560
2882.69371 0.05538
2881.40794 0.05507
2880.12217 0.05489
2878.83640 0.05496
2877.55063 0.05517
2876.26487 0.05531
2874.97910 0.05524
2873.69333 0.05512
2872.40756 0.05520
2871.12179 0.05554
2869.83602 0.05586
2868.55025 0.05584
2867.26448 0.05546
2865.97871 0.05503
2864.69295 0.05483
2863.40718 0.05490
2862.12141 0.05495
2860.83564 0.05480
2859.54987 0.05447
2858.26410 0.05413
2856.97833 0.05387
2855.69256 0.05368
2854.40680 0.05363
2853.12103 0.05369
2851.83526 0.05371
2850.54949 0.05354
2849.26372 0.05318
2847.97795 0.05274
2846.69218 0.05227
2845.40641 0.05188
2844.12064 0.05168
2842.83488 0.05164
2841.54911 0.05158
2840.26334 0.05136
2838.97757 0.05111
2837.69180 0.05098
2836.40603 0.05094
2835.12026 0.05079
2833.83449 0.05040
2832.54873 0.04984
2831.26296 0.04930
2829.97719 0.04888
2828.69142 0.04858
2827.40565 0.04837
2826.11988 0.04816
2824.83411 0.04784
2823.54834 0.04743
2822.26257 0.04709
2820.97681 0.04701
2819.69104 0.04721
2818.40527 0.04748
2817.11950 0.04760
2815.83373 0.04743
2814.54796 0.04704
2813.26219 0.04656
2811.97642 0.04607
2810.69066 0.04563
2809.40489 0.04531
2808.11912 0.04516
2806.83335 0.04517
2805.54758 0.04529
2804.26181 0.04549
2802.97604 0.04573
2801.69027 0.04588
2800.40450 0.04583
2799.11874 0.04557
2797.83297 0.04519
2796.54720 0.04486
2795.26143 0.04474
2793.97566 0.04494
2792.68989 0.04527
2791.40412 0.04544
2790.11835 0.04521
2788.83259 0.04467
2787.54682 0.04410
2786.26105 0.04378
2784.97528 0.04378
2783.68951 0.04402
2782.40374 0.04432
2781.11797 0.04452
2779.83220 0.04452
2778.54643 0.04437
2777.26067 0.04423
2775.97490 0.04421
2774.68913 0.04426
2773.40336 0.04423
2772.11759 0.04410
2770.83182 0.04399
2769.54605 0.04398
2768.26028 0.04400
2766.97452 0.04394
2765.68875 0.04380
2764.40298 0.04362
2763.11721 0.04343
2761.83144 0.04323
2760.54567 0.04307
2759.25990 0.04304
2757.97413 0.04315
2756.68836 0.04331
2755.40260 0.04336
2754.11683 0.04322
2752.83106 0.04297
2751.54529 0.04278
2750.25952 0.04282
2748.97375 0.04303
2747.68798 0.04320
2746.40221 0.04312
2745.11645 0.04280
2743.83068 0.04246
2742.54491 0.04233
2741.25914 0.04247
2739.97337 0.04273
2738.68760 0.04288
2737.40183 0.04283
2736.11606 0.04265
2734.83029 0.04248
2733.54453 0.04243
2732.25876 0.04245
2730.97299 0.04240
2729.68722 0.04215
2728.40145 0.04176
2727.11568 0.04142
2725.82991 0.04130
2724.54414 0.04139
2723.25838 0.04157
2721.97261 0.04171
2720.68684 0.04175
2719.40107 0.04174
2718.11530 0.04170
2716.82953 0.04158
2715.54376 0.04132
2714.25799 0.04092
2712.97222 0.04052
2711.68646 0.04028
2710.40069 0.04026
2709.11492 0.04044
2707.82915 0.04070
2706.54338 0.04091
2705.25761 0.04099
2703.97184 0.04094
2702.68607 0.04086
2701.40031 0.04079
2700.11454 0.04074
2698.82877 0.04062
2697.54300 0.04040
2696.25723 0.04011
2694.97146 0.03984
2693.68569 0.03968
2692.39992 0.03970
2691.11415 0.03988
2689.82839 0.04011
2688.54262 0.04029
2687.25685 0.04038
2685.97108 0.04034
2684.68531 0.04016
2683.39954 0.03984
2682.11377 0.03946
2680.82800 0.03912
2679.54224 0.03894
2678.25647 0.03898
2676.97070 0.03924
2675.68493 0.03962
2674.39916 0.03992
2673.11339 0.04000
2671.82762 0.03987
2670.54185 0.03965
2669.25608 0.03951
2667.97032 0.03955
2666.68455 0.03978
2665.39878 0.04002
2664.11301 0.04007
2662.82724 0.03989
2661.54147 0.03963
2660.25570 0.03943
2658.96993 0.03929
2657.68417 0.03914
2656.39840 0.03898
2655.11263 0.03886
2653.82686 0.03888
2652.54109 0.03903
2651.25532 0.03923
2649.96955 0.03931
2648.68378 0.03920
2647.39801 0.03890
2646.11225 0.03852
2644.82648 0.03816
2643.54071 0.03790
2642.25494 0.03774
2640.96917 0.03766
2639.68340 0.03759
2638.39763 0.03738
2637.11186 0.03695
2635.82609 0.03637
2634.54033 0.03581
2633.25456 0.03548
2631.96879 0.03544
2630.68302 0.03562
2629.39725 0.03587
2628.11148 0.03600
2626.82571 0.03598
2625.53994 0.03587
2624.25418 0.03578
2622.96841 0.03572
2621.68264 0.03565
2620.39687 0.03553
2619.11110 0.03535
2617.82533 0.03510
2616.53956 0.03487
2615.25379 0.03469
2613.96802 0.03454
2612.68226 0.03435
2611.39649 0.03421
2610.11072 0.03425
2608.82495 0.03440
2607.53918 0.03447
2606.25341 0.03439
2604.96764 0.03427
2603.68187 0.03422
2602.39611 0.03417
2601.11034 0.03400
2599.82457 0.03370
2598.53880 0.03341
2597.25303 0.03329
2595.96726 0.03337
2594.68149 0.03348
2593.39572 0.03348
2592.10995 0.03330
2590.82419 0.03288
2589.53842 0.03227
2588.25265 0.03176
2586.96688 0.03159
2585.68111 0.03165
2584.39534 0.03158
2583.10957 0.03128
2581.82380 0.03113
2580.53804 0.03143
2579.25227 0.03205
2577.96650 0.03256
2576.68073 0.03268
2575.39496 0.03241
2574.10919 0.03191
2572.82342 0.03143
2571.53765 0.03117
2570.25188 0.03110
2568.96612 0.03105
2567.68035 0.03089
2566.39458 0.03075
2565.10881 0.03086
2563.82304 0.03126
2562.53727 0.03177
2561.25150 0.03214
2559.96573 0.03212
2558.67997 0.03160
2557.39420 0.03077
2556.10843 0.03011
2554.82266 0.03006
2553.53689 0.03063
2552.25112 0.03136
2550.96535 0.03171
2549.67958 0.03154
2548.39381 0.03123
2547.10805 0.03120
2545.82228 0.03148
2544.53651 0.03171
2543.25074 0.03160
2541.96497 0.03123
2540.67920 0.03081
2539.39343 0.03045
2538.10766 0.03016
2536.82190 0.03000
2535.53613 0.03006
2534.25036 0.03024
2532.96459 0.03028
2531.67882 0.03005
2530.39305 0.02970
2529.10728 0.02950
2527.82151 0.02951
2526.53574 0.02962
2525.24998 0.02973
2523.96421 0.02985
2522.67844 0.02990
2521.39267 0.02978
2520.10690 0.02945
2518.82113 0.02900
2517.53536 0.02859
2516.24959 0.02840
2514.96383 0.02855
2513.67806 0.02901
2512.39229 0.02962
2511.10652 0.03023
2509.82075 0.03080
2508.53498 0.03125
2507.24921 0.03147
2505.96344 0.03142
2504.67767 0.03118
2503.39191 0.03075
2502.10614 0.03004
2500.82037 0.02916
2499.53460 0.02857
2498.24883 0.02864
2496.96306 0.02915
2495.67729 0.02954
2494.39152 0.02947
2493.10576 0.02912
2491.81999 0.02886
2490.53422 0.02889
2489.24845 0.02916
2487.96268 0.02945
2486.67691 0.02951
2485.39114 0.02926
2484.10537 0.02889
2482.81960 0.02872
2481.53384 0.02881
2480.24807 0.02893
2478.96230 0.02885
2477.67653 0.02862
2476.39076 0.02846
2475.10499 0.02842
2473.81922 0.02834
2472.53345 0.02810
2471.24769 0.02785
2469.96192 0.02788
2468.67615 0.02832
2467.39038 0.02893
2466.10461 0.02931
2464.81884 0.02929
2463.53307 0.02909
2462.24730 0.02903
2460.96153 0.02921
2459.67577 0.02945
2458.39000 0.02952
2457.10423 0.02937
2455.81846 0.02918
2454.53269 0.02917
2453.24692 0.02933
2451.96115 0.02946
2450.67538 0.02939
2449.38962 0.02920
2448.10385 0.02910
2446.81808 0.02906
2445.53231 0.02886
2444.24654 0.02842
2442.96077 0.02800
2441.67500 0.02787
2440.38923 0.02800
2439.10346 0.02813
2437.81770 0.02809
2436.53193 0.02801
2435.24616 0.02807
2433.96039 0.02824
2432.67462 0.02838
2431.38885 0.02841
2430.10308 0.02841
2428.81731 0.02847
2427.53155 0.02856
2426.24578 0.02860
2424.96001 0.02852
2423.67424 0.02838
2422.38847 0.02824
2421.10270 0.02815
2419.81693 0.02810
2418.53116 0.02802
2417.24539 0.02782
2415.95963 0.02754
2414.67386 0.02734
2413.38809 0.02738
2412.10232 0.02759
2410.81655 0.02776
2409.53078 0.02775
2408.24501 0.02757
2406.95924 0.02734
2405.67347 0.02719
2404.38771 0.02718
2403.10194 0.02728
2401.81617 0.02742
2400.53040 0.02755
2399.24463 0.02764
2397.95886 0.02762
2396.67309 0.02742
2395.38732 0.02705
2394.10156 0.02665
2392.81579 0.02641
2391.53002 0.02640
2390.24425 0.02654
2388.95848 0.02665
2387.67271 0.02668
2386.38694 0.02676
2385.10117 0.02702
2383.81540 0.02742
2382.52964 0.02778
2381.24387 0.02798
2379.95810 0.02805
2378.67233 0.02818
2377.38656 0.02835
2376.10079 0.02837
2374.81502 0.02817
2373.52925 0.02794
2372.24349 0.02775
2370.95772 0.02753
2369.67195 0.02738
2368.38618 0.02743
2367.10041 0.02771
2365.81464 0.02806
2364.52887 0.02834
2363.24310 0.02848
2361.95733 0.02845
2360.67157 0.02826
2359.38580 0.02793
2358.10003 0.02767
2356.81426 0.02770
2355.52849 0.02798
2354.24272 0.02825
2352.95695 0.02832
2351.67118 0.02825
2350.38542 0.02803
2349.09965 0.02771
2347.81388 0.02755
2346.52811 0.02770
2345.24234 0.02795
2343.95657 0.02808
2342.67080 0.02792
2341.38503 0.02797
2340.09926 0.02814
2338.81350 0.02797
2337.52773 0.02763
2336.24196 0.02773
2334.95619 0.02797
2333.67042 0.02795
2332.38465 0.02769
2331.09888 0.02785
2329.81311 0.02778
2328.52735 0.02772
2327.24158 0.02823
2325.95581 0.02896
2324.67004 0.02954
2323.38427 0.02961
2322.09850 0.02942
2320.81273 0.02891
2319.52696 0.02829
2318.24119 0.02781
2316.95543 0.02763
2315.66966 0.02764
2314.38389 0.02755
2313.09812 0.02729
2311.81235 0.02691
2310.52658 0.02646
2309.24081 0.02612
2307.95504 0.02609
2306.66928 0.02629
2305.38351 0.02651
2304.09774 0.02649
2302.81197 0.02625
2301.52620 0.02601
2300.24043 0.02593
2298.95466 0.02596
2297.66889 0.02587
2296.38312 0.02549
2295.09736 0.02487
2293.81159 0.02424
2292.52582 0.02383
2291.24005 0.02367
2289.95428 0.02364
2288.66851 0.02359
2287.38274 0.02353
2286.09697 0.02355
2284.81121 0.02375
2283.52544 0.02413
2282.23967 0.02458
2280.95390 0.02495
2279.66813 0.02504
2278.38236 0.02474
2277.09659 0.02417
2275.81082 0.02355
2274.52505 0.02302
2273.23929 0.02264
2271.95352 0.02239
2270.66775 0.02220
2269.38198 0.02187
2268.09621 0.02127
2266.81044 0.02052
2265.52467 0.01998
2264.23890 0.01990
2262.95314 0.02029
2261.66737 0.02098
2260.38160 0.02184
2259.09583 0.02273
2257.81006 0.02338
2256.52429 0.02352
2255.23852 0.02311
2253.95275 0.02235
2252.66698 0.02152
2251.38122 0.02077
2250.09545 0.02014
2248.80968 0.01965
2247.52391 0.01938
2246.23814 0.01936
2244.95237 0.01953
2243.66660 0.01975
2242.38083 0.01982
2241.09507 0.01966
2239.80930 0.01929
2238.52353 0.01884
2237.23776 0.01854
2235.95199 0.01858
2234.66622 0.01895
2233.38045 0.01939
2232.09468 0.01961
2230.80891 0.01940
2229.52315 0.01874
2228.23738 0.01795
2226.95161 0.01747
2225.66584 0.01745
2224.38007 0.01749
2223.09430 0.01714
2221.80853 0.01655
2220.52276 0.01616
2219.23700 0.01613
2217.95123 0.01610
2216.66546 0.01576
2215.37969 0.01521
2214.09392 0.01472
2212.80815 0.01429
2211.52238 0.01376
2210.23661 0.01332
2208.95084 0.01356
2207.66508 0.01485
2206.37931 0.01677
2205.09354 0.01829
2203.80777 0.01868
2202.52200 0.01814
2201.23623 0.01748
2199.95046 0.01729
2198.66469 0.01744
2197.37893 0.01754
2196.09316 0.01741
2194.80739 0.01704
2193.52162 0.01627
2192.23585 0.01508
2190.95008 0.01399
2189.66431 0.01382
2188.37854 0.01480
2187.09277 0.01624
2185.80701 0.01702
2184.52124 0.01645
2183.23547 0.01469
2181.94970 0.01254
2180.66393 0.01092
2179.37816 0.01043
2178.09239 0.01103
2176.80662 0.01208
2175.52085 0.01273
2174.23509 0.01267
2172.94932 0.01229
2171.66355 0.01216
2170.37778 0.01247
2169.09201 0.01311
2167.80624 0.01379
2166.52047 0.01407
2165.23470 0.01363
2163.94894 0.01273
2162.66317 0.01195
2161.37740 0.01153
2160.09163 0.01113
2158.80586 0.01049
2157.52009 0.00987
2156.23432 0.00962
2154.94855 0.00972
2153.66278 0.00980
2152.37702 0.00954
2151.09125 0.00900
2149.80548 0.00859
2148.51971 0.00870
2147.23394 0.00940
2145.94817 0.01038
2144.66240 0.01111
2143.37663 0.01130
2142.09087 0.01114
2140.80510 0.01118
2139.51933 0.01178
2138.23356 0.01281
2136.94779 0.01378
2135.66202 0.01422
2134.37625 0.01402
2133.09048 0.01348
2131.80471 0.01316
2130.51895 0.01338
2129.23318 0.01403
2127.94741 0.01492
2126.66164 0.01585
2125.37587 0.01657
2124.09010 0.01675
2122.80433 0.01633
2121.51856 0.01565
2120.23280 0.01520
2118.94703 0.01523
2117.66126 0.01563
2116.37549 0.01618
2115.08972 0.01670
2113.80395 0.01708
2112.51818 0.01727
2111.23241 0.01721
2109.94664 0.01689
2108.66088 0.01639
2107.37511 0.01586
2106.08934 0.01538
2104.80357 0.01489
2103.51780 0.01426
2102.23203 0.01355
2100.94626 0.01306
2099.66049 0.01277
2098.37473 0.01307
2097.08896 0.01349
2095.80319 0.01351
2094.51742 0.01311
2093.23165 0.01269
2091.94588 0.01259
2090.66011 0.01279
2089.37434 0.01311
2088.08857 0.01343
2086.80281 0.01379
2085.51704 0.01424
2084.23127 0.01470
2082.94550 0.01506
2081.65973 0.01519
2080.37396 0.01491
2079.08819 0.01414
2077.80242 0.01303
2076.51666 0.01193
2075.23089 0.01113
2073.94512 0.01069
2072.65935 0.01045
2071.37358 0.01022
2070.08781 0.00994
2068.80204 0.00977
2067.51627 0.01001
2066.23050 0.01070
2064.94474 0.01146
2063.65897 0.01178
2062.37320 0.01140
2061.08743 0.01055
2059.80166 0.00976
2058.51589 0.00943
2057.23012 0.00959
2055.94435 0.00997
2054.65859 0.01032
2053.37282 0.01051
2052.08705 0.01049
2050.80128 0.01014
2049.51551 0.00932
2048.22974 0.00811
2046.94397 0.00681
2045.65820 0.00582
2044.37243 0.00539
2043.08667 0.00552
2041.80090 0.00602
2040.51513 0.00664
2039.22936 0.00712
2037.94359 0.00729
2036.65782 0.00707
2035.37205 0.00661
2034.08628 0.00625
2032.80052 0.00625
2031.51475 0.00649
2030.22898 0.00657
2028.94321 0.00628
2027.65744 0.00585
2026.37167 0.00566
2025.08590 0.00580
2023.80013 0.00601
2022.51436 0.00596
2021.22860 0.00554
2019.94283 0.00488
2018.65706 0.00424
2017.37129 0.00382
2016.08552 0.00373
2014.79975 0.00401
2013.51398 0.00460
2012.22821 0.00542
2010.94245 0.00631
2009.65668 0.00704
2008.37091 0.00736
2007.08514 0.00721
2005.79937 0.00700
2004.51360 0.00724
2003.22783 0.00811
2001.94206 0.00929
2000.65629 0.01022
1999.37053 0.01058
1998.08476 0.01045
1996.79899 0.01020
1995.51322 0.01013
1994.22745 0.01012
1992.94168 0.00988
1991.65591 0.00945
1990.37014 0.00921
1989.08438 0.00930
1987.79861 0.00952
1986.51284 0.00970
1985.22707 0.01002
1983.94130 0.01060
1982.65553 0.01112
1981.36976 0.01107
1980.08399 0.01033
1978.79822 0.00929
1977.51246 0.00840
1976.22669 0.00778
1974.94092 0.00741
1973.65515 0.00748
1972.36938 0.00814
1971.08361 0.00917
1969.79784 0.01007
1968.51207 0.01056
1967.22631 0.01073
1965.94054 0.01081
1964.65477 0.01072
1963.36900 0.01026
1962.08323 0.00954
1960.79746 0.00901
1959.51169 0.00914
1958.22592 0.00993
1956.94015 0.01096
1955.65439 0.01182
1954.36862 0.01240
1953.08285 0.01280
1951.79708 0.01305
1950.51131 0.01313
1949.22554 0.01314
1947.93977 0.01324
1946.65400 0.01358
1945.36823 0.01405
1944.08247 0.01446
1942.79670 0.01468
1941.51093 0.01470
1940.22516 0.01451
1938.93939 0.01410
1937.65362 0.01351
1936.36785 0.01295
1935.08208 0.01259
1933.79632 0.01251
1932.51055 0.01274
1931.22478 0.01318
1929.93901 0.01365
1928.65324 0.01395
1927.36747 0.01408
1926.08170 0.01422
1924.79593 0.01455
1923.51016 0.01501
1922.22440 0.01530
1920.93863 0.01515
1919.65286 0.01458
1918.36709 0.01395
1917.08132 0.01373
1915.79555 0.01406
1914.50978 0.01466
1913.22401 0.01508
1911.93825 0.01508
1910.65248 0.01473
1909.36671 0.01431
1908.08094 0.01404
1906.79517 0.01397
1905.50940 0.01402
1904.22363 0.01412
1902.93786 0.01426
1901.65209 0.01436
1900.36633 0.01434
1899.08056 0.01416
1897.79479 0.01395
1896.50902 0.01389
1895.22325 0.01407
1893.93748 0.01449
1892.65171 0.01501
1891.36594 0.01541
1890.08018 0.01548
1888.79441 0.01516
1887.50864 0.01467
1886.22287 0.01432
1884.93710 0.01430
1883.65133 0.01458
1882.36556 0.01495
1881.07979 0.01524
1879.79402 0.01538
1878.50826 0.01542
1877.22249 0.01542
1875.93672 0.01540
1874.65095 0.01540
1873.36518 0.01542
1872.07941 0.01542
1870.79364 0.01532
1869.50787 0.01508
1868.22211 0.01483
1866.93634 0.01468
1865.65057 0.01467
1864.36480 0.01467
1863.07903 0.01464
1861.79326 0.01464
1860.50749 0.01474
1859.22172 0.01494
1857.93595 0.01517
1856.65019 0.01536
1855.36442 0.01546
1854.07865 0.01542
1852.79288 0.01525
1851.50711 0.01503
1850.22134 0.01491
1848.93557 0.01494
1847.64980 0.01504
1846.36404 0.01508
1845.07827 0.01497
1843.79250 0.01479
1842.50673 0.01466
1841.22096 0.01467
1839.93519 0.01479
1838.64942 0.01492
1837.36365 0.01500
1836.07788 0.01506
1834.79212 0.01515
1833.50635 0.01529
1832.22058 0.01544
1830.93481 0.01553
1829.64904 0.01552
1828.36327 0.01543
1827.07750 0.01532
1825.79173 0.01524
1824.50597 0.01519
1823.22020 0.01515
1821.93443 0.01513
1820.64866 0.01519
1819.36289 0.01538
1818.07712 0.01565
1816.79135 0.01584
1815.50558 0.01588
1814.21981 0.01579
1812.93405 0.01567
1811.64828 0.01560
1810.36251 0.01561
1809.07674 0.01573
1807.79097 0.01592
1806.50520 0.01613
1805.21943 0.01622
1803.93366 0.01613
1802.64790 0.01589
1801.36213 0.01566
1800.07636 0.01555
1798.79059 0.01553
1797.50482 0.01547
1796.21905 0.01537
1794.93328 0.01533
1793.64751 0.01546
1792.36174 0.01574
1791.07598 0.01599
1789.79021 0.01612
1788.50444 0.01615
1787.21867 0.01617
1785.93290 0.01619
1784.64713 0.01621
1783.36136 0.01619
1782.07559 0.01615
1780.78983 0.01612
1779.50406 0.01610
1778.21829 0.01609
1776.93252 0.01610
1775.64675 0.01615
1774.36098 0.01624
1773.07521 0.01632
1771.78944 0.01636
1770.50367 0.01638
1769.21791 0.01639
1767.93214 0.01640
1766.64637 0.01640
1765.36060 0.01642
1764.07483 0.01651
1762.78906 0.01665
1761.50329 0.01676
1760.21752 0.01677
1758.93176 0.01668
1757.64599 0.01657
1756.36022 0.01653
1755.07445 0.01660
1753.78868 0.01671
1752.50291 0.01679
1751.21714 0.01680
1749.93137 0.01674
1748.64560 0.01666
1747.35984 0.01654
1746.07407 0.01643
1744.78830 0.01637
1743.50253 0.01637
1742.21676 0.01640
1740.93099 0.01641
1739.64522 0.01640
1738.35945 0.01642
1737.07369 0.01652
1735.78792 0.01668
1734.50215 0.01683
1733.21638 0.01694
1731.93061 0.01699
1730.64484 0.01701
1729.35907 0.01705
1728.07330 0.01717
1726.78753 0.01736
1725.50177 0.01755
1724.21600 0.01771
1722.93023 0.01786
1721.64446 0.01803
1720.35869 0.01821
1719.07292 0.01838
1717.78715 0.01856
1716.50138 0.01876
1715.21561 0.01902
1713.92985 0.01930
1712.64408 0.01961
1711.35831 0.01994
1710.07254 0.02034
1708.78677 0.02079
1707.50100 0.02126
1706.21523 0.02176
1704.92946 0.02232
1703.64370 0.02299
1702.35793 0.02375
1701.07216 0.02457
1699.78639 0.02536
1698.50062 0.02609
1697.21485 0.02678
1695.92908 0.02747
1694.64331 0.02818
1693.35754 0.02892
1692.07178 0.02965
1690.78601 0.03038
1689.50024 0.03111
1688.21447 0.03187
1686.92870 0.03265
1685.64293 0.03342
1684.35716 0.03418
1683.07139 0.03495
1681.78563 0.03572
1680.49986 0.03648
1679.21409 0.03721
1677.92832 0.03789
1676.64255 0.03855
1675.35678 0.03924
1674.07101 0.03995
1672.78524 0.04067
1671.49947 0.04136
1670.21371 0.04201
1668.92794 0.04268
1667.64217 0.04338
1666.35640 0.04412
1665.07063 0.04487
1663.78486 0.04556
1662.49909 0.04622
1661.21332 0.04685
1659.92756 0.04747
1658.64179 0.04805
1657.35602 0.04857
1656.07025 0.04907
1654.78448 0.04957
1653.49871 0.05002
1652.21294 0.05036
1650.92717 0.05059
1649.64140 0.05075
1648.35564 0.05092
1647.06987 0.05110
1645.78410 0.05127
1644.49833 0.05141
1643.21256 0.05155
1641.92679 0.05169
1640.64102 0.05178
1639.35525 0.05177
1638.06949 0.05165
1636.78372 0.05146
1635.49795 0.05122
1634.21218 0.05096
1632.92641 0.05067
1631.64064 0.05034
1630.35487 0.05002
1629.06910 0.04973
1627.78333 0.04948
1626.49757 0.04923
1625.21180 0.04893
1623.92603 0.04857
1622.64026 0.04819
1621.35449 0.04786
1620.06872 0.04763
1618.78295 0.04749
1617.49718 0.04740
1616.21142 0.04731
1614.92565 0.04722
1613.63988 0.04714
1612.35411 0.04710
1611.06834 0.04707
1609.78257 0.04704
1608.49680 0.04699
1607.21103 0.04697
1605.92526 0.04702
1604.63950 0.04714
1603.35373 0.04732
1602.06796 0.04752
1600.78219 0.04772
1599.49642 0.04788
1598.21065 0.04801
1596.92488 0.04815
1595.63911 0.04831
1594.35335 0.04849
1593.06758 0.04869
1591.78181 0.04893
1590.49604 0.04922
1589.21027 0.04953
1587.92450 0.04980
1586.63873 0.05002
1585.35296 0.05025
1584.06719 0.05053
1582.78143 0.05087
1581.49566 0.05125
1580.20989 0.05162
1578.92412 0.05197
1577.63835 0.05229
1576.35258 0.05257
1575.06681 0.05283
1573.78104 0.05309
1572.49528 0.05339
1571.20951 0.05373
1569.92374 0.05411
1568.63797 0.05447
1567.35220 0.05478
1566.06643 0.05501
1564.78066 0.05520
1563.49489 0.05537
1562.20912 0.05552
1560.92336 0.05569
1559.63759 0.05589
1558.35182 0.05609
1557.06605 0.05624
1555.78028 0.05633
1554.49451 0.05638
1553.20874 0.05641
1551.92297 0.05643
1550.63721 0.05643
1549.35144 0.05636
1548.06567 0.05622
1546.77990 0.05602
1545.49413 0.05579
1544.20836 0.05555
1542.92259 0.05532
1541.63682 0.05509
1540.35105 0.05481
1539.06529 0.05446
1537.77952 0.05406
1536.49375 0.05370
1535.20798 0.05340
1533.92221 0.05316
1532.63644 0.05296
1531.35067 0.05282
1530.06490 0.05275
1528.77914 0.05276
1527.49337 0.05282
1526.20760 0.05293
1524.92183 0.05308
1523.63606 0.05326
1522.35029 0.05346
1521.06452 0.05368
1519.77875 0.05397
1518.49298 0.05432
1517.20722 0.05472
1515.92145 0.05510
1514.63568 0.05547
1513.34991 0.05589
1512.06414 0.05640
1510.77837 0.05698
1509.49260 0.05759
1508.20683 0.05814
1506.92107 0.05863
1505.63530 0.05905
1504.34953 0.05946
1503.06376 0.05991
1501.77799 0.06039
1500.49222 0.06085
1499.20645 0.06121
1497.92068 0.06149
1496.63491 0.06173
1495.34915 0.06196
1494.06338 0.06220
1492.77761 0.06243
1491.49184 0.06267
1490.20607 0.06295
1488.92030 0.06328
1487.63453 0.06366
1486.34876 0.06410
1485.06299 0.06460
1483.77723 0.06513
1482.49146 0.06570
1481.20569 0.06633
1479.91992 0.06706
1478.63415 0.06789
1477.34838 0.06876
1476.06261 0.06960
1474.77684 0.07036
1473.49108 0.07100
1472.20531 0.07155
1470.91954 0.07205
1469.63377 0.07256
1468.34800 0.07313
1467.06223 0.07371
1465.77646 0.07426
1464.49069 0.07475
1463.20492 0.07522
1461.91916 0.07573
1460.63339 0.07632
1459.34762 0.07700
1458.06185 0.07772
1456.77608 0.07844
1455.49031 0.07912
1454.20454 0.07974
1452.91877 0.08029
1451.63301 0.08077
1450.34724 0.08117
1449.06147 0.08151
1447.77570 0.08176
1446.48993 0.08189
1445.20416 0.08193
1443.91839 0.08191
1442.63262 0.08188
1441.34685 0.08181
1440.06109 0.08172
1438.77532 0.08164
1437.48955 0.08162
1436.20378 0.08171
1434.91801 0.08194
1433.63224 0.08234
1432.34647 0.08289
1431.06070 0.08357
1429.77494 0.08430
1428.48917 0.08503
1427.20340 0.08578
1425.91763 0.08657
1424.63186 0.08743
1423.34609 0.08835
1422.06032 0.08927
1420.77455 0.09012
1419.48878 0.09087
1418.20302 0.09153
1416.91725 0.09211
1415.63148 0.09261
1414.34571 0.09299
1413.05994 0.09321
1411.77417 0.09324
1410.48840 0.09306
1409.20263 0.09268
1407.91687 0.09213
1406.63110 0.09145
1405.34533 0.09065
1404.05956 0.08972
1402.77379 0.08864
1401.48802 0.08740
1400.20225 0.08604
1398.91648 0.08458
1397.63071 0.08305
1396.34495 0.08148
1395.05918 0.07991
1393.77341 0.07838
1392.48764 0.07693
1391.20187 0.07553
1389.91610 0.07415
1388.63033 0.07274
1387.34456 0.07132
1386.05880 0.06990
1384.77303 0.06847
1383.48726 0.06706
1382.20149 0.06569
1380.91572 0.06439
1379.62995 0.06314
1378.34418 0.06184
1377.05841 0.06046
1375.77264 0.05898
1374.48688 0.05746
1373.20111 0.05595
1371.91534 0.05449
1370.62957 0.05310
1369.34380 0.05178
1368.05803 0.05054
1366.77226 0.04938
1365.48649 0.04829
1364.20073 0.04727
1362.91496 0.04633
1361.62919 0.04545
1360.34342 0.04460
1359.05765 0.04377
1357.77188 0.04297
1356.48611 0.04224
1355.20034 0.04160
1353.91457 0.04105
1352.62881 0.04057
1351.34304 0.04014
1350.05727 0.03974
1348.77150 0.03933
1347.48573 0.03889
1346.19996 0.03842
1344.91419 0.03795
1343.62842 0.03752
1342.34266 0.03714
1341.05689 0.03680
1339.77112 0.03645
1338.48535 0.03608
1337.19958 0.03568
1335.91381 0.03526
1334.62804 0.03483
1333.34227 0.03440
1332.05650 0.03398
1330.77074 0.03359
1329.48497 0.03323
1328.19920 0.03289
1326.91343 0.03258
1325.62766 0.03231
1324.34189 0.03207
1323.05612 0.03184
1321.77035 0.03156
1320.48459 0.03122
1319.19882 0.03085
1317.91305 0.03048
1316.62728 0.03013
1315.34151 0.02983
1314.05574 0.02959
1312.76997 0.02938
1311.48420 0.02916
1310.19843 0.02891
1308.91267 0.02866
1307.62690 0.02844
1306.34113 0.02824
1305.05536 0.02806
1303.76959 0.02787
1302.48382 0.02769
1301.19805 0.02753
1299.91228 0.02737
1298.62652 0.02719
1297.34075 0.02696
1296.05498 0.02671
1294.76921 0.02646
1293.48344 0.02623
1292.19767 0.02603
1290.91190 0.02587
1289.62613 0.02574
1288.34036 0.02563
1287.05460 0.02554
1285.76883 0.02549
1284.48306 0.02545
1283.19729 0.02537
1281.91152 0.02524
1280.62575 0.02512
1279.33998 0.02506
1278.05421 0.02506
1276.76845 0.02506
1275.48268 0.02501
1274.19691 0.02490
1272.91114 0.02478
1271.62537 0.02466
1270.33960 0.02453
1269.05383 0.02438
1267.76806 0.02423
1266.48229 0.02412
1265.19653 0.02407
1263.91076 0.02405
1262.62499 0.02405
1261.33922 0.02404
1260.05345 0.02403
1258.76768 0.02404
1257.48191 0.02404
1256.19614 0.02401
1254.91037 0.02395
1253.62461 0.02387
1252.33884 0.02380
1251.05307 0.02375
1249.76730 0.02370
1248.48153 0.02366
1247.19576 0.02363
1245.90999 0.02357
1244.62422 0.02350
1243.33846 0.02341
1242.05269 0.02336
1240.76692 0.02337
1239.48115 0.02340
1238.19538 0.02340
1236.90961 0.02332
1235.62384 0.02318
1234.33807 0.02302
1233.05230 0.02284
1231.76654 0.02268
1230.48077 0.02254
1229.19500 0.02240
1227.90923 0.02230
1226.62346 0.02222
1225.33769 0.02216
1224.05192 0.02208
1222.76615 0.02196
1221.48039 0.02182
1220.19462 0.02168
1218.90885 0.02153
1217.62308 0.02134
1216.33731 0.02111
1215.05154 0.02085
1213.76577 0.02063
1212.48000 0.02048
1211.19423 0.02041
1209.90847 0.02036
1208.62270 0.02028
1207.33693 0.02018
1206.05116 0.02008
1204.76539 0.02001
1203.47962 0.01996
1202.19385 0.01992
1200.90808 0.01990
1199.62232 0.01989
1198.33655 0.01984
1197.05078 0.01976
1195.76501 0.01967
1194.47924 0.01957
1193.19347 0.01946
1191.90770 0.01936
1190.62193 0.01925
1189.33616 0.01909
1188.05040 0.01889
1186.76463 0.01871
1185.47886 0.01857
1184.19309 0.01851
1182.90732 0.01850
1181.62155 0.01852
1180.33578 0.01852
1179.05001 0.01846
1177.76425 0.01837
1176.47848 0.01832
1175.19271 0.01832
1173.90694 0.01839
1172.62117 0.01852
1171.33540 0.01870
1170.04963 0.01891
1168.76386 0.01908
1167.47809 0.01919
1166.19233 0.01926
1164.90656 0.01933
1163.62079 0.01943
1162.33502 0.01955
1161.04925 0.01967
1159.76348 0.01981
1158.47771 0.01999
1157.19194 0.02022
1155.90618 0.02044
1154.62041 0.02063
1153.33464 0.02077
1152.04887 0.02088
1150.76310 0.02102
1149.47733 0.02126
1148.19156 0.02163
1146.90579 0.02213
1145.62002 0.02273
1144.33426 0.02340
1143.04849 0.02411
1141.76272 0.02484
1140.47695 0.02559
1139.19118 0.02636
1137.90541 0.02719
1136.61964 0.02810
1135.33387 0.02909
1134.04811 0.03022
1132.76234 0.03156
1131.47657 0.03316
1130.19080 0.03502
1128.90503 0.03711
1127.61926 0.03936
1126.33349 0.04172
1125.04772 0.04417
1123.76195 0.04668
1122.47619 0.04928
1121.19042 0.05200
1119.90465 0.05486
1118.61888 0.05781
1117.33311 0.06079
1116.04734 0.06377
1114.76157 0.06674
1113.47580 0.06967
1112.19004 0.07252
1110.90427 0.07527
1109.61850 0.07795
1108.33273 0.08059
1107.04696 0.08321
1105.76119 0.08578
1104.47542 0.08830
1103.18965 0.09075
1101.90388 0.09314
1100.61812 0.09548
1099.33235 0.09776
1098.04658 0.09993
1096.76081 0.10198
1095.47504 0.10388
1094.18927 0.10563
1092.90350 0.10723
1091.61773 0.10869
1090.33197 0.11006
1089.04620 0.11140
1087.76043 0.11278
1086.47466 0.11423
1085.18889 0.11572
1083.90312 0.11721
1082.61735 0.11875
1081.33158 0.12041
1080.04581 0.12224
1078.76005 0.12426
1077.47428 0.12645
1076.18851 0.12876
1074.90274 0.13115
1073.61697 0.13358
1072.33120 0.13603
1071.04543 0.13849
1069.75966 0.14100
1068.47390 0.14360
1067.18813 0.14631
1065.90236 0.14909
1064.61659 0.15192
1063.33082 0.15475
1062.04505 0.15758
1060.75928 0.16042
1059.47351 0.16327
1058.18774 0.16607
1056.90198 0.16881
1055.61621 0.17147
1054.33044 0.17405
1053.04467 0.17657
1051.75890 0.17908
1050.47313 0.18168
1049.18736 0.18441
1047.90159 0.18725
1046.61583 0.19018
1045.33006 0.19316
1044.04429 0.19619
1042.75852 0.19925
1041.47275 0.20233
1040.18698 0.20542
1038.90121 0.20852
1037.61544 0.21160
1036.32967 0.21460
1035.04391 0.21748
1033.75814 0.22020
1032.47237 0.22275
1031.18660 0.22511
1029.90083 0.22726
1028.61506 0.22917
1027.32929 0.23082
1026.04352 0.23217
1024.75775 0.23318
1023.47199 0.23385
1022.18622 0.23413
1020.90045 0.23402
1019.61468 0.23350
1018.32891 0.23259
1017.04314 0.23133
1015.75737 0.22975
1014.47160 0.22784
1013.18584 0.22557
1011.90007 0.22293
1010.61430 0.21993
1009.32853 0.21661
1008.04276 0.21300
1006.75699 0.20904
1005.47122 0.20468
1004.18545 0.19993
1002.89968 0.19491
1001.61392 0.18977
1000.32815 0.18460
999.04238 0.17936
997.75661 0.17400
996.47084 0.16857
995.18507 0.16314
993.89930 0.15772
992.61353 0.15230
991.32777 0.14690
990.04200 0.14167
988.75623 0.13669
987.47046 0.13193
986.18469 0.12730
984.89892 0.12278
983.61315 0.11843
982.32738 0.11431
981.04161 0.11041
979.75585 0.10673
978.47008 0.10327
977.18431 0.10008
975.89854 0.09721
974.61277 0.09470
973.32700 0.09257
972.04123 0.09085
970.75546 0.08952
969.46970 0.08857
968.18393 0.08802
966.89816 0.08792
965.61239 0.08824
964.32662 0.08884
963.04085 0.08943
961.75508 0.08977
960.46931 0.08973
959.18354 0.08921
957.89778 0.08821
956.61201 0.08678
955.32624 0.08504
954.04047 0.08310
952.75470 0.08109
951.46893 0.07908
950.18316 0.07716
948.89739 0.07539
947.61163 0.07372
946.32586 0.07207
945.04009 0.07039
943.75432 0.06873
942.46855 0.06714
941.18278 0.06562
939.89701 0.06416
938.61124 0.06274
937.32547 0.06139
936.03971 0.06012
934.75394 0.05896
933.46817 0.05791
932.18240 0.05696
930.89663 0.05605
929.61086 0.05512
928.32509 0.05414
927.03932 0.05315
925.75356 0.05221
924.46779 0.05136
923.18202 0.05062
921.89625 0.04999
920.61048 0.04945
919.32471 0.04896
918.03894 0.04849
916.75317 0.04800
915.46740 0.04745
914.18164 0.04682
912.89587 0.04614
911.61010 0.04544
910.32433 0.04477
909.03856 0.04418
907.75279 0.04373
906.46702 0.04342
905.18125 0.04318
903.89549 0.04290
902.60972 0.04256
901.32395 0.04218
900.03818 0.04180
898.75241 0.04144
897.46664 0.04110
896.18087 0.04084
894.89510 0.04072
893.60933 0.04072
892.32357 0.04075
891.03780 0.04070
889.75203 0.04057
888.46626 0.04051
887.18049 0.04070
885.89472 0.04133
884.60895 0.04246
883.32318 0.04404
882.03742 0.04594
880.75165 0.04792
879.46588 0.04975
878.18011 0.05126
876.89434 0.05248
875.60857 0.05360
874.32280 0.05476
873.03703 0.05584
871.75126 0.05652
870.46550 0.05652
869.17973 0.05583
867.89396 0.05465
866.60819 0.05318
865.32242 0.05154
864.03665 0.04981
862.75088 0.04805
861.46511 0.04637
860.17935 0.04488
858.89358 0.04362
857.60781 0.04260
856.32204 0.04177
855.03627 0.04110
853.75050 0.04053
852.46473 0.03999
851.17896 0.03942
849.89319 0.03882
848.60743 0.03825
847.32166 0.03780
846.03589 0.03744
844.75012 0.03713
843.46435 0.03681
842.17858 0.03649
840.89281 0.03618
839.60704 0.03591
838.32128 0.03569
837.03551 0.03556
835.74974 0.03552
834.46397 0.03553
833.17820 0.03550
831.89243 0.03539
830.60666 0.03515
829.32089 0.03483
828.03512 0.03452
826.74936 0.03430
825.46359 0.03417
824.17782 0.03409
822.89205 0.03401
821.60628 0.03393
820.32051 0.03384
819.03474 0.03373
817.74897 0.03366
816.46321 0.03365
815.17744 0.03368
813.89167 0.03370
812.60590 0.03366
811.32013 0.03355
810.03436 0.03337
808.74859 0.03317
807.46282 0.03300
806.17705 0.03290
804.89129 0.03287
803.60552 0.03288
802.31975 0.03291
801.03398 0.03293
799.74821 0.03292
798.46244 0.03292
797.17667 0.03292
795.89090 0.03290
794.60513 0.03286
793.31937 0.03282
792.03360 0.03283
790.74783 0.03282
789.46206 0.03274
788.17629 0.03257
786.89052 0.03237
785.60475 0.03221
784.31898 0.03214
783.03322 0.03212
781.74745 0.03212
780.46168 0.03215
779.17591 0.03225
777.89014 0.03242
776.60437 0.03257
775.31860 0.03260
774.03283 0.03252
772.74706 0.03243
771.46130 0.03239
770.17553 0.03239
768.88976 0.03240
767.60399 0.03239
766.31822 0.03236
765.03245 0.03231
763.74668 0.03223
762.46091 0.03215
761.17515 0.03211
759.88938 0.03215
758.60361 0.03228
757.31784 0.03242
756.03207 0.03250
754.74630 0.03252
753.46053 0.03250
752.17476 0.03242
750.88899 0.03230
749.60323 0.03217
748.31746 0.03208
747.03169 0.03203
745.74592 0.03198
744.46015 0.03194
743.17438 0.03194
741.88861 0.03199
740.60284 0.03204
739.31708 0.03203
738.03131 0.03193
736.74554 0.03178
735.45977 0.03163
734.17400 0.03150
732.88823 0.03136
731.60246 0.03127
730.31669 0.03129
729.03092 0.03145
727.74516 0.03169
726.45939 0.03188
725.17362 0.03192
723.88785 0.03182
722.60208 0.03166
721.31631 0.03154
720.03054 0.03149
718.74477 0.03151
717.45901 0.03154
716.17324 0.03157
714.88747 0.03161
713.60170 0.03164
712.31593 0.03165
711.03016 0.03161
709.74439 0.03154
708.45862 0.03146
707.17285 0.03140
705.88709 0.03138
704.60132 0.03139
703.31555 0.03143
702.02978 0.03147
700.74401 0.03148
699.45824 0.03146
698.17247 0.03142
696.88670 0.03137
695.60094 0.03133
694.31517 0.03133
693.02940 0.03132
691.74363 0.03129
690.45786 0.03122
689.17209 0.03115
687.88632 0.03112
686.60055 0.03111
685.31478 0.03111
684.02902 0.03109
682.74325 0.03107
681.45748 0.03105
680.17171 0.03102
678.88594 0.03097
677.60017 0.03090
676.31440 0.03088
675.02863 0.03097
673.74287 0.03116
672.45710 0.03142
671.17133 0.03167
669.88556 0.03188
668.59979 0.03200
667.31402 0.03202
666.02825 0.03193
664.74248 0.03175
663.45671 0.03156
662.17095 0.03139
660.88518 0.03125
659.59941 0.03110
658.31364 0.03093
657.02787 0.03075
655.74210 0.03061
654.45633 0.03052
653.17056 0.03046
651.88480 0.03037
650.59903 0.03022
649.31326 0.03003
648.02749 0.02985
646.74172 0.02973
645.45595 0.02968
644.17018 0.02966
642.88441 0.02970
641.59864 0.02982
640.31288 0.03000
639.02711 0.03016
637.74134 0.03023
636.45557 0.03024
635.16980 0.03029
633.88403 0.03050
632.59826 0.03088
631.31249 0.03133
630.02673 0.03160
628.74096 0.03177
627.45519 0.03269
626.16942 0.03291
624.88365 0.03261
623.59788 0.03248
622.31211 0.03318
621.02634 0.03515
619.74057 0.03791
618.45481 0.04041
617.16904 0.04228
615.88327 0.04423
614.59750 0.04726
613.31173 0.05177
612.02596 0.05734
610.74019 0.06307
609.45442 0.06814
608.16866 0.07241
606.88289 0.07629
605.59712 0.07996
604.31135 0.08316
603.02558 0.08552
601.73981 0.08690
600.45404 0.08723
599.16827 0.08639
597.88250 0.08443
596.59674 0.08175
595.31097 0.07894
594.02520 0.07654
592.73943 0.07478
591.45366 0.07362
590.16789 0.07295
588.88212 0.07274
587.59635 0.07302
586.31059 0.07385
585.02482 0.07523
583.73905 0.07707
582.45328 0.07924
581.16751 0.08163
579.88174 0.08409
578.59597 0.08653
577.31020 0.08890
576.02443 0.09113
574.73867 0.09311
573.45290 0.09481
572.16713 0.09643
570.88136 0.09832
569.59559 0.10080
568.30982 0.10398
567.02405 0.10766
565.73828 0.11143
564.45251 0.11477
563.16675 0.11724
561.88098 0.11846
560.59521 0.11819
559.30944 0.11633
558.02367 0.11298
556.73790 0.10851
555.45213 0.10341
554.16636 0.09808
552.88060 0.09279
551.59483 0.08771
550.30906 0.08299
549.02329 0.07878
547.73752 0.07511
546.45175 0.07186
545.16598 0.06888
543.88021 0.06609
542.59444 0.06354
541.30868 0.06121
540.02291 0.05907
538.73714 0.05712
537.45137 0.05545
536.16560 0.05412
534.87983 0.05298
533.59406 0.05185
532.30829 0.05062
531.02253 0.04937
529.73676 0.04820
528.45099 0.04715
527.16522 0.04618
525.87945 0.04525
524.59368 0.04437
523.30791 0.04356
522.02214 0.04278
520.73637 0.04200
519.45061 0.04121
518.16484 0.04045
516.87907 0.03980
515.59330 0.03927
514.30753 0.03877
513.02176 0.03817
511.73599 0.03749
510.45022 0.03679
509.16446 0.03615
507.87869 0.03556
506.59292 0.03501
505.30715 0.03452
504.02138 0.03415
502.73561 0.03391
501.44984 0.03372
500.16407 0.03352
498.87830 0.03326
497.59254 0.03292
496.30677 0.03255
495.02100 0.03221
493.73523 0.03194
492.44946 0.03172
491.16369 0.03146
489.87792 0.03110
488.59215 0.03065
487.30639 0.03027
486.02062 0.03011
484.73485 0.03020
483.44908 0.03045
482.16331 0.03071
480.87754 0.03086
479.59177 0.03091
478.30600 0.03093
477.02023 0.03100
475.73447 0.03113
474.44870 0.03125
473.16293 0.03133
471.87716 0.03133
470.59139 0.03128
469.30562 0.03116
468.01985 0.03099
466.73408 0.03079
465.44832 0.03057
464.16255 0.03033
462.87678 0.03004
461.59101 0.02971
460.30524 0.02937
459.01947 0.02905
457.73370 0.02876
456.44793 0.02846
455.16216 0.02813
453.87640 0.02781
452.59063 0.02755
451.30486 0.02737
450.01909 0.02723
448.73332 0.02702
447.44755 0.02671
446.16178 0.02636
444.87601 0.02606
443.59025 0.02583
442.30448 0.02560
441.01871 0.02534
439.73294 0.02510
438.44717 0.02496
437.16140 0.02493
435.87563 0.02495
434.58986 0.02496
433.30409 0.02492
432.01833 0.02488
430.73256 0.02483
429.44679 0.02474
428.16102 0.02460
426.87525 0.02442
425.58948 0.02425
424.30371 0.02410
423.01794 0.02400
421.73218 0.02393
420.44641 0.02387
419.16064 0.02379
417.87487 0.02366
416.58910 0.02351
415.30333 0.02337
414.01756 0.02327
412.73179 0.02322
411.44602 0.02317
410.16026 0.02312
408.87449 0.02307
407.58872 0.02308
406.30295 0.02316
405.01718 0.02331
403.73141 0.02348
402.44564 0.02362
401.15987 0.02368
399.87411 0.02368
