3997.45528 0.01575
3996.16951 0.01679
3994.88374 0.01735
3993.59798 0.01701
3992.31221 0.01612
3991.02644 0.01531
3989.74067 0.01480
3988.45490 0.01440
3987.16913 0.01394
3985.88336 0.01348
3984.59759 0.01312
3983.31183 0.01295
3982.02606 0.01299
3980.74029 0.01312
3979.45452 0.01316
3978.16875 0.01307
3976.88298 0.01302
3975.59721 0.01315
3974.31144 0.01337
3973.02567 0.01339
3971.73991 0.01307
3970.45414 0.01266
3969.16837 0.01261
3967.88260 0.01320
3966.59683 0.01444
3965.31106 0.01609
3964.02529 0.01777
3962.73952 0.01888
3961.45376 0.01902
3960.16799 0.01829
3958.88222 0.01713
3957.59645 0.01587
3956.31068 0.01465
3955.02491 0.01379
3953.73914 0.01376
3952.45337 0.01474
3951.16760 0.01617
3949.88184 0.01702
3948.59607 0.01656
3947.31030 0.01502
3946.02453 0.01347
3944.73876 0.01292
3943.45299 0.01351
3942.16722 0.01463
3940.88145 0.01565
3939.59569 0.01641
3938.30992 0.01700
3937.02415 0.01751
3935.73838 0.01785
3934.45261 0.01784
3933.16684 0.01742
3931.88107 0.01677
3930.59530 0.01617
3929.30953 0.01576
3928.02377 0.01544
3926.73800 0.01515
3925.45223 0.01497
3924.16646 0.01499
3922.88069 0.01509
3921.59492 0.01502
3920.30915 0.01472
3919.02338 0.01428
3917.73762 0.01383
3916.45185 0.01349
3915.16608 0.01332
3913.88031 0.01322
3912.59454 0.01298
3911.30877 0.01260
3910.02300 0.01236
3908.73723 0.01238
3907.45146 0.01243
3906.16570 0.01220
3904.87993 0.01177
3903.59416 0.01154
3902.30839 0.01177
3901.02262 0.01246
3899.73685 0.01345
3898.45108 0.01449
3897.16531 0.01534
3895.87955 0.01604
3894.59378 0.01689
3893.30801 0.01797
3892.02224 0.01886
3890.73647 0.01894
3889.45070 0.01810
3888.16493 0.01676
3886.87916 0.01551
3885.59339 0.01470
3884.30763 0.01451
3883.02186 0.01485
3881.73609 0.01531
3880.45032 0.01543
3879.16455 0.01501
3877.87878 0.01411
3876.59301 0.01285
3875.30724 0.01155
3874.02148 0.01090
3872.73571 0.01156
3871.44994 0.01346
3870.16417 0.01555
3868.87840 0.01662
3867.59263 0.01624
3866.30686 0.01502
3865.02109 0.01394
3863.73532 0.01354
3862.44956 0.01364
3861.16379 0.01376
3859.87802 0.01368
3858.59225 0.01359
3857.30648 0.01376
3856.02071 0.01421
3854.73494 0.01472
3853.44917 0.01505
3852.16341 0.01514
3850.87764 0.01509
3849.59187 0.01500
3848.30610 0.01495
3847.02033 0.01502
3845.73456 0.01534
3844.44879 0.01591
3843.16302 0.01654
3841.87725 0.01688
3840.59149 0.01662
3839.30572 0.01558
3838.01995 0.01391
3836.73418 0.01216
3835.44841 0.01118
3834.16264 0.01152
3832.87687 0.01299
3831.59110 0.01475
3830.30534 0.01600
3829.01957 0.01646
3827.73380 0.01625
3826.44803 0.01560
3825.16226 0.01465
3823.87649 0.01355
3822.59072 0.01257
3821.30495 0.01211
3820.01918 0.01252
3818.73342 0.01372
3817.44765 0.01505
3816.16188 0.01583
3814.87611 0.01594
3813.59034 0.01587
3812.30457 0.01604
3811.01880 0.01637
3809.73303 0.01650
3808.44726 0.01623
3807.16150 0.01570
3805.87573 0.01530
3804.58996 0.01540
3803.30419 0.01600
3802.01842 0.01673
3800.73265 0.01713
3799.44688 0.01711
3798.16111 0.01688
3796.87535 0.01664
3795.58958 0.01622
3794.30381 0.01535
3793.01804 0.01401
3791.73227 0.01273
3790.44650 0.01213
3789.16073 0.01236
3787.87496 0.01300
3786.58919 0.01355
3785.30343 0.01389
3784.01766 0.01416
3782.73189 0.01439
3781.44612 0.01455
3780.16035 0.01470
3778.87458 0.01492
3777.58881 0.01502
3776.30304 0.01464
3775.01728 0.01365
3773.73151 0.01242
3772.44574 0.01164
3771.15997 0.01182
3769.87420 0.01299
3768.58843 0.01466
3767.30266 0.01596
3766.01689 0.01631
3764.73112 0.01574
3763.44536 0.01494
3762.15959 0.01448
3760.87382 0.01437
3759.58805 0.01428
3758.30228 0.01409
3757.01651 0.01397
3755.73074 0.01399
3754.44497 0.01396
3753.15921 0.01374
3751.87344 0.01336
3750.58767 0.01301
3749.30190 0.01286
3748.01613 0.01305
3746.73036 0.01349
3745.44459 0.01377
3744.15882 0.01343
3742.87305 0.01259
3741.58729 0.01193
3740.30152 0.01218
3739.01575 0.01340
3737.72998 0.01498
3736.44421 0.01608
3735.15844 0.01630
3733.87267 0.01589
3732.58690 0.01531
3731.30114 0.01477
3730.01537 0.01419
3728.72960 0.01353
3727.44383 0.01291
3726.15806 0.01261
3724.87229 0.01288
3723.58652 0.01373
3722.30075 0.01475
3721.01498 0.01524
3719.72922 0.01496
3718.44345 0.01432
3717.15768 0.01385
3715.87191 0.01361
3714.58614 0.01336
3713.30037 0.01305
3712.01460 0.01293
3710.72883 0.01313
3709.44307 0.01355
3708.15730 0.01414
3706.87153 0.01489
3705.58576 0.01547
3704.29999 0.01541
3703.01422 0.01464
3701.72845 0.01363
3700.44268 0.01294
3699.15691 0.01279
3697.87115 0.01321
3696.58538 0.01402
3695.29961 0.01469
3694.01384 0.01469
3692.72807 0.01405
3691.44230 0.01311
3690.15653 0.01214
3688.87076 0.01119
3687.58500 0.01033
3686.29923 0.00989
3685.01346 0.01031
3683.72769 0.01144
3682.44192 0.01244
3681.15615 0.01273
3679.87038 0.01266
3678.58461 0.01303
3677.29884 0.01412
3676.01308 0.01537
3674.72731 0.01615
3673.44154 0.01643
3672.15577 0.01646
3670.87000 0.01642
3669.58423 0.01644
3668.29846 0.01664
3667.01269 0.01691
3665.72693 0.01685
3664.44116 0.01612
3663.15539 0.01496
3661.86962 0.01399
3660.58385 0.01358
3659.29808 0.01355
3658.01231 0.01349
3656.72654 0.01327
3655.44077 0.01314
3654.15501 0.01326
3652.86924 0.01355
3651.58347 0.01372
3650.29770 0.01369
3649.01193 0.01357
3647.72616 0.01350
3646.44039 0.01340
3645.15462 0.01307
3643.86886 0.01261
3642.58309 0.01244
3641.29732 0.01296
3640.01155 0.01414
3638.72578 0.01549
3637.44001 0.01639
3636.15424 0.01650
3634.86847 0.01589
3633.58270 0.01501
3632.29694 0.01433
3631.01117 0.01406
3629.72540 0.01418
3628.43963 0.01453
3627.15386 0.01484
3625.86809 0.01479
3624.58232 0.01431
3623.29655 0.01362
3622.01079 0.01304
3620.72502 0.01270
3619.43925 0.01259
3618.15348 0.01266
3616.86771 0.01285
3615.58194 0.01298
3614.29617 0.01294
3613.01040 0.01277
3611.72463 0.01265
3610.43887 0.01267
3609.15310 0.01275
3607.86733 0.01286
3606.58156 0.01318
3605.29579 0.01384
3604.01002 0.01469
3602.72425 0.01522
3601.43848 0.01514
3600.15272 0.01466
3598.86695 0.01427
3597.58118 0.01420
3596.29541 0.01417
3595.00964 0.01375
3593.72387 0.01298
3592.43810 0.01242
3591.15233 0.01253
3589.86656 0.01311
3588.58080 0.01348
3587.29503 0.01325
3586.00926 0.01258
3584.72349 0.01200
3583.43772 0.01193
3582.15195 0.01231
3580.86618 0.01274
3579.58041 0.01302
3578.29464 0.01323
3577.00888 0.01354
3575.72311 0.01396
3574.43734 0.01432
3573.15157 0.01443
3571.86580 0.01424
3570.58003 0.01388
3569.29426 0.01355
3568.00849 0.01347
3566.72273 0.01372
3565.43696 0.01421
3564.15119 0.01471
3562.86542 0.01498
3561.57965 0.01494
3560.29388 0.01477
3559.00811 0.01471
3557.72234 0.01490
3556.43657 0.01522
3555.15081 0.01544
3553.86504 0.01547
3552.57927 0.01549
3551.29350 0.01570
3550.00773 0.01604
3548.72196 0.01620
3547.43619 0.01598
3546.15042 0.01552
3544.86466 0.01525
3543.57889 0.01544
3542.29312 0.01605
3541.00735 0.01683
3539.72158 0.01751
3538.43581 0.01789
3537.15004 0.01793
3535.86427 0.01766
3534.57850 0.01713
3533.29274 0.01653
3532.00697 0.01615
3530.72120 0.01618
3529.43543 0.01644
3528.14966 0.01652
3526.86389 0.01623
3525.57812 0.01585
3524.29235 0.01571
3523.00659 0.01581
3521.72082 0.01584
3520.43505 0.01559
3519.14928 0.01520
3517.86351 0.01497
3516.57774 0.01507
3515.29197 0.01537
3514.00620 0.01552
3512.72043 0.01521
3511.43467 0.01443
3510.14890 0.01355
3508.86313 0.01311
3507.57736 0.01341
3506.29159 0.01423
3505.00582 0.01501
3503.72005 0.01531
3502.43428 0.01518
3501.14852 0.01497
3499.86275 0.01497
3498.57698 0.01512
3497.29121 0.01518
3496.00544 0.01497
3494.71967 0.01463
3493.43390 0.01439
3492.14813 0.01444
3490.86236 0.01472
3489.57660 0.01492
3488.29083 0.01476
3487.00506 0.01435
3485.71929 0.01416
3484.43352 0.01467
3483.14775 0.01582
3481.86198 0.01704
3480.57621 0.01780
3479.29045 0.01799
3478.00468 0.01785
3476.71891 0.01752
3475.43314 0.01700
3474.14737 0.01635
3472.86160 0.01583
3471.57583 0.01573
3470.29006 0.01615
3469.00429 0.01685
3467.71853 0.01740
3466.43276 0.01753
3465.14699 0.01734
3463.86122 0.01713
3462.57545 0.01695
3461.28968 0.01654
3460.00391 0.01577
3458.71814 0.01489
3457.43238 0.01433
3456.14661 0.01420
3454.86084 0.01444
3453.57507 0.01492
3452.28930 0.01546
3451.00353 0.01580
3449.71776 0.01582
3448.43199 0.01563
3447.14622 0.01540
3445.86046 0.01524
3444.57469 0.01520
3443.28892 0.01523
3442.00315 0.01518
3440.71738 0.01501
3439.43161 0.01493
3438.14584 0.01517
3436.86007 0.01572
3435.57431 0.01640
3434.28854 0.01708
3433.00277 0.01772
3431.71700 0.01815
3430.43123 0.01817
3429.14546 0.01771
3427.85969 0.01693
3426.57392 0.01611
3425.28815 0.01552
3424.00239 0.01532
3422.71662 0.01550
3421.43085 0.01590
3420.14508 0.01632
3418.85931 0.01662
3417.57354 0.01676
3416.28777 0.01676
3415.00200 0.01663
3413.71624 0.01640
3412.43047 0.01611
3411.14470 0.01581
3409.85893 0.01556
3408.57316 0.01550
3407.28739 0.01584
3406.00162 0.01664
3404.71585 0.01762
3403.43008 0.01837
3402.14432 0.01874
3400.85855 0.01890
3399.57278 0.01896
3398.28701 0.01879
3397.00124 0.01835
3395.71547 0.01778
3394.42970 0.01737
3393.14393 0.01735
3391.85817 0.01759
3390.57240 0.01779
3389.28663 0.01778
3388.00086 0.01756
3386.71509 0.01721
3385.42932 0.01676
3384.14355 0.01635
3382.85778 0.01615
3381.57201 0.01626
3380.28625 0.01653
3379.00048 0.01674
3377.71471 0.01676
3376.42894 0.01652
3375.14317 0.01604
3373.85740 0.01551
3372.57163 0.01536
3371.28586 0.01586
3370.00010 0.01676
3368.71433 0.01751
3367.42856 0.01775
3366.14279 0.01756
3364.85702 0.01721
3363.57125 0.01686
3362.28548 0.01642
3360.99971 0.01589
3359.71394 0.01550
3358.42818 0.01547
3357.14241 0.01579
3355.85664 0.01626
3354.57087 0.01668
3353.28510 0.01698
3351.99933 0.01707
3350.71356 0.01685
3349.42779 0.01636
3348.14202 0.01576
3346.85626 0.01527
3345.57049 0.01500
3344.28472 0.01505
3342.99895 0.01543
3341.71318 0.01607
3340.42741 0.01678
3339.14164 0.01732
3337.85587 0.01746
3336.57011 0.01713
3335.28434 0.01647
3333.99857 0.01579
3332.71280 0.01532
3331.42703 0.01505
3330.14126 0.01487
3328.85549 0.01472
3327.56972 0.01467
3326.28395 0.01485
3324.99819 0.01530
3323.71242 0.01596
3322.42665 0.01665
3321.14088 0.01714
3319.85511 0.01724
3318.56934 0.01697
3317.28357 0.01650
3315.99780 0.01607
3314.71204 0.01586
3313.42627 0.01598
3312.14050 0.01635
3310.85473 0.01666
3309.56896 0.01664
3308.28319 0.01637
3306.99742 0.01622
3305.71165 0.01653
3304.42588 0.01711
3303.14012 0.01745
3301.85435 0.01717
3300.56858 0.01647
3299.28281 0.01592
3297.99704 0.01586
3296.71127 0.01616
3295.42550 0.01639
3294.13973 0.01638
3292.85397 0.01632
3291.56820 0.01641
3290.28243 0.01662
3288.99666 0.01671
3287.71089 0.01659
3286.42512 0.01642
3285.13935 0.01637
3283.85358 0.01637
3282.56781 0.01623
3281.28205 0.01606
3279.99628 0.01613
3278.71051 0.01650
3277.42474 0.01689
3276.13897 0.01704
3274.85320 0.01690
3273.56743 0.01661
3272.28166 0.01637
3270.99590 0.01643
3269.71013 0.01691
3268.42436 0.01753
3267.13859 0.01781
3265.85282 0.01758
3264.56705 0.01713
3263.28128 0.01686
3261.99551 0.01695
3260.70974 0.01727
3259.42398 0.01757
3258.13821 0.01754
3256.85244 0.01708
3255.56667 0.01629
3254.28090 0.01548
3252.99513 0.01495
3251.70936 0.01486
3250.42359 0.01519
3249.13783 0.01569
3247.85206 0.01602
3246.56629 0.01606
3245.28052 0.01602
3243.99475 0.01626
3242.70898 0.01688
3241.42321 0.01762
3240.13744 0.01807
3238.85167 0.01796
3237.56591 0.01732
3236.28014 0.01652
3234.99437 0.01596
3233.70860 0.01586
3232.42283 0.01611
3231.13706 0.01644
3229.85129 0.01662
3228.56552 0.01660
3227.27976 0.01651
3225.99399 0.01658
3224.70822 0.01693
3223.42245 0.01741
3222.13668 0.01770
3220.85091 0.01756
3219.56514 0.01704
3218.27937 0.01639
3216.99360 0.01590
3215.70784 0.01572
3214.42207 0.01580
3213.13630 0.01597
3211.85053 0.01610
3210.56476 0.01616
3209.27899 0.01615
3207.99322 0.01610
3206.70745 0.01611
3205.42169 0.01625
3204.13592 0.01650
3202.85015 0.01667
3201.56438 0.01666
3200.27861 0.01653
3198.99284 0.01644
3197.70707 0.01650
3196.42130 0.01667
3195.13553 0.01687
3193.84977 0.01696
3192.56400 0.01687
3191.27823 0.01661
3189.99246 0.01630
3188.70669 0.01602
3187.42092 0.01574
3186.13515 0.01545
3184.84938 0.01528
3183.56362 0.01537
3182.27785 0.01566
3180.99208 0.01598
3179.70631 0.01611
3178.42054 0.01595
3177.13477 0.01551
3175.84900 0.01493
3174.56323 0.01449
3173.27746 0.01444
3171.99170 0.01478
3170.70593 0.01522
3169.42016 0.01544
3168.13439 0.01535
3166.84862 0.01513
3165.56285 0.01501
3164.27708 0.01510
3162.99131 0.01534
3161.70555 0.01563
3160.41978 0.01587
3159.13401 0.01600
3157.84824 0.01597
3156.56247 0.01577
3155.27670 0.01555
3153.99093 0.01544
3152.70516 0.01548
3151.41939 0.01554
3150.13363 0.01554
3148.84786 0.01551
3147.56209 0.01548
3146.27632 0.01541
3144.99055 0.01528
3143.70478 0.01522
3142.41901 0.01533
3141.13324 0.01555
3139.84748 0.01572
3138.56171 0.01572
3137.27594 0.01559
3135.99017 0.01546
3134.70440 0.01538
3133.41863 0.01531
3132.13286 0.01517
3130.84709 0.01508
3129.56132 0.01530
3128.27556 0.01594
3126.98979 0.01669
3125.70402 0.01707
3124.41825 0.01687
3123.13248 0.01624
3121.84671 0.01556
3120.56094 0.01505
3119.27517 0.01479
3117.98940 0.01466
3116.70364 0.01449
3115.41787 0.01416
3114.13210 0.01374
3112.84633 0.01354
3111.56056 0.01377
3110.27479 0.01437
3108.98902 0.01502
3107.70325 0.01547
3106.41749 0.01575
3105.13172 0.01592
3103.84595 0.01597
3102.56018 0.01579
3101.27441 0.01543
3099.98864 0.01511
3098.70287 0.01503
3097.41710 0.01521
3096.13133 0.01545
3094.84557 0.01553
3093.55980 0.01533
3092.27403 0.01496
3090.98826 0.01461
3089.70249 0.01436
3088.41672 0.01418
3087.13095 0.01404
3085.84518 0.01399
3084.55942 0.01408
3083.27365 0.01423
3081.98788 0.01428
3080.70211 0.01420
3079.41634 0.01405
3078.13057 0.01396
3076.84480 0.01398
3075.55903 0.01419
3074.27326 0.01465
3072.98750 0.01528
3071.70173 0.01587
3070.41596 0.01613
3069.13019 0.01594
3067.84442 0.01540
3066.55865 0.01474
3065.27288 0.01418
3063.98711 0.01390
3062.70135 0.01396
3061.41558 0.01435
3060.12981 0.01488
3058.84404 0.01524
3057.55827 0.01521
3056.27250 0.01482
3054.98673 0.01435
3053.70096 0.01409
3052.41519 0.01407
3051.12943 0.01416
3049.84366 0.01426
3048.55789 0.01440
3047.27212 0.01464
3045.98635 0.01485
3044.70058 0.01483
3043.41481 0.01458
3042.12904 0.01436
3040.84328 0.01443
3039.55751 0.01474
3038.27174 0.01506
3036.98597 0.01521
3035.70020 0.01521
3034.41443 0.01517
3033.12866 0.01506
3031.84289 0.01484
3030.55712 0.01453
3029.27136 0.01427
3027.98559 0.01414
3026.69982 0.01412
3025.41405 0.01414
3024.12828 0.01424
3022.84251 0.01446
3021.55674 0.01478
3020.27097 0.01505
3018.98521 0.01512
3017.69944 0.01503
3016.41367 0.01493
3015.12790 0.01490
3013.84213 0.01490
3012.55636 0.01474
3011.27059 0.01431
3009.98482 0.01373
3008.69905 0.01331
3007.41329 0.01327
3006.12752 0.01357
3004.84175 0.01396
3003.55598 0.01421
3002.27021 0.01425
3000.98444 0.01417
2999.69867 0.01401
2998.41290 0.01382
2997.12714 0.01358
2995.84137 0.01334
2994.55560 0.01317
2993.26983 0.01312
2991.98406 0.01311
2990.69829 0.01306
2989.41252 0.01300
2988.12675 0.01299
2986.84098 0.01313
2985.55522 0.01340
2984.26945 0.01368
2982.98368 0.01377
2981.69791 0.01360
2980.41214 0.01327
2979.12637 0.01301
2977.84060 0.01299
2976.55483 0.01320
2975.26907 0.01350
2973.98330 0.01370
2972.69753 0.01373
2971.41176 0.01359
2970.12599 0.01336
2968.84022 0.01311
2967.55445 0.01293
2966.26868 0.01297
2964.98291 0.01331
2963.69715 0.01387
2962.41138 0.01443
2961.12561 0.01474
2959.83984 0.01469
2958.55407 0.01440
2957.26830 0.01415
2955.98253 0.01411
2954.69676 0.01424
2953.41100 0.01431
2952.12523 0.01411
2950.83946 0.01365
2949.55369 0.01317
2948.26792 0.01298
2946.98215 0.01322
2945.69638 0.01375
2944.41061 0.01427
2943.12484 0.01448
2941.83908 0.01427
2940.55331 0.01386
2939.26754 0.01363
2937.98177 0.01372
2936.69600 0.01398
2935.41023 0.01413
2934.12446 0.01415
2932.83869 0.01421
2931.55293 0.01437
2930.26716 0.01450
2928.98139 0.01441
2927.69562 0.01408
2926.40985 0.01367
2925.12408 0.01341
2923.83831 0.01335
2922.55254 0.01337
2921.26677 0.01331
2919.98101 0.01316
2918.69524 0.01307
2917.40947 0.01315
2916.12370 0.01329
2914.83793 0.01328
2913.55216 0.01302
2912.26639 0.01268
2910.98062 0.01257
2909.69486 0.01279
2908.40909 0.01321
2907.12332 0.01355
2905.83755 0.01371
2904.55178 0.01377
2903.26601 0.01386
2901.98024 0.01394
2900.69447 0.01390
2899.40870 0.01373
2898.12294 0.01355
2896.83717 0.01351
2895.55140 0.01363
2894.26563 0.01380
2892.97986 0.01388
2891.69409 0.01384
2890.40832 0.01367
2889.12255 0.01346
2887.83678 0.01334
2886.55102 0.01342
2885.26525 0.01367
2883.97948 0.01392
2882.69371 0.01401
2881.40794 0.01384
2880.12217 0.01351
2878.83640 0.01324
2877.55063 0.01320
2876.26487 0.01332
2874.97910 0.01333
2873.69333 0.01310
2872.40756 0.01280
2871.12179 0.01270
2869.83602 0.01281
2868.55025 0.01298
2867.26448 0.01308
2865.97871 0.01314
2864.69295 0.01322
2863.40718 0.01331
2862.12141 0.01332
2860.83564 0.01322
2859.54987 0.01307
2858.26410 0.01291
2856.97833 0.01266
2855.69256 0.01231
2854.40680 0.01200
2853.12103 0.01189
2851.83526 0.01191
2850.54949 0.01189
2849.26372 0.01175
2847.97795 0.01161
2846.69218 0.01159
2845.40641 0.01171
2844.12064 0.01195
2842.83488 0.01218
2841.54911 0.01224
2840.26334 0.01217
2838.97757 0.01215
2837.69180 0.01233
2836.40603 0.01268
2835.12026 0.01298
2833.83449 0.01307
2832.54873 0.01300
2831.26296 0.01291
2829.97719 0.01284
2828.69142 0.01272
2827.40565 0.01242
2826.11988 0.01196
2824.83411 0.01146
2823.54834 0.01107
2822.26257 0.01093
2820.97681 0.01107
2819.69104 0.01143
2818.40527 0.01185
2817.11950 0.01206
2815.83373 0.01190
2814.54796 0.01155
2813.26219 0.01130
2811.97642 0.01129
2810.69066 0.01138
2809.40489 0.01143
2808.11912 0.01139
2806.83335 0.01130
2805.54758 0.01119
2804.26181 0.01114
2802.97604 0.01119
2801.69027 0.01128
2800.40450 0.01133
2799.11874 0.01129
2797.83297 0.01122
2796.54720 0.01122
2795.26143 0.01138
2793.97566 0.01170
2792.68989 0.01203
2791.40412 0.01216
2790.11835 0.01199
2788.83259 0.01158
2787.54682 0.01117
2786.26105 0.01099
2784.97528 0.01112
2783.68951 0.01142
2782.40374 0.01171
2781.11797 0.01190
2779.83220 0.01191
2778.54643 0.01175
2777.26067 0.01154
2775.97490 0.01141
2774.68913 0.01140
2773.40336 0.01140
2772.11759 0.01136
2770.83182 0.01137
2769.54605 0.01152
2768.26028 0.01170
2766.97452 0.01177
2765.68875 0.01169
2764.40298 0.01160
2763.11721 0.01158
2761.83144 0.01156
2760.54567 0.01144
2759.25990 0.01131
2757.97413 0.01127
2756.68836 0.01132
2755.40260 0.01133
2754.11683 0.01124
2752.83106 0.01118
2751.54529 0.01136
2750.25952 0.01184
2748.97375 0.01242
2747.68798 0.01277
2746.40221 0.01271
2745.11645 0.01232
2743.83068 0.01189
2742.54491 0.01164
2741.25914 0.01158
2739.97337 0.01157
2738.68760 0.01149
2737.40183 0.01133
2736.11606 0.01118
2734.83029 0.01115
2733.54453 0.01125
2732.25876 0.01141
2730.97299 0.01149
2729.68722 0.01137
2728.40145 0.01105
2727.11568 0.01077
2725.82991 0.01075
2724.54414 0.01105
2723.25838 0.01144
2721.97261 0.01163
2720.68684 0.01152
2719.40107 0.01122
2718.11530 0.01093
2716.82953 0.01074
2715.54376 0.01060
2714.25799 0.01045
2712.97222 0.01032
2711.68646 0.01032
2710.40069 0.01046
2709.11492 0.01065
2707.82915 0.01080
2706.54338 0.01086
2705.25761 0.01088
2703.97184 0.01090
2702.68607 0.01092
2701.40031 0.01092
2700.11454 0.01084
2698.82877 0.01068
2697.54300 0.01045
2696.25723 0.01019
2694.97146 0.01001
2693.68569 0.00999
2692.39992 0.01016
2691.11415 0.01044
2689.82839 0.01068
2688.54262 0.01080
2687.25685 0.01078
2685.97108 0.01064
2684.68531 0.01043
2683.39954 0.01021
2682.11377 0.01003
2680.82800 0.00991
2679.54224 0.00986
2678.25647 0.00995
2676.97070 0.01026
2675.68493 0.01077
2674.39916 0.01126
2673.11339 0.01145
2671.82762 0.01123
2670.54185 0.01076
2669.25608 0.01041
2667.97032 0.01043
2666.68455 0.01078
2665.39878 0.01116
2664.11301 0.01128
2662.82724 0.01112
2661.54147 0.01090
2660.25570 0.01076
2658.96993 0.01067
2657.68417 0.01057
2656.39840 0.01050
2655.11263 0.01055
2653.82686 0.01073
2652.54109 0.01099
2651.25532 0.01127
2649.96955 0.01155
2648.68378 0.01178
2647.39801 0.01184
2646.11225 0.01167
2644.82648 0.01138
2643.54071 0.01120
2642.25494 0.01131
2640.96917 0.01163
2639.68340 0.01190
2638.39763 0.01185
2637.11186 0.01142
2635.82609 0.01080
2634.54033 0.01030
2633.25456 0.01011
2631.96879 0.01022
2630.68302 0.01053
2629.39725 0.01087
2628.11148 0.01111
2626.82571 0.01118
2625.53994 0.01103
2624.25418 0.01073
2622.96841 0.01037
2621.68264 0.01006
2620.39687 0.00995
2619.11110 0.01003
2617.82533 0.01013
2616.53956 0.01008
2615.25379 0.00993
2613.96802 0.00982
2612.68226 0.00989
2611.39649 0.01013
2610.11072 0.01051
2608.82495 0.01097
2607.53918 0.01137
2606.25341 0.01153
2604.96764 0.01128
2603.68187 0.01069
2602.39611 0.01006
2601.11034 0.00967
2599.82457 0.00966
2598.53880 0.00986
2597.25303 0.01003
2595.96726 0.01005
2594.68149 0.00996
2593.39572 0.00986
2592.10995 0.00973
2590.82419 0.00950
2589.53842 0.00913
2588.25265 0.00873
2586.96688 0.00846
2585.68111 0.00835
2584.39534 0.00831
2583.10957 0.00820
2581.82380 0.00808
2580.53804 0.00809
2579.25227 0.00824
2577.96650 0.00841
2576.68073 0.00852
2575.39496 0.00859
2574.10919 0.00869
2572.82342 0.00877
2571.53765 0.00874
2570.25188 0.00852
2568.96612 0.00823
2567.68035 0.00810
2566.39458 0.00831
2565.10881 0.00875
2563.82304 0.00909
2562.53727 0.00919
2561.25150 0.00922
2559.96573 0.00936
2558.67997 0.00950
2557.39420 0.00945
2556.10843 0.00929
2554.82266 0.00934
2553.53689 0.00960
2552.25112 0.00956
2550.96535 0.00891
2549.67958 0.00801
2548.39381 0.00760
2547.10805 0.00796
2545.82228 0.00872
2544.53651 0.00932
2543.25074 0.00953
2541.96497 0.00944
2540.67920 0.00923
2539.39343 0.00897
2538.10766 0.00868
2536.82190 0.00847
2535.53613 0.00842
2534.25036 0.00847
2532.96459 0.00848
2531.67882 0.00841
2530.39305 0.00831
2529.10728 0.00811
2527.82151 0.00776
2526.53574 0.00742
2525.24998 0.00742
2523.96421 0.00794
2522.67844 0.00875
2521.39267 0.00936
2520.10690 0.00942
2518.82113 0.00893
2517.53536 0.00824
2516.24959 0.00776
2514.96383 0.00772
2513.67806 0.00805
2512.39229 0.00850
2511.10652 0.00882
2509.82075 0.00887
2508.53498 0.00871
2507.24921 0.00856
2505.96344 0.00859
2504.67767 0.00878
2503.39191 0.00884
2502.10614 0.00852
2500.82037 0.00792
2499.53460 0.00753
2498.24883 0.00767
2496.96306 0.00813
2495.67729 0.00838
2494.39152 0.00821
2493.10576 0.00788
2491.81999 0.00778
2490.53422 0.00802
2489.24845 0.00847
2487.96268 0.00890
2486.67691 0.00918
2485.39114 0.00929
2484.10537 0.00929
2482.81960 0.00915
2481.53384 0.00877
2480.24807 0.00821
2478.96230 0.00778
2477.67653 0.00776
2476.39076 0.00801
2475.10499 0.00812
2473.81922 0.00790
2472.53345 0.00764
2471.24769 0.00769
2469.96192 0.00803
2468.67615 0.00836
2467.39038 0.00844
2466.10461 0.00826
2464.81884 0.00797
2463.53307 0.00777
2462.24730 0.00784
2460.96153 0.00822
2459.67577 0.00875
2458.39000 0.00917
2457.10423 0.00930
2455.81846 0.00919
2454.53269 0.00902
2453.24692 0.00893
2451.96115 0.00888
2450.67538 0.00879
2449.38962 0.00862
2448.10385 0.00845
2446.81808 0.00833
2445.53231 0.00824
2444.24654 0.00813
2442.96077 0.00801
2441.67500 0.00793
2440.38923 0.00788
2439.10346 0.00774
2437.81770 0.00746
2436.53193 0.00725
2435.24616 0.00742
2433.96039 0.00800
2432.67462 0.00863
2431.38885 0.00886
2430.10308 0.00858
2428.81731 0.00809
2427.53155 0.00777
2426.24578 0.00777
2424.96001 0.00793
2423.67424 0.00808
2422.38847 0.00812
2421.10270 0.00804
2419.81693 0.00781
2418.53116 0.00746
2417.24539 0.00705
2415.95963 0.00660
2414.67386 0.00619
2413.38809 0.00598
2412.10232 0.00612
2410.81655 0.00653
2409.53078 0.00697
2408.24501 0.00733
2406.95924 0.00763
2405.67347 0.00788
2404.38771 0.00800
2403.10194 0.00796
2401.81617 0.00780
2400.53040 0.00758
2399.24463 0.00739
2397.95886 0.00708
2396.67309 0.00686
2395.38732 0.00674
2394.10156 0.00664
2392.81579 0.00650
2391.53002 0.00638
2390.24425 0.00631
2388.95848 0.00629
2387.67271 0.00627
2386.38694 0.00628
2385.10117 0.00642
2383.81540 0.00676
2382.52964 0.00721
2381.24387 0.00765
2379.95810 0.00798
2378.67233 0.00823
2377.38656 0.00849
2376.10079 0.00873
2374.81502 0.00879
2373.52925 0.00869
2372.24349 0.00848
2370.95772 0.00829
2369.67195 0.00787
2368.38618 0.00734
2367.10041 0.00711
2365.81464 0.00727
2364.52887 0.00727
2363.24310 0.00712
2361.95733 0.00716
2360.67157 0.00752
2359.38580 0.00754
2358.10003 0.00729
2356.81426 0.00706
2355.52849 0.00708
2354.24272 0.00736
2352.95695 0.00770
2351.67118 0.00831
2350.38542 0.00909
2349.09965 0.00925
2347.81388 0.00856
2346.52811 0.00806
2345.24234 0.00799
2343.95657 0.00765
2342.67080 0.00681
2341.38503 0.00674
2340.09926 0.00762
2338.81350 0.00777
2337.52773 0.00716
2336.24196 0.00760
2334.95619 0.00872
2333.67042 0.00853
2332.38465 0.00727
2331.09888 0.00750
2329.81311 0.00804
2328.52735 0.00721
2327.24158 0.00788
2325.95581 0.00951
2324.67004 0.00972
2323.38427 0.01011
2322.09850 0.01093
2320.81273 0.01032
2319.52696 0.01012
2318.24119 0.01040
2316.95543 0.00992
2315.66966 0.00976
2314.38389 0.00971
2313.09812 0.00931
2311.81235 0.00930
2310.52658 0.00910
2309.24081 0.00883
2307.95504 0.00879
2306.66928 0.00868
2305.38351 0.00874
2304.09774 0.00871
2302.81197 0.00843
2301.52620 0.00821
2300.24043 0.00813
2298.95466 0.00828
2297.66889 0.00839
2296.38312 0.00828
2295.09736 0.00796
2293.81159 0.00756
2292.52582 0.00729
2291.24005 0.00717
2289.95428 0.00715
2288.66851 0.00712
2287.38274 0.00708
2286.09697 0.00712
2284.81121 0.00729
2283.52544 0.00753
2282.23967 0.00774
2280.95390 0.00785
2279.66813 0.00784
2278.38236 0.00771
2277.09659 0.00745
2275.81082 0.00712
2274.52505 0.00676
2273.23929 0.00650
2271.95352 0.00648
2270.66775 0.00678
2269.38198 0.00724
2268.09621 0.00748
2266.81044 0.00728
2265.52467 0.00666
2264.23890 0.00587
2262.95314 0.00527
2261.66737 0.00518
2260.38160 0.00564
2259.09583 0.00639
2257.81006 0.00704
2256.52429 0.00734
2255.23852 0.00726
2253.95275 0.00698
2252.66698 0.00670
2251.38122 0.00654
2250.09545 0.00664
2248.80968 0.00707
2247.52391 0.00730
2246.23814 0.00726
2244.95237 0.00699
2243.66660 0.00666
2242.38083 0.00643
2241.09507 0.00625
2239.80930 0.00602
2238.52353 0.00576
2237.23776 0.00548
2235.95199 0.00519
2234.66622 0.00498
2233.38045 0.00505
2232.09468 0.00548
2230.80891 0.00597
2229.52315 0.00613
2228.23738 0.00593
2226.95161 0.00562
2225.66584 0.00544
2224.38007 0.00537
2223.09430 0.00537
2221.80853 0.00543
2220.52276 0.00545
2219.23700 0.00528
2217.95123 0.00498
2216.66546 0.00480
2215.37969 0.00492
2214.09392 0.00516
2212.80815 0.00522
2211.52238 0.00501
2210.23661 0.00474
2208.95084 0.00490
2207.66508 0.00583
2206.37931 0.00727
2205.09354 0.00837
2203.80777 0.00832
2202.52200 0.00717
2201.23623 0.00577
2199.95046 0.00496
2198.66469 0.00492
2197.37893 0.00511
2196.09316 0.00490
2194.80739 0.00402
2193.52162 0.00272
2192.23585 0.00149
2190.95008 0.00096
2189.66431 0.00163
2188.37854 0.00347
2187.09277 0.00563
2185.80701 0.00699
2184.52124 0.00694
2183.23547 0.00564
2181.94970 0.00369
2180.66393 0.00185
2179.37816 0.00096
2178.09239 0.00141
2176.80662 0.00263
2175.52085 0.00357
2174.23509 0.00376
2172.94932 0.00376
2171.66355 0.00430
2170.37778 0.00533
2169.09201 0.00605
2167.80624 0.00580
2166.52047 0.00472
2165.23470 0.00368
2163.94894 0.00357
2162.66317 0.00453
2161.37740 0.00567
2160.09163 0.00571
2158.80586 0.00411
2157.52009 0.00158
2156.23432 -0.00077
2154.94855 -0.00242
2153.66278 -0.00341
2152.37702 -0.00377
2151.09125 -0.00341
2149.80548 -0.00244
2148.51971 -0.00124
2147.23394 -0.00018
2145.94817 0.00061
2144.66240 0.00116
2143.37663 0.00163
2142.09087 0.00209
2140.80510 0.00245
2139.51933 0.00246
2138.23356 0.00205
2136.94779 0.00139
2135.66202 0.00071
2134.37625 0.00017
2133.09048 -0.00015
2131.80471 -0.00017
2130.51895 0.00017
2129.23318 0.00084
2127.94741 0.00168
2126.66164 0.00245
2125.37587 0.00296
2124.09010 0.00316
2122.80433 0.00313
2121.51856 0.00294
2120.23280 0.00267
2118.94703 0.00243
2117.66126 0.00235
2116.37549 0.00262
2115.08972 0.00321
2113.80395 0.00388
2112.51818 0.00425
2111.23241 0.00411
2109.94664 0.00363
2108.66088 0.00322
2107.37511 0.00315
2106.08934 0.00337
2104.80357 0.00363
2103.51780 0.00372
2102.23203 0.00353
2100.94626 0.00315
2099.66049 0.00365
2098.37473 0.00365
2097.08896 0.00313
2095.80319 0.00251
2094.51742 0.00201
2093.23165 0.00179
2091.94588 0.00201
2090.66011 0.00259
2089.37434 0.00328
2088.08857 0.00385
2086.80281 0.00429
2085.51704 0.00472
2084.23127 0.00515
2082.94550 0.00535
2081.65973 0.00509
2080.37396 0.00443
2079.08819 0.00366
2077.80242 0.00308
2076.51666 0.00270
2075.23089 0.00240
2073.94512 0.00209
2072.65935 0.00185
2071.37358 0.00179
2070.08781 0.00187
2068.80204 0.00193
2067.51627 0.00189
2066.23050 0.00182
2064.94474 0.00187
2063.65897 0.00208
2062.37320 0.00236
2061.08743 0.00255
2059.80166 0.00257
2058.51589 0.00240
2057.23012 0.00216
2055.94435 0.00194
2054.65859 0.00188
2053.37282 0.00206
2052.08705 0.00246
2050.80128 0.00291
2049.51551 0.00328
2048.22974 0.00355
2046.94397 0.00372
2045.65820 0.00360
2044.37243 0.00314
2043.08667 0.00262
2041.80090 0.00248
2040.51513 0.00286
2039.22936 0.00347
2037.94359 0.00401
2036.65782 0.00441
2035.37205 0.00467
2034.08628 0.00469
2032.80052 0.00433
2031.51475 0.00372
2030.22898 0.00332
2028.94321 0.00346
2027.65744 0.00387
2026.37167 0.00391
2025.08590 0.00320
2023.80013 0.00198
2022.51436 0.00079
2021.22860 -0.00003
2019.94283 -0.00050
2018.65706 -0.00083
2017.37129 -0.00112
2016.08552 -0.00129
2014.79975 -0.00108
2013.51398 -0.00043
2012.22821 0.00046
2010.94245 0.00134
2009.65668 0.00211
2008.37091 0.00276
2007.08514 0.00311
2005.79937 0.00300
2004.51360 0.00250
2003.22783 0.00193
2001.94206 0.00160
2000.65629 0.00167
1999.37053 0.00221
1998.08476 0.00314
1996.79899 0.00420
1995.51322 0.00493
1994.22745 0.00489
1992.94168 0.00405
1991.65591 0.00301
1990.37014 0.00257
1989.08438 0.00304
1987.79861 0.00399
1986.51284 0.00476
1985.22707 0.00509
1983.94130 0.00517
1982.65553 0.00525
1981.36976 0.00539
1980.08399 0.00556
1978.79822 0.00558
1977.51246 0.00522
1976.22669 0.00447
1974.94092 0.00374
1973.65515 0.00354
1972.36938 0.00397
1971.08361 0.00455
1969.79784 0.00475
1968.51207 0.00454
1967.22631 0.00435
1965.94054 0.00454
1964.65477 0.00501
1963.36900 0.00533
1962.08323 0.00519
1960.79746 0.00475
1959.51169 0.00437
1958.22592 0.00419
1956.94015 0.00398
1955.65439 0.00355
1954.36862 0.00309
1953.08285 0.00296
1951.79708 0.00324
1950.51131 0.00373
1949.22554 0.00420
1947.93977 0.00463
1946.65400 0.00510
1945.36823 0.00565
1944.08247 0.00624
1942.79670 0.00672
1941.51093 0.00690
1940.22516 0.00667
1938.93939 0.00615
1937.65362 0.00556
1936.36785 0.00499
1935.08208 0.00438
1933.79632 0.00376
1932.51055 0.00334
1931.22478 0.00336
1929.93901 0.00383
1928.65324 0.00447
1927.36747 0.00494
1926.08170 0.00509
1924.79593 0.00504
1923.51016 0.00495
1922.22440 0.00489
1920.93863 0.00479
1919.65286 0.00456
1918.36709 0.00423
1917.08132 0.00408
1915.79555 0.00432
1914.50978 0.00490
1913.22401 0.00539
1911.93825 0.00535
1910.65248 0.00471
1909.36671 0.00381
1908.08094 0.00315
1906.79517 0.00298
1905.50940 0.00321
1904.22363 0.00362
1902.93786 0.00402
1901.65209 0.00431
1900.36633 0.00443
1899.08056 0.00438
1897.79479 0.00421
1896.50902 0.00397
1895.22325 0.00372
1893.93748 0.00364
1892.65171 0.00389
1891.36594 0.00437
1890.08018 0.00473
1888.79441 0.00471
1887.50864 0.00440
1886.22287 0.00417
1884.93710 0.00429
1883.65133 0.00469
1882.36556 0.00512
1881.07979 0.00539
1879.79402 0.00549
1878.50826 0.00556
1877.22249 0.00565
1875.93672 0.00571
1874.65095 0.00566
1873.36518 0.00551
1872.07941 0.00534
1870.79364 0.00522
1869.50787 0.00517
1868.22211 0.00516
1866.93634 0.00511
1865.65057 0.00495
1864.36480 0.00469
1863.07903 0.00448
1861.79326 0.00449
1860.50749 0.00478
1859.22172 0.00522
1857.93595 0.00560
1856.65019 0.00578
1855.36442 0.00570
1854.07865 0.00541
1852.79288 0.00503
1851.50711 0.00476
1850.22134 0.00471
1848.93557 0.00487
1847.64980 0.00510
1846.36404 0.00524
1845.07827 0.00519
1843.79250 0.00499
1842.50673 0.00472
1841.22096 0.00453
1839.93519 0.00446
1838.64942 0.00448
1837.36365 0.00449
1836.07788 0.00449
1834.79212 0.00453
1833.50635 0.00471
1832.22058 0.00501
1830.93481 0.00530
1829.64904 0.00543
1828.36327 0.00540
1827.07750 0.00536
1825.79173 0.00544
1824.50597 0.00564
1823.22020 0.00582
1821.93443 0.00588
1820.64866 0.00580
1819.36289 0.00561
1818.07712 0.00536
1816.79135 0.00512
1815.50558 0.00491
1814.21981 0.00475
1812.93405 0.00463
1811.64828 0.00454
1810.36251 0.00450
1809.07674 0.00451
1807.79097 0.00460
1806.50520 0.00475
1805.21943 0.00492
1803.93366 0.00506
1802.64790 0.00512
1801.36213 0.00508
1800.07636 0.00500
1798.79059 0.00489
1797.50482 0.00476
1796.21905 0.00462
1794.93328 0.00459
1793.64751 0.00473
1792.36174 0.00496
1791.07598 0.00511
1789.79021 0.00512
1788.50444 0.00506
1787.21867 0.00504
1785.93290 0.00507
1784.64713 0.00516
1783.36136 0.00530
1782.07559 0.00545
1780.78983 0.00557
1779.50406 0.00559
1778.21829 0.00553
1776.93252 0.00545
1775.64675 0.00544
1774.36098 0.00548
1773.07521 0.00551
1771.78944 0.00549
1770.50367 0.00541
1769.21791 0.00528
1767.93214 0.00516
1766.64637 0.00507
1765.36060 0.00505
1764.07483 0.00514
1762.78906 0.00529
1761.50329 0.00544
1760.21752 0.00549
1758.93176 0.00545
1757.64599 0.00536
1756.36022 0.00532
1755.07445 0.00540
1753.78868 0.00558
1752.50291 0.00573
1751.21714 0.00574
1749.93137 0.00560
1748.64560 0.00539
1747.35984 0.00523
1746.07407 0.00517
1744.78830 0.00519
1743.50253 0.00528
1742.21676 0.00538
1740.93099 0.00543
1739.64522 0.00543
1738.35945 0.00548
1737.07369 0.00565
1735.78792 0.00589
1734.50215 0.00602
1733.21638 0.00595
1731.93061 0.00573
1730.64484 0.00551
1729.35907 0.00534
1728.07330 0.00524
1726.78753 0.00520
1725.50177 0.00522
1724.21600 0.00530
1722.93023 0.00544
1721.64446 0.00567
1720.35869 0.00597
1719.07292 0.00626
1717.78715 0.00642
1716.50138 0.00642
1715.21561 0.00631
1713.92985 0.00618
1712.64408 0.00610
1711.35831 0.00609
1710.07254 0.00618
1708.78677 0.00633
1707.50100 0.00648
1706.21523 0.00660
1704.92946 0.00676
1703.64370 0.00703
1702.35793 0.00737
1701.07216 0.00767
1699.78639 0.00784
1698.50062 0.00787
1697.21485 0.00786
1695.92908 0.00781
1694.64331 0.00771
1693.35754 0.00756
1692.07178 0.00742
1690.78601 0.00735
1689.50024 0.00743
1688.21447 0.00766
1686.92870 0.00798
1685.64293 0.00823
1684.35716 0.00825
1683.07139 0.00809
1681.78563 0.00792
1680.49986 0.00790
1679.21409 0.00807
1677.92832 0.00836
1676.64255 0.00864
1675.35678 0.00881
1674.07101 0.00886
1672.78524 0.00886
1671.49947 0.00884
1670.21371 0.00881
1668.92794 0.00872
1667.64217 0.00863
1666.35640 0.00863
1665.07063 0.00875
1663.78486 0.00893
1662.49909 0.00909
1661.21332 0.00919
1659.92756 0.00928
1658.64179 0.00943
1657.35602 0.00969
1656.07025 0.01006
1654.78448 0.01040
1653.49871 0.01053
1652.21294 0.01041
1650.92717 0.01016
1649.64140 0.01000
1648.35564 0.00998
1647.06987 0.00998
1645.78410 0.00988
1644.49833 0.00974
1643.21256 0.00968
1641.92679 0.00978
1640.64102 0.01001
1639.35525 0.01028
1638.06949 0.01053
1636.78372 0.01068
1635.49795 0.01067
1634.21218 0.01053
1632.92641 0.01039
1631.64064 0.01033
1630.35487 0.01037
1629.06910 0.01047
1627.78333 0.01058
1626.49757 0.01068
1625.21180 0.01072
1623.92603 0.01069
1622.64026 0.01060
1621.35449 0.01058
1620.06872 0.01071
1618.78295 0.01096
1617.49718 0.01118
1616.21142 0.01124
1614.92565 0.01118
1613.63988 0.01112
1612.35411 0.01115
1611.06834 0.01124
1609.78257 0.01130
1608.49680 0.01127
1607.21103 0.01119
1605.92526 0.01114
1604.63950 0.01114
1603.35373 0.01121
1602.06796 0.01131
1600.78219 0.01144
1599.49642 0.01158
1598.21065 0.01172
1596.92488 0.01182
1595.63911 0.01188
1594.35335 0.01188
1593.06758 0.01185
1591.78181 0.01183
1590.49604 0.01182
1589.21027 0.01182
1587.92450 0.01181
1586.63873 0.01184
1585.35296 0.01191
1584.06719 0.01203
1582.78143 0.01218
1581.49566 0.01237
1580.20989 0.01261
1578.92412 0.01287
1577.63835 0.01308
1576.35258 0.01314
1575.06681 0.01306
1573.78104 0.01292
1572.49528 0.01283
1571.20951 0.01283
1569.92374 0.01289
1568.63797 0.01295
1567.35220 0.01298
1566.06643 0.01301
1564.78066 0.01311
1563.49489 0.01333
1562.20912 0.01367
1560.92336 0.01404
1559.63759 0.01426
1558.35182 0.01423
1557.06605 0.01402
1555.78028 0.01380
1554.49451 0.01367
1553.20874 0.01365
1551.92297 0.01367
1550.63721 0.01370
1549.35144 0.01374
1548.06567 0.01379
1546.77990 0.01386
1545.49413 0.01398
1544.20836 0.01417
1542.92259 0.01440
1541.63682 0.01460
1540.35105 0.01462
1539.06529 0.01441
1537.77952 0.01409
1536.49375 0.01383
1535.20798 0.01372
1533.92221 0.01373
1532.63644 0.01379
1531.35067 0.01387
1530.06490 0.01401
1528.77914 0.01420
1527.49337 0.01443
1526.20760 0.01469
1524.92183 0.01494
1523.63606 0.01515
1522.35029 0.01530
1521.06452 0.01540
1519.77875 0.01553
1518.49298 0.01575
1517.20722 0.01603
1515.92145 0.01633
1514.63568 0.01658
1513.34991 0.01684
1512.06414 0.01716
1510.77837 0.01761
1509.49260 0.01816
1508.20683 0.01869
1506.92107 0.01907
1505.63530 0.01925
1504.34953 0.01933
1503.06376 0.01948
1501.77799 0.01979
1500.49222 0.02022
1499.20645 0.02065
1497.92068 0.02099
1496.63491 0.02119
1495.34915 0.02129
1494.06338 0.02135
1492.77761 0.02145
1491.49184 0.02161
1490.20607 0.02181
1488.92030 0.02201
1487.63453 0.02220
1486.34876 0.02242
1485.06299 0.02270
1483.77723 0.02304
1482.49146 0.02340
1481.20569 0.02377
1479.91992 0.02414
1478.63415 0.02456
1477.34838 0.02501
1476.06261 0.02546
1474.77684 0.02582
1473.49108 0.02602
1472.20531 0.02605
1470.91954 0.02602
1469.63377 0.02601
1468.34800 0.02609
1467.06223 0.02623
1465.77646 0.02638
1464.49069 0.02650
1463.20492 0.02658
1461.91916 0.02669
1460.63339 0.02693
1459.34762 0.02728
1458.06185 0.02764
1456.77608 0.02786
1455.49031 0.02790
1454.20454 0.02784
1452.91877 0.02780
1451.63301 0.02785
1450.34724 0.02795
1449.06147 0.02804
1447.77570 0.02810
1446.48993 0.02810
1445.20416 0.02805
1443.91839 0.02798
1442.63262 0.02789
1441.34685 0.02780
1440.06109 0.02772
1438.77532 0.02766
1437.48955 0.02760
1436.20378 0.02755
1434.91801 0.02754
1433.63224 0.02762
1432.34647 0.02779
1431.06070 0.02806
1429.77494 0.02840
1428.48917 0.02879
1427.20340 0.02921
1425.91763 0.02962
1424.63186 0.03003
1423.34609 0.03047
1422.06032 0.03093
1420.77455 0.03137
1419.48878 0.03170
1418.20302 0.03189
1416.91725 0.03195
1415.63148 0.03196
1414.34571 0.03196
1413.05994 0.03193
1411.77417 0.03183
1410.48840 0.03162
1409.20263 0.03130
1407.91687 0.03093
1406.63110 0.03055
1405.34533 0.03017
1404.05956 0.02978
1402.77379 0.02936
1401.48802 0.02889
1400.20225 0.02837
1398.91648 0.02779
1397.63071 0.02714
1396.34495 0.02646
1395.05918 0.02576
1393.77341 0.02508
1392.48764 0.02445
1391.20187 0.02388
1389.91610 0.02336
1388.63033 0.02287
1387.34456 0.02236
1386.05880 0.02182
1384.77303 0.02123
1383.48726 0.02061
1382.20149 0.02000
1380.91572 0.01942
1379.62995 0.01890
1378.34418 0.01842
1377.05841 0.01794
1375.77264 0.01743
1374.48688 0.01690
1373.20111 0.01636
1371.91534 0.01582
1370.62957 0.01530
1369.34380 0.01481
1368.05803 0.01438
1366.77226 0.01403
1365.48649 0.01375
1364.20073 0.01348
1362.91496 0.01318
1361.62919 0.01284
1360.34342 0.01249
1359.05765 0.01214
1357.77188 0.01179
1356.48611 0.01145
1355.20034 0.01115
1353.91457 0.01091
1352.62881 0.01075
1351.34304 0.01064
1350.05727 0.01054
1348.77150 0.01043
1347.48573 0.01028
1346.19996 0.01009
1344.91419 0.00987
1343.62842 0.00966
1342.34266 0.00952
1341.05689 0.00945
1339.77112 0.00941
1338.48535 0.00936
1337.19958 0.00929
1335.91381 0.00921
1334.62804 0.00912
1333.34227 0.00902
1332.05650 0.00892
1330.77074 0.00881
1329.48497 0.00869
1328.19920 0.00861
1326.91343 0.00858
1325.62766 0.00859
1324.34189 0.00859
1323.05612 0.00854
1321.77035 0.00844
1320.48459 0.00833
1319.19882 0.00821
1317.91305 0.00809
1316.62728 0.00798
1315.34151 0.00790
1314.05574 0.00786
1312.76997 0.00781
1311.48420 0.00774
1310.19843 0.00765
1308.91267 0.00758
1307.62690 0.00758
1306.34113 0.00763
1305.05536 0.00770
1303.76959 0.00773
1302.48382 0.00772
1301.19805 0.00768
1299.91228 0.00760
1298.62652 0.00752
1297.34075 0.00745
1296.05498 0.00739
1294.76921 0.00735
1293.48344 0.00730
1292.19767 0.00725
1290.91190 0.00719
1289.62613 0.00712
1288.34036 0.00704
1287.05460 0.00695
1285.76883 0.00687
1284.48306 0.00681
1283.19729 0.00678
1281.91152 0.00674
1280.62575 0.00670
1279.33998 0.00665
1278.05421 0.00662
1276.76845 0.00661
1275.48268 0.00662
1274.19691 0.00667
1272.91114 0.00673
1271.62537 0.00678
1270.33960 0.00677
1269.05383 0.00671
1267.76806 0.00663
1266.48229 0.00657
1265.19653 0.00653
1263.91076 0.00648
1262.62499 0.00642
1261.33922 0.00634
1260.05345 0.00630
1258.76768 0.00629
1257.48191 0.00631
1256.19614 0.00634
1254.91037 0.00635
1253.62461 0.00634
1252.33884 0.00631
1251.05307 0.00628
1249.76730 0.00626
1248.48153 0.00628
1247.19576 0.00633
1245.90999 0.00638
1244.62422 0.00640
1243.33846 0.00636
1242.05269 0.00628
1240.76692 0.00621
1239.48115 0.00616
1238.19538 0.00614
1236.90961 0.00612
1235.62384 0.00612
1234.33807 0.00612
1233.05230 0.00612
1231.76654 0.00609
1230.48077 0.00604
1229.19500 0.00598
1227.90923 0.00595
1226.62346 0.00595
1225.33769 0.00597
1224.05192 0.00600
1222.76615 0.00602
1221.48039 0.00605
1220.19462 0.00607
1218.90885 0.00608
1217.62308 0.00609
1216.33731 0.00608
1215.05154 0.00606
1213.76577 0.00604
1212.48000 0.00601
1211.19423 0.00598
1209.90847 0.00595
1208.62270 0.00593
1207.33693 0.00594
1206.05116 0.00597
1204.76539 0.00601
1203.47962 0.00605
1202.19385 0.00608
1200.90808 0.00605
1199.62232 0.00599
1198.33655 0.00604
1197.05078 0.00604
1195.76501 0.00599
1194.47924 0.00594
1193.19347 0.00597
1191.90770 0.00607
1190.62193 0.00617
1189.33616 0.00621
1188.05040 0.00619
1186.76463 0.00617
1185.47886 0.00618
1184.19309 0.00619
1182.90732 0.00617
1181.62155 0.00615
1180.33578 0.00617
1179.05001 0.00620
1177.76425 0.00620
1176.47848 0.00617
1175.19271 0.00613
1173.90694 0.00612
1172.62117 0.00620
1171.33540 0.00636
1170.04963 0.00660
1168.76386 0.00684
1167.47809 0.00702
1166.19233 0.00712
1164.90656 0.00716
1163.62079 0.00716
1162.33502 0.00716
1161.04925 0.00721
1159.76348 0.00733
1158.47771 0.00754
1157.19194 0.00778
1155.90618 0.00801
1154.62041 0.00819
1153.33464 0.00837
1152.04887 0.00858
1150.76310 0.00881
1149.47733 0.00901
1148.19156 0.00917
1146.90579 0.00939
1145.62002 0.00973
1144.33426 0.01016
1143.04849 0.01064
1141.76272 0.01112
1140.47695 0.01158
1139.19118 0.01202
1137.90541 0.01245
1136.61964 0.01291
1135.33387 0.01347
1134.04811 0.01421
1132.76234 0.01517
1131.47657 0.01631
1130.19080 0.01752
1128.90503 0.01875
1127.61926 0.01994
1126.33349 0.02113
1125.04772 0.02239
1123.76195 0.02379
1122.47619 0.02534
1121.19042 0.02698
1119.90465 0.02864
1118.61888 0.03023
1117.33311 0.03174
1116.04734 0.03323
1114.76157 0.03475
1113.47580 0.03631
1112.19004 0.03789
1110.90427 0.03946
1109.61850 0.04102
1108.33273 0.04254
1107.04696 0.04400
1105.76119 0.04538
1104.47542 0.04671
1103.18965 0.04800
1101.90388 0.04926
1100.61812 0.05052
1099.33235 0.05178
1098.04658 0.05304
1096.76081 0.05426
1095.47504 0.05539
1094.18927 0.05638
1092.90350 0.05724
1091.61773 0.05802
1090.33197 0.05878
1089.04620 0.05957
1087.76043 0.06044
1086.47466 0.06137
1085.18889 0.06234
1083.90312 0.06330
1082.61735 0.06426
1081.33158 0.06525
1080.04581 0.06635
1078.76005 0.06757
1077.47428 0.06889
1076.18851 0.07023
1074.90274 0.07156
1073.61697 0.07291
1072.33120 0.07428
1071.04543 0.07567
1069.75966 0.07708
1068.47390 0.07849
1067.18813 0.07994
1065.90236 0.08143
1064.61659 0.08296
1063.33082 0.08448
1062.04505 0.08600
1060.75928 0.08748
1059.47351 0.08892
1058.18774 0.09031
1056.90198 0.09165
1055.61621 0.09295
1054.33044 0.09419
1053.04467 0.09537
1051.75890 0.09651
1050.47313 0.09771
1049.18736 0.09900
1047.90159 0.10036
1046.61583 0.10171
1045.33006 0.10303
1044.04429 0.10433
1042.75852 0.10563
1041.47275 0.10692
1040.18698 0.10819
1038.90121 0.10940
1037.61544 0.11052
1036.32967 0.11154
1035.04391 0.11245
1033.75814 0.11327
1032.47237 0.11395
1031.18660 0.11448
1029.90083 0.11481
1028.61506 0.11493
1027.32929 0.11483
1026.04352 0.11455
1024.75775 0.11410
1023.47199 0.11344
1022.18622 0.11254
1020.90045 0.11134
1019.61468 0.10989
1018.32891 0.10829
1017.04314 0.10659
1015.75737 0.10478
1014.47160 0.10276
1013.18584 0.10049
1011.90007 0.09797
1010.61430 0.09527
1009.32853 0.09243
1008.04276 0.08949
1006.75699 0.08647
1005.47122 0.08336
1004.18545 0.08014
1002.89968 0.07682
1001.61392 0.07346
1000.32815 0.07013
999.04238 0.06686
997.75661 0.06368
996.47084 0.06057
995.18507 0.05755
993.89930 0.05464
992.61353 0.05186
991.32777 0.04923
990.04200 0.04674
988.75623 0.04441
987.47046 0.04222
986.18469 0.04019
984.89892 0.03834
983.61315 0.03668
982.32738 0.03520
981.04161 0.03385
979.75585 0.03262
978.47008 0.03152
977.18431 0.03057
975.89854 0.02977
974.61277 0.02908
973.32700 0.02850
972.04123 0.02803
970.75546 0.02773
969.46970 0.02762
968.18393 0.02768
966.89816 0.02792
965.61239 0.02833
964.32662 0.02881
963.04085 0.02922
961.75508 0.02945
960.46931 0.02947
959.18354 0.02928
957.89778 0.02887
956.61201 0.02824
955.32624 0.02745
954.04047 0.02656
952.75470 0.02566
951.46893 0.02477
950.18316 0.02396
948.89739 0.02326
947.61163 0.02266
946.32586 0.02210
945.04009 0.02155
943.75432 0.02098
942.46855 0.02042
941.18278 0.01990
939.89701 0.01945
938.61124 0.01906
937.32547 0.01869
936.03971 0.01830
934.75394 0.01789
933.46817 0.01752
932.18240 0.01723
930.89663 0.01699
929.61086 0.01675
928.32509 0.01649
927.03932 0.01619
925.75356 0.01586
924.46779 0.01553
923.18202 0.01526
921.89625 0.01511
920.61048 0.01507
919.32471 0.01505
918.03894 0.01495
916.75317 0.01477
915.46740 0.01455
914.18164 0.01433
912.89587 0.01418
911.61010 0.01411
910.32433 0.01409
909.03856 0.01406
907.75279 0.01396
906.46702 0.01382
905.18125 0.01369
903.89549 0.01359
902.60972 0.01350
901.32395 0.01342
900.03818 0.01337
898.75241 0.01337
897.46664 0.01341
896.18087 0.01345
894.89510 0.01350
893.60933 0.01357
892.32357 0.01365
891.03780 0.01372
889.75203 0.01376
888.46626 0.01383
887.18049 0.01403
885.89472 0.01442
884.60895 0.01502
883.32318 0.01585
882.03742 0.01684
880.75165 0.01786
879.46588 0.01875
878.18011 0.01946
876.89434 0.02001
875.60857 0.02049
874.32280 0.02088
873.03703 0.02112
871.75126 0.02111
870.46550 0.02084
869.17973 0.02037
867.89396 0.01977
866.60819 0.01907
865.32242 0.01830
864.03665 0.01751
862.75088 0.01673
861.46511 0.01597
860.17935 0.01527
858.89358 0.01471
857.60781 0.01431
856.32204 0.01403
855.03627 0.01381
853.75050 0.01363
852.46473 0.01349
851.17896 0.01335
849.89319 0.01318
848.60743 0.01300
847.32166 0.01283
846.03589 0.01271
844.75012 0.01262
843.46435 0.01257
842.17858 0.01256
840.89281 0.01257
839.60704 0.01256
838.32128 0.01254
837.03551 0.01254
835.74974 0.01259
834.46397 0.01268
833.17820 0.01274
831.89243 0.01269
830.60666 0.01252
829.32089 0.01227
828.03512 0.01207
826.74936 0.01200
825.46359 0.01205
824.17782 0.01211
822.89205 0.01212
821.60628 0.01205
820.32051 0.01193
819.03474 0.01180
817.74897 0.01172
816.46321 0.01175
815.17744 0.01184
813.89167 0.01191
812.60590 0.01191
811.32013 0.01186
810.03436 0.01179
808.74859 0.01172
807.46282 0.01166
806.17705 0.01163
804.89129 0.01163
803.60552 0.01166
802.31975 0.01172
801.03398 0.01177
799.74821 0.01180
798.46244 0.01180
797.17667 0.01179
795.89090 0.01178
794.60513 0.01177
793.31937 0.01178
792.03360 0.01182
790.74783 0.01185
789.46206 0.01182
788.17629 0.01170
786.89052 0.01153
785.60475 0.01137
784.31898 0.01127
783.03322 0.01124
781.74745 0.01126
780.46168 0.01133
779.17591 0.01145
777.89014 0.01164
776.60437 0.01182
775.31860 0.01187
774.03283 0.01180
772.74706 0.01173
771.46130 0.01176
770.17553 0.01188
768.88976 0.01200
767.60399 0.01203
766.31822 0.01199
765.03245 0.01193
763.74668 0.01185
762.46091 0.01176
761.17515 0.01171
759.88938 0.01174
758.60361 0.01185
757.31784 0.01196
756.03207 0.01199
754.74630 0.01200
753.46053 0.01204
752.17476 0.01212
750.88899 0.01216
749.60323 0.01214
748.31746 0.01208
747.03169 0.01198
745.74592 0.01186
744.46015 0.01177
743.17438 0.01176
741.88861 0.01182
740.60284 0.01191
739.31708 0.01199
738.03131 0.01201
736.74554 0.01195
735.45977 0.01184
734.17400 0.01173
732.88823 0.01164
731.60246 0.01157
730.31669 0.01155
729.03092 0.01158
727.74516 0.01163
726.45939 0.01159
725.17362 0.01142
723.88785 0.01123
722.60208 0.01117
721.31631 0.01132
720.03054 0.01162
718.74477 0.01192
717.45901 0.01205
716.17324 0.01199
714.88747 0.01183
713.60170 0.01171
712.31593 0.01166
711.03016 0.01169
709.74439 0.01175
708.45862 0.01182
707.17285 0.01189
705.88709 0.01198
704.60132 0.01208
703.31555 0.01216
702.02978 0.01220
700.74401 0.01219
699.45824 0.01219
698.17247 0.01221
696.88670 0.01224
695.60094 0.01227
694.31517 0.01228
693.02940 0.01225
691.74363 0.01219
690.45786 0.01216
689.17209 0.01218
687.88632 0.01225
686.60055 0.01230
685.31478 0.01232
684.02902 0.01230
682.74325 0.01226
681.45748 0.01224
680.17171 0.01222
678.88594 0.01221
677.60017 0.01223
676.31440 0.01232
675.02863 0.01251
673.74287 0.01279
672.45710 0.01314
671.17133 0.01337
669.88556 0.01305
668.59979 0.01209
667.31402 0.01192
666.02825 0.01283
664.74248 0.01306
663.45671 0.01276
662.17095 0.01246
660.88518 0.01231
659.59941 0.01230
658.31364 0.01238
657.02787 0.01248
655.74210 0.01258
654.45633 0.01269
653.17056 0.01279
651.88480 0.01284
650.59903 0.01282
649.31326 0.01275
648.02749 0.01271
646.74172 0.01272
645.45595 0.01279
644.17018 0.01290
642.88441 0.01305
641.59864 0.01323
640.31288 0.01342
639.02711 0.01360
637.74134 0.01376
636.45557 0.01392
635.16980 0.01413
633.88403 0.01444
632.59826 0.01484
631.31249 0.01534
630.02673 0.01640
628.74096 0.01798
627.45519 0.01785
626.16942 0.01974
624.88365 0.02302
623.59788 0.02620
622.31211 0.02869
621.02634 0.03007
619.74057 0.02984
618.45481 0.02792
617.16904 0.02545
615.88327 0.02430
614.59750 0.02583
613.31173 0.02997
612.02596 0.03544
610.74019 0.04059
609.45442 0.04442
608.16866 0.04707
606.88289 0.04918
605.59712 0.05084
604.31135 0.05158
603.02558 0.05103
601.73981 0.04950
600.45404 0.04754
599.16827 0.04550
597.88250 0.04352
596.59674 0.04174
595.31097 0.04037
594.02520 0.03952
592.73943 0.03911
591.45366 0.03892
590.16789 0.03879
588.88212 0.03874
587.59635 0.03894
586.31059 0.03950
585.02482 0.04042
583.73905 0.04158
582.45328 0.04284
581.16751 0.04417
579.88174 0.04557
578.59597 0.04705
577.31020 0.04853
576.02443 0.04995
574.73867 0.05125
573.45290 0.05245
572.16713 0.05365
570.88136 0.05494
569.59559 0.05643
568.30982 0.05816
567.02405 0.06002
565.73828 0.06172
564.45251 0.06295
563.16675 0.06338
561.88098 0.06281
560.59521 0.06117
559.30944 0.05852
558.02367 0.05513
556.73790 0.05136
555.45213 0.04756
554.16636 0.04395
552.88060 0.04064
551.59483 0.03771
550.30906 0.03521
549.02329 0.03308
547.73752 0.03117
546.45175 0.02938
545.16598 0.02767
543.88021 0.02615
542.59444 0.02488
541.30868 0.02384
540.02291 0.02291
538.73714 0.02201
537.45137 0.02117
536.16560 0.02045
534.87983 0.01983
533.59406 0.01927
532.30829 0.01876
531.02253 0.01836
529.73676 0.01806
528.45099 0.01779
527.16522 0.01747
525.87945 0.01710
524.59368 0.01676
523.30791 0.01648
522.02214 0.01622
520.73637 0.01592
519.45061 0.01556
518.16484 0.01521
516.87907 0.01495
515.59330 0.01478
514.30753 0.01465
513.02176 0.01447
511.73599 0.01421
510.45022 0.01392
509.16446 0.01366
507.87869 0.01345
506.59292 0.01328
505.30715 0.01312
504.02138 0.01297
502.73561 0.01280
501.44984 0.01264
500.16407 0.01253
498.87830 0.01252
497.59254 0.01256
496.30677 0.01257
495.02100 0.01252
493.73523 0.01242
492.44946 0.01232
491.16369 0.01222
489.87792 0.01208
488.59215 0.01188
487.30639 0.01166
486.02062 0.01152
484.73485 0.01155
483.44908 0.01177
482.16331 0.01205
480.87754 0.01224
479.59177 0.01226
478.30600 0.01218
477.02023 0.01214
475.73447 0.01220
474.44870 0.01233
473.16293 0.01246
471.87716 0.01257
470.59139 0.01265
469.30562 0.01267
468.01985 0.01263
466.73408 0.01259
465.44832 0.01262
464.16255 0.01266
462.87678 0.01263
461.59101 0.01248
460.30524 0.01227
459.01947 0.01209
457.73370 0.01197
456.44793 0.01189
455.16216 0.01181
453.87640 0.01173
452.59063 0.01167
451.30486 0.01166
450.01909 0.01166
448.73332 0.01162
447.44755 0.01155
446.16178 0.01150
444.87601 0.01151
443.59025 0.01152
442.30448 0.01148
441.01871 0.01137
439.73294 0.01127
438.44717 0.01124
437.16140 0.01128
435.87563 0.01133
434.58986 0.01139
433.30409 0.01144
432.01833 0.01148
430.73256 0.01149
429.44679 0.01144
428.16102 0.01136
426.87525 0.01133
425.58948 0.01137
424.30371 0.01147
423.01794 0.01158
421.73218 0.01166
420.44641 0.01170
419.16064 0.01170
417.87487 0.01166
416.58910 0.01159
415.30333 0.01157
414.01756 0.01163
412.73179 0.01174
411.44602 0.01183
410.16026 0.01187
408.87449 0.01190
407.58872 0.01196
406.30295 0.01207
405.01718 0.01220
403.73141 0.01232
402.44564 0.01240
401.15987 0.01247
399.87411 0.01256
