3997.45528 0.04707
3996.16951 0.04734
3994.88374 0.04776
3993.59798 0.04810
3992.31221 0.04816
3991.02644 0.04801
3989.74067 0.04794
3988.45490 0.04834
3987.16913 0.04929
3985.88336 0.05036
3984.59759 0.05077
3983.31183 0.05000
3982.02606 0.04828
3980.74029 0.04646
3979.45452 0.04534
3978.16875 0.04512
3976.88298 0.04541
3975.59721 0.04582
3974.31144 0.04628
3973.02567 0.04688
3971.73991 0.04752
3970.45414 0.04788
3969.16837 0.04778
3967.88260 0.04745
3966.59683 0.04734
3965.31106 0.04763
3964.02529 0.04797
3962.73952 0.04788
3961.45376 0.04738
3960.16799 0.04698
3958.88222 0.04716
3957.59645 0.04770
3956.31068 0.04788
3955.02491 0.04726
3953.73914 0.04615
3952.45337 0.04541
3951.16760 0.04556
3949.88184 0.04619
3948.59607 0.04646
3947.31030 0.04599
3946.02453 0.04519
3944.73876 0.04476
3943.45299 0.04507
3942.16722 0.04604
3940.88145 0.04725
3939.59569 0.04815
3938.30992 0.04839
3937.02415 0.04816
3935.73838 0.04794
3934.45261 0.04800
3933.16684 0.04812
3931.88107 0.04782
3930.59530 0.04696
3929.30953 0.04592
3928.02377 0.04529
3926.73800 0.04544
3925.45223 0.04625
3924.16646 0.04725
3922.88069 0.04776
3921.59492 0.04733
3920.30915 0.04608
3919.02338 0.04452
3917.73762 0.04331
3916.45185 0.04296
3915.16608 0.04345
3913.88031 0.04423
3912.59454 0.04467
3911.30877 0.04467
3910.02300 0.04466
3908.73723 0.04499
3907.45146 0.04548
3906.16570 0.04571
3904.87993 0.04568
3903.59416 0.04570
3902.30839 0.04591
3901.02262 0.04613
3899.73685 0.04617
3898.45108 0.04608
3897.16531 0.04602
3895.87955 0.04616
3894.59378 0.04659
3893.30801 0.04718
3892.02224 0.04771
3890.73647 0.04812
3889.45070 0.04828
3888.16493 0.04783
3886.87916 0.04681
3885.59339 0.04588
3884.30763 0.04563
3883.02186 0.04592
3881.73609 0.04619
3880.45032 0.04617
3879.16455 0.04585
3877.87878 0.04518
3876.59301 0.04414
3875.30724 0.04304
3874.02148 0.04243
3872.73571 0.04264
3871.44994 0.04360
3870.16417 0.04501
3868.87840 0.04624
3867.59263 0.04644
3866.30686 0.04553
3865.02109 0.04450
3863.73532 0.04419
3862.44956 0.04441
3861.16379 0.04459
3859.87802 0.04464
3858.59225 0.04489
3857.30648 0.04546
3856.02071 0.04598
3854.73494 0.04614
3853.44917 0.04619
3852.16341 0.04643
3850.87764 0.04681
3849.59187 0.04719
3848.30610 0.04745
3847.02033 0.04739
3845.73456 0.04691
3844.44879 0.04612
3843.16302 0.04538
3841.87725 0.04500
3840.59149 0.04489
3839.30572 0.04460
3838.01995 0.04386
3836.73418 0.04279
3835.44841 0.04184
3834.16264 0.04154
3832.87687 0.04202
3831.59110 0.04283
3830.30534 0.04335
3829.01957 0.04331
3827.73380 0.04286
3826.44803 0.04236
3825.16226 0.04199
3823.87649 0.04171
3822.59072 0.04157
3821.30495 0.04182
3820.01918 0.04253
3818.73342 0.04329
3817.44765 0.04385
3816.16188 0.04448
3814.87611 0.04523
3813.59034 0.04548
3812.30457 0.04496
3811.01880 0.04431
3809.73303 0.04409
3808.44726 0.04422
3807.16150 0.04440
3805.87573 0.04450
3804.58996 0.04433
3803.30419 0.04377
3802.01842 0.04322
3800.73265 0.04319
3799.44688 0.04361
3798.16111 0.04405
3796.87535 0.04448
3795.58958 0.04499
3794.30381 0.04538
3793.01804 0.04540
3791.73227 0.04517
3790.44650 0.04492
3789.16073 0.04468
3787.87496 0.04430
3786.58919 0.04368
3785.30343 0.04293
3784.01766 0.04226
3782.73189 0.04169
3781.44612 0.04115
3780.16035 0.04073
3778.87458 0.04068
3777.58881 0.04103
3776.30304 0.04154
3775.01728 0.04195
3773.73151 0.04211
3772.44574 0.04196
3771.15997 0.04172
3769.87420 0.04182
3768.58843 0.04248
3767.30266 0.04347
3766.01689 0.04437
3764.73112 0.04487
3763.44536 0.04477
3762.15959 0.04402
3760.87382 0.04284
3759.58805 0.04166
3758.30228 0.04090
3757.01651 0.04086
3755.73074 0.04147
3754.44497 0.04222
3753.15921 0.04271
3751.87344 0.04295
3750.58767 0.04303
3749.30190 0.04302
3748.01613 0.04293
3746.73036 0.04251
3745.44459 0.04183
3744.15882 0.04157
3742.87305 0.04189
3741.58729 0.04223
3740.30152 0.04223
3739.01575 0.04187
3737.72998 0.04110
3736.44421 0.04015
3735.15844 0.03951
3733.87267 0.03938
3732.58690 0.03966
3731.30114 0.04017
3730.01537 0.04047
3728.72960 0.04006
3727.44383 0.03911
3726.15806 0.03840
3724.87229 0.03846
3723.58652 0.03916
3722.30075 0.03999
3721.01498 0.04063
3719.72922 0.04109
3718.44345 0.04157
3717.15768 0.04204
3715.87191 0.04211
3714.58614 0.04144
3713.30037 0.04029
3712.01460 0.03929
3710.72883 0.03875
3709.44307 0.03849
3708.15730 0.03843
3706.87153 0.03882
3705.58576 0.03971
3704.29999 0.04059
3703.01422 0.04078
3701.72845 0.04011
3700.44268 0.03906
3699.15691 0.03827
3697.87115 0.03800
3696.58538 0.03804
3695.29961 0.03810
3694.01384 0.03815
3692.72807 0.03844
3691.44230 0.03901
3690.15653 0.03945
3688.87076 0.03943
3687.58500 0.03926
3686.29923 0.03949
3685.01346 0.04029
3683.72769 0.04126
3682.44192 0.04159
3681.15615 0.04084
3679.87038 0.03954
3678.58461 0.03851
3677.29884 0.03797
3676.01308 0.03797
3674.72731 0.03865
3673.44154 0.03989
3672.15577 0.04123
3670.87000 0.04241
3669.58423 0.04334
3668.29846 0.04374
3667.01269 0.04347
3665.72693 0.04273
3664.44116 0.04176
3663.15539 0.04078
3661.86962 0.04016
3660.58385 0.04007
3659.29808 0.04030
3658.01231 0.04050
3656.72654 0.04071
3655.44077 0.04125
3654.15501 0.04205
3652.86924 0.04263
3651.58347 0.04260
3650.29770 0.04196
3649.01193 0.04107
3647.72616 0.04041
3646.44039 0.04022
3645.15462 0.04032
3643.86886 0.04038
3642.58309 0.04047
3641.29732 0.04092
3640.01155 0.04190
3638.72578 0.04312
3637.44001 0.04417
3636.15424 0.04475
3634.86847 0.04490
3633.58270 0.04491
3632.29694 0.04493
3631.01117 0.04478
3629.72540 0.04448
3628.43963 0.04435
3627.15386 0.04444
3625.86809 0.04434
3624.58232 0.04377
3623.29655 0.04289
3622.01079 0.04208
3620.72502 0.04175
3619.43925 0.04215
3618.15348 0.04317
3616.86771 0.04434
3615.58194 0.04525
3614.29617 0.04584
3613.01040 0.04618
3611.72463 0.04618
3610.43887 0.04575
3609.15310 0.04525
3607.86733 0.04536
3606.58156 0.04628
3605.29579 0.04752
3604.01002 0.04842
3602.72425 0.04870
3601.43848 0.04862
3600.15272 0.04861
3598.86695 0.04892
3597.58118 0.04937
3596.29541 0.04950
3595.00964 0.04894
3593.72387 0.04787
3592.43810 0.04707
3591.15233 0.04714
3589.86656 0.04804
3588.58080 0.04912
3587.29503 0.04982
3586.00926 0.05001
3584.72349 0.04990
3583.43772 0.04973
3582.15195 0.04959
3580.86618 0.04955
3579.58041 0.04982
3578.29464 0.05061
3577.00888 0.05189
3575.72311 0.05329
3574.43734 0.05434
3573.15157 0.05472
3571.86580 0.05435
3570.58003 0.05340
3569.29426 0.05230
3568.00849 0.05163
3566.72273 0.05185
3565.43696 0.05297
3564.15119 0.05455
3562.86542 0.05609
3561.57965 0.05723
3560.29388 0.05778
3559.00811 0.05772
3557.72234 0.05722
3556.43657 0.05668
3555.15081 0.05641
3553.86504 0.05644
3552.57927 0.05659
3551.29350 0.05669
3550.00773 0.05670
3548.72196 0.05664
3547.43619 0.05664
3546.15042 0.05687
3544.86466 0.05740
3543.57889 0.05807
3542.29312 0.05867
3541.00735 0.05912
3539.72158 0.05937
3538.43581 0.05931
3537.15004 0.05898
3535.86427 0.05863
3534.57850 0.05847
3533.29274 0.05848
3532.00697 0.05852
3530.72120 0.05861
3529.43543 0.05898
3528.14966 0.05969
3526.86389 0.06062
3525.57812 0.06145
3524.29235 0.06192
3523.00659 0.06182
3521.72082 0.06112
3520.43505 0.06012
3519.14928 0.05934
3517.86351 0.05925
3516.57774 0.05992
3515.29197 0.06102
3514.00620 0.06203
3512.72043 0.06249
3511.43467 0.06223
3510.14890 0.06154
3508.86313 0.06091
3507.57736 0.06062
3506.29159 0.06064
3505.00582 0.06096
3503.72005 0.06171
3502.43428 0.06276
3501.14852 0.06363
3499.86275 0.06388
3498.57698 0.06348
3497.29121 0.06271
3496.00544 0.06184
3494.71967 0.06120
3493.43390 0.06114
3492.14813 0.06179
3490.86236 0.06282
3489.57660 0.06362
3488.29083 0.06383
3487.00506 0.06356
3485.71929 0.06325
3484.43352 0.06328
3483.14775 0.06372
3481.86198 0.06434
3480.57621 0.06493
3479.29045 0.06547
3478.00468 0.06608
3476.71891 0.06673
3475.43314 0.06718
3474.14737 0.06724
3472.86160 0.06709
3471.57583 0.06704
3470.29006 0.06721
3469.00429 0.06752
3467.71853 0.06789
3466.43276 0.06833
3465.14699 0.06878
3463.86122 0.06902
3462.57545 0.06890
3461.28968 0.06845
3460.00391 0.06794
3458.71814 0.06761
3457.43238 0.06753
3456.14661 0.06770
3454.86084 0.06812
3453.57507 0.06877
3452.28930 0.06934
3451.00353 0.06949
3449.71776 0.06927
3448.43199 0.06914
3447.14622 0.06947
3445.86046 0.07013
3444.57469 0.07066
3443.28892 0.07074
3442.00315 0.07042
3440.71738 0.07004
3439.43161 0.06996
3438.14584 0.07029
3436.86007 0.07080
3435.57431 0.07122
3434.28854 0.07146
3433.00277 0.07168
3431.71700 0.07194
3430.43123 0.07211
3429.14546 0.07186
3427.85969 0.07098
3426.57392 0.06969
3425.28815 0.06855
3424.00239 0.06803
3422.71662 0.06826
3421.43085 0.06899
3420.14508 0.06989
3418.85931 0.07072
3417.57354 0.07139
3416.28777 0.07192
3415.00200 0.07239
3413.71624 0.07275
3412.43047 0.07291
3411.14470 0.07284
3409.85893 0.07269
3408.57316 0.07273
3407.28739 0.07320
3406.00162 0.07412
3404.71585 0.07522
3403.43008 0.07615
3402.14432 0.07675
3400.85855 0.07713
3399.57278 0.07734
3398.28701 0.07718
3397.00124 0.07655
3395.71547 0.07559
3394.42970 0.07475
3393.14393 0.07442
3391.85817 0.07460
3390.57240 0.07500
3389.28663 0.07542
3388.00086 0.07585
3386.71509 0.07623
3385.42932 0.07633
3384.14355 0.07607
3382.85778 0.07573
3381.57201 0.07566
3380.28625 0.07586
3379.00048 0.07595
3377.71471 0.07557
3376.42894 0.07476
3375.14317 0.07390
3373.85740 0.07346
3372.57163 0.07375
3371.28586 0.07473
3370.00010 0.07600
3368.71433 0.07698
3367.42856 0.07731
3366.14279 0.07703
3364.85702 0.07645
3363.57125 0.07588
3362.28548 0.07553
3360.99971 0.07538
3359.71394 0.07532
3358.42818 0.07521
3357.14241 0.07506
3355.85664 0.07502
3354.57087 0.07515
3353.28510 0.07535
3351.99933 0.07537
3350.71356 0.07507
3349.42779 0.07458
3348.14202 0.07424
3346.85626 0.07436
3345.57049 0.07492
3344.28472 0.07565
3342.99895 0.07623
3341.71318 0.07650
3340.42741 0.07650
3339.14164 0.07633
3337.85587 0.07608
3336.57011 0.07588
3335.28434 0.07585
3333.99857 0.07599
3332.71280 0.07624
3331.42703 0.07652
3330.14126 0.07681
3328.85549 0.07706
3327.56972 0.07726
3326.28395 0.07739
3324.99819 0.07749
3323.71242 0.07759
3322.42665 0.07769
3321.14088 0.07770
3319.85511 0.07748
3318.56934 0.07697
3317.28357 0.07630
3315.99780 0.07579
3314.71204 0.07571
3313.42627 0.07609
3312.14050 0.07665
3310.85473 0.07704
3309.56896 0.07711
3308.28319 0.07701
3306.99742 0.07690
3305.71165 0.07681
3304.42588 0.07667
3303.14012 0.07652
3301.85435 0.07639
3300.56858 0.07629
3299.28281 0.07623
3297.99704 0.07622
3296.71127 0.07624
3295.42550 0.07621
3294.13973 0.07610
3292.85397 0.07605
3291.56820 0.07627
3290.28243 0.07675
3288.99666 0.07716
3287.71089 0.07715
3286.42512 0.07671
3285.13935 0.07609
3283.85358 0.07551
3282.56781 0.07513
3281.28205 0.07517
3279.99628 0.07578
3278.71051 0.07671
3277.42474 0.07742
3276.13897 0.07758
3274.85320 0.07731
3273.56743 0.07690
3272.28166 0.07655
3270.99590 0.07635
3269.71013 0.07632
3268.42436 0.07635
3267.13859 0.07632
3265.85282 0.07624
3264.56705 0.07626
3263.28128 0.07647
3261.99551 0.07679
3260.70974 0.07700
3259.42398 0.07688
3258.13821 0.07630
3256.85244 0.07533
3255.56667 0.07419
3254.28090 0.07316
3252.99513 0.07251
3251.70936 0.07239
3250.42359 0.07271
3249.13783 0.07317
3247.85206 0.07339
3246.56629 0.07324
3245.28052 0.07289
3243.99475 0.07269
3242.70898 0.07284
3241.42321 0.07334
3240.13744 0.07398
3238.85167 0.07450
3237.56591 0.07479
3236.28014 0.07490
3234.99437 0.07488
3233.70860 0.07474
3232.42283 0.07453
3231.13706 0.07438
3229.85129 0.07443
3228.56552 0.07455
3227.27976 0.07445
3225.99399 0.07399
3224.70822 0.07344
3223.42245 0.07313
3222.13668 0.07307
3220.85091 0.07298
3219.56514 0.07275
3218.27937 0.07254
3216.99360 0.07255
3215.70784 0.07277
3214.42207 0.07300
3213.13630 0.07306
3211.85053 0.07293
3210.56476 0.07270
3209.27899 0.07251
3207.99322 0.07242
3206.70745 0.07231
3205.42169 0.07200
3204.13592 0.07141
3202.85015 0.07064
3201.56438 0.06997
3200.27861 0.06971
3198.99284 0.06997
3197.70707 0.07053
3196.42130 0.07090
3195.13553 0.07079
3193.84977 0.07031
3192.56400 0.06982
3191.27823 0.06953
3189.99246 0.06935
3188.70669 0.06907
3187.42092 0.06865
3186.13515 0.06832
3184.84938 0.06837
3183.56362 0.06882
3182.27785 0.06941
3180.99208 0.06975
3179.70631 0.06961
3178.42054 0.06906
3177.13477 0.06838
3175.84900 0.06778
3174.56323 0.06728
3173.27746 0.06686
3171.99170 0.06655
3170.70593 0.06648
3169.42016 0.06661
3168.13439 0.06672
3166.84862 0.06661
3165.56285 0.06629
3164.27708 0.06595
3162.99131 0.06572
3161.70555 0.06559
3160.41978 0.06554
3159.13401 0.06559
3157.84824 0.06575
3156.56247 0.06592
3155.27670 0.06604
3153.99093 0.06608
3152.70516 0.06602
3151.41939 0.06578
3150.13363 0.06539
3148.84786 0.06508
3147.56209 0.06516
3146.27632 0.06566
3144.99055 0.06634
3143.70478 0.06687
3142.41901 0.06711
3141.13324 0.06708
3139.84748 0.06694
3138.56171 0.06677
3137.27594 0.06654
3135.99017 0.06619
3134.70440 0.06580
3133.41863 0.06548
3132.13286 0.06531
3130.84709 0.06520
3129.56132 0.06514
3128.27556 0.06513
3126.98979 0.06512
3125.70402 0.06505
3124.41825 0.06486
3123.13248 0.06453
3121.84671 0.06403
3120.56094 0.06332
3119.27517 0.06250
3117.98940 0.06182
3116.70364 0.06151
3115.41787 0.06160
3114.13210 0.06196
3112.84633 0.06241
3111.56056 0.06281
3110.27479 0.06305
3108.98902 0.06304
3107.70325 0.06288
3106.41749 0.06274
3105.13172 0.06271
3103.84595 0.06271
3102.56018 0.06263
3101.27441 0.06248
3099.98864 0.06240
3098.70287 0.06246
3097.41710 0.06261
3096.13133 0.06267
3094.84557 0.06252
3093.55980 0.06219
3092.27403 0.06187
3090.98826 0.06169
3089.70249 0.06163
3088.41672 0.06149
3087.13095 0.06111
3085.84518 0.06057
3084.55942 0.06009
3083.27365 0.05988
3081.98788 0.06002
3080.70211 0.06039
3079.41634 0.06079
3078.13057 0.06098
3076.84480 0.06087
3075.55903 0.06064
3074.27326 0.06057
3072.98750 0.06078
3071.70173 0.06114
3070.41596 0.06143
3069.13019 0.06158
3067.84442 0.06161
3066.55865 0.06149
3065.27288 0.06119
3063.98711 0.06079
3062.70135 0.06051
3061.41558 0.06053
3060.12981 0.06083
3058.84404 0.06114
3057.55827 0.06116
3056.27250 0.06081
3054.98673 0.06026
3053.70096 0.05975
3052.41519 0.05937
3051.12943 0.05906
3049.84366 0.05877
3048.55789 0.05852
3047.27212 0.05836
3045.98635 0.05824
3044.70058 0.05809
3043.41481 0.05786
3042.12904 0.05757
3040.84328 0.05735
3039.55751 0.05730
3038.27174 0.05741
3036.98597 0.05758
3035.70020 0.05766
3034.41443 0.05765
3033.12866 0.05761
3031.84289 0.05767
3030.55712 0.05785
3029.27136 0.05804
3027.98559 0.05801
3026.69982 0.05763
3025.41405 0.05700
3024.12828 0.05636
3022.84251 0.05589
3021.55674 0.05563
3020.27097 0.05549
3018.98521 0.05545
3017.69944 0.05550
3016.41367 0.05565
3015.12790 0.05590
3013.84213 0.05616
3012.55636 0.05629
3011.27059 0.05611
3009.98482 0.05560
3008.69905 0.05501
3007.41329 0.05472
3006.12752 0.05489
3004.84175 0.05536
3003.55598 0.05577
3002.27021 0.05589
3000.98444 0.05574
2999.69867 0.05545
2998.41290 0.05515
2997.12714 0.05495
2995.84137 0.05489
2994.55560 0.05499
2993.26983 0.05519
2991.98406 0.05534
2990.69829 0.05535
2989.41252 0.05530
2988.12675 0.05537
2986.84098 0.05565
2985.55522 0.05607
2984.26945 0.05649
2982.98368 0.05674
2981.69791 0.05678
2980.41214 0.05672
2979.12637 0.05673
2977.84060 0.05687
2976.55483 0.05706
2975.26907 0.05724
2973.98330 0.05739
2972.69753 0.05750
2971.41176 0.05753
2970.12599 0.05752
2968.84022 0.05759
2967.55445 0.05784
2966.26868 0.05827
2964.98291 0.05883
2963.69715 0.05954
2962.41138 0.06044
2961.12561 0.06142
2959.83984 0.06223
2958.55407 0.06264
2957.26830 0.06268
2955.98253 0.06256
2954.69676 0.06250
2953.41100 0.06238
2952.12523 0.06198
2950.83946 0.06125
2949.55369 0.06053
2948.26792 0.06027
2946.98215 0.06061
2945.69638 0.06129
2944.41061 0.06189
2943.12484 0.06215
2941.83908 0.06203
2940.55331 0.06173
2939.26754 0.06151
2937.98177 0.06156
2936.69600 0.06182
2935.41023 0.06214
2934.12446 0.06249
2932.83869 0.06295
2931.55293 0.06344
2930.26716 0.06374
2928.98139 0.06371
2927.69562 0.06350
2926.40985 0.06333
2925.12408 0.06326
2923.83831 0.06316
2922.55254 0.06287
2921.26677 0.06234
2919.98101 0.06169
2918.69524 0.06110
2917.40947 0.06070
2916.12370 0.06045
2914.83793 0.06021
2913.55216 0.05996
2912.26639 0.05975
2910.98062 0.05963
2909.69486 0.05955
2908.40909 0.05942
2907.12332 0.05923
2905.83755 0.05904
2904.55178 0.05888
2903.26601 0.05868
2901.98024 0.05835
2900.69447 0.05793
2899.40870 0.05755
2898.12294 0.05731
2896.83717 0.05718
2895.55140 0.05711
2894.26563 0.05705
2892.97986 0.05697
2891.69409 0.05687
2890.40832 0.05669
2889.12255 0.05644
2887.83678 0.05618
2886.55102 0.05598
2885.26525 0.05587
2883.97948 0.05576
2882.69371 0.05561
2881.40794 0.05542
2880.12217 0.05519
2878.83640 0.05493
2877.55063 0.05474
2876.26487 0.05463
2874.97910 0.05454
2873.69333 0.05446
2872.40756 0.05444
2871.12179 0.05454
2869.83602 0.05465
2868.55025 0.05463
2867.26448 0.05449
2865.97871 0.05435
2864.69295 0.05429
2863.40718 0.05429
2862.12141 0.05422
2860.83564 0.05396
2859.54987 0.05358
2858.26410 0.05320
2856.97833 0.05291
2855.69256 0.05272
2854.40680 0.05263
2853.12103 0.05257
2851.83526 0.05243
2850.54949 0.05215
2849.26372 0.05174
2847.97795 0.05123
2846.69218 0.05070
2845.40641 0.05027
2844.12064 0.05002
2842.83488 0.04980
2841.54911 0.04945
2840.26334 0.04903
2838.97757 0.04879
2837.69180 0.04884
2836.40603 0.04901
2835.12026 0.04902
2833.83449 0.04881
2832.54873 0.04847
2831.26296 0.04815
2829.97719 0.04794
2828.69142 0.04784
2827.40565 0.04774
2826.11988 0.04742
2824.83411 0.04673
2823.54834 0.04582
2822.26257 0.04509
2820.97681 0.04489
2819.69104 0.04519
2818.40527 0.04568
2817.11950 0.04600
2815.83373 0.04596
2814.54796 0.04564
2813.26219 0.04525
2811.97642 0.04494
2810.69066 0.04472
2809.40489 0.04459
2808.11912 0.04454
2806.83335 0.04451
2805.54758 0.04440
2804.26181 0.04419
2802.97604 0.04402
2801.69027 0.04400
2800.40450 0.04406
2799.11874 0.04403
2797.83297 0.04384
2796.54720 0.04362
2795.26143 0.04355
2793.97566 0.04367
2792.68989 0.04385
2791.40412 0.04386
2790.11835 0.04359
2788.83259 0.04308
2787.54682 0.04256
2786.26105 0.04225
2784.97528 0.04230
2783.68951 0.04263
2782.40374 0.04306
2781.11797 0.04338
2779.83220 0.04346
2778.54643 0.04329
2777.26067 0.04304
2775.97490 0.04285
2774.68913 0.04274
2773.40336 0.04265
2772.11759 0.04253
2770.83182 0.04240
2769.54605 0.04228
2768.26028 0.04216
2766.97452 0.04207
2765.68875 0.04207
2764.40298 0.04213
2763.11721 0.04215
2761.83144 0.04210
2760.54567 0.04207
2759.25990 0.04216
2757.97413 0.04231
2756.68836 0.04234
2755.40260 0.04212
2754.11683 0.04172
2752.83106 0.04134
2751.54529 0.04113
2750.25952 0.04113
2748.97375 0.04126
2747.68798 0.04138
2746.40221 0.04136
2745.11645 0.04118
2743.83068 0.04095
2742.54491 0.04081
2741.25914 0.04077
2739.97337 0.04074
2738.68760 0.04066
2737.40183 0.04059
2736.11606 0.04056
2734.83029 0.04050
2733.54453 0.04037
2732.25876 0.04028
2730.97299 0.04032
2729.68722 0.04041
2728.40145 0.04039
2727.11568 0.04024
2725.82991 0.04007
2724.54414 0.03995
2723.25838 0.03983
2721.97261 0.03968
2720.68684 0.03953
2719.40107 0.03948
2718.11530 0.03953
2716.82953 0.03959
2715.54376 0.03953
2714.25799 0.03928
2712.97222 0.03894
2711.68646 0.03867
2710.40069 0.03853
2709.11492 0.03847
2707.82915 0.03839
2706.54338 0.03830
2705.25761 0.03832
2703.97184 0.03850
2702.68607 0.03876
2701.40031 0.03894
2700.11454 0.03897
2698.82877 0.03885
2697.54300 0.03861
2696.25723 0.03831
2694.97146 0.03804
2693.68569 0.03793
2692.39992 0.03803
2691.11415 0.03820
2689.82839 0.03822
2688.54262 0.03801
2687.25685 0.03772
2685.97108 0.03756
2684.68531 0.03755
2683.39954 0.03757
2682.11377 0.03747
2680.82800 0.03722
2679.54224 0.03696
2678.25647 0.03688
2676.97070 0.03714
2675.68493 0.03765
2674.39916 0.03812
2673.11339 0.03827
2671.82762 0.03806
2670.54185 0.03770
2669.25608 0.03742
2667.97032 0.03734
2666.68455 0.03742
2665.39878 0.03755
2664.11301 0.03761
2662.82724 0.03757
2661.54147 0.03748
2660.25570 0.03734
2658.96993 0.03712
2657.68417 0.03682
2656.39840 0.03656
2655.11263 0.03646
2653.82686 0.03646
2652.54109 0.03642
2651.25532 0.03630
2649.96955 0.03614
2648.68378 0.03602
2647.39801 0.03595
2646.11225 0.03595
2644.82648 0.03600
2643.54071 0.03607
2642.25494 0.03614
2640.96917 0.03622
2639.68340 0.03621
2638.39763 0.03593
2637.11186 0.03526
2635.82609 0.03434
2634.54033 0.03349
2633.25456 0.03304
2631.96879 0.03313
2630.68302 0.03366
2629.39725 0.03428
2628.11148 0.03461
2626.82571 0.03448
2625.53994 0.03410
2624.25418 0.03382
2622.96841 0.03380
2621.68264 0.03392
2620.39687 0.03401
2619.11110 0.03391
2617.82533 0.03355
2616.53956 0.03297
2615.25379 0.03235
2613.96802 0.03190
2612.68226 0.03175
2611.39649 0.03192
2610.11072 0.03227
2608.82495 0.03251
2607.53918 0.03244
2606.25341 0.03210
2604.96764 0.03170
2603.68187 0.03140
2602.39611 0.03125
2601.11034 0.03128
2599.82457 0.03150
2598.53880 0.03178
2597.25303 0.03189
2595.96726 0.03169
2594.68149 0.03134
2593.39572 0.03114
2592.10995 0.03111
2590.82419 0.03105
2589.53842 0.03081
2588.25265 0.03053
2586.96688 0.03035
2585.68111 0.03029
2584.39534 0.03027
2583.10957 0.03025
2581.82380 0.03021
2580.53804 0.03015
2579.25227 0.03011
2577.96650 0.03012
2576.68073 0.03008
2575.39496 0.02983
2574.10919 0.02934
2572.82342 0.02874
2571.53765 0.02825
2570.25188 0.02795
2568.96612 0.02785
2567.68035 0.02791
2566.39458 0.02818
2565.10881 0.02864
2563.82304 0.02912
2562.53727 0.02942
2561.25150 0.02941
2559.96573 0.02913
2558.67997 0.02874
2557.39420 0.02840
2556.10843 0.02830
2554.82266 0.02860
2553.53689 0.02915
2552.25112 0.02952
2550.96535 0.02928
2549.67958 0.02849
2548.39381 0.02772
2547.10805 0.02754
2545.82228 0.02804
2544.53651 0.02877
2543.25074 0.02920
2541.96497 0.02910
2540.67920 0.02852
2539.39343 0.02770
2538.10766 0.02697
2536.82190 0.02665
2535.53613 0.02692
2534.25036 0.02766
2532.96459 0.02841
2531.67882 0.02881
2530.39305 0.02875
2529.10728 0.02844
2527.82151 0.02809
2526.53574 0.02784
2525.24998 0.02778
2523.96421 0.02797
2522.67844 0.02835
2521.39267 0.02874
2520.10690 0.02887
2518.82113 0.02860
2517.53536 0.02805
2516.24959 0.02753
2514.96383 0.02729
2513.67806 0.02736
2512.39229 0.02757
2511.10652 0.02776
2509.82075 0.02782
2508.53498 0.02779
2507.24921 0.02776
2505.96344 0.02788
2504.67767 0.02817
2503.39191 0.02850
2502.10614 0.02859
2500.82037 0.02831
2499.53460 0.02786
2498.24883 0.02752
2496.96306 0.02740
2495.67729 0.02731
2494.39152 0.02713
2493.10576 0.02692
2491.81999 0.02687
2490.53422 0.02711
2489.24845 0.02762
2487.96268 0.02815
2486.67691 0.02850
2485.39114 0.02860
2484.10537 0.02854
2482.81960 0.02837
2481.53384 0.02804
2480.24807 0.02748
2478.96230 0.02677
2477.67653 0.02616
2476.39076 0.02585
2475.10499 0.02576
2473.81922 0.02571
2472.53345 0.02559
2471.24769 0.02549
2469.96192 0.02550
2468.67615 0.02566
2467.39038 0.02594
2466.10461 0.02622
2464.81884 0.02633
2463.53307 0.02618
2462.24730 0.02597
2460.96153 0.02604
2459.67577 0.02648
2458.39000 0.02697
2457.10423 0.02717
2455.81846 0.02709
2454.53269 0.02700
2453.24692 0.02703
2451.96115 0.02705
2450.67538 0.02688
2449.38962 0.02658
2448.10385 0.02640
2446.81808 0.02641
2445.53231 0.02636
2444.24654 0.02601
2442.96077 0.02546
2441.67500 0.02510
2440.38923 0.02516
2439.10346 0.02537
2437.81770 0.02532
2436.53193 0.02502
2435.24616 0.02482
2433.96039 0.02497
2432.67462 0.02531
2431.38885 0.02549
2430.10308 0.02539
2428.81731 0.02521
2427.53155 0.02522
2426.24578 0.02549
2424.96001 0.02577
2423.67424 0.02579
2422.38847 0.02553
2421.10270 0.02524
2419.81693 0.02516
2418.53116 0.02529
2417.24539 0.02537
2415.95963 0.02519
2414.67386 0.02482
2413.38809 0.02454
2412.10232 0.02451
2410.81655 0.02460
2409.53078 0.02465
2408.24501 0.02468
2406.95924 0.02483
2405.67347 0.02511
2404.38771 0.02530
2403.10194 0.02522
2401.81617 0.02490
2400.53040 0.02459
2399.24463 0.02450
2397.95886 0.02454
2396.67309 0.02456
2395.38732 0.02447
2394.10156 0.02437
2392.81579 0.02438
2391.53002 0.02448
2390.24425 0.02454
2388.95848 0.02443
2387.67271 0.02419
2386.38694 0.02396
2385.10117 0.02385
2383.81540 0.02386
2382.52964 0.02393
2381.24387 0.02404
2379.95810 0.02419
2378.67233 0.02442
2377.38656 0.02474
2376.10079 0.02506
2374.81502 0.02528
2373.52925 0.02532
2372.24349 0.02518
2370.95772 0.02495
2369.67195 0.02475
2368.38618 0.02471
2367.10041 0.02483
2365.81464 0.02502
2364.52887 0.02521
2363.24310 0.02538
2361.95733 0.02548
2360.67157 0.02542
2359.38580 0.02516
2358.10003 0.02484
2356.81426 0.02473
2355.52849 0.02495
2354.24272 0.02535
2352.95695 0.02564
2351.67118 0.02565
2350.38542 0.02544
2349.09965 0.02525
2347.81388 0.02526
2346.52811 0.02541
2345.24234 0.02558
2343.95657 0.02562
2342.67080 0.02547
2341.38503 0.02516
2340.09926 0.02484
2338.81350 0.02463
2337.52773 0.02457
2336.24196 0.02464
2334.95619 0.02482
2333.67042 0.02509
2332.38465 0.02541
2331.09888 0.02569
2329.81311 0.02583
2328.52735 0.02589
2327.24158 0.02599
2325.95581 0.02624
2324.67004 0.02656
2323.38427 0.02673
2322.09850 0.02662
2320.81273 0.02628
2319.52696 0.02593
2318.24119 0.02577
2316.95543 0.02579
2315.66966 0.02584
2314.38389 0.02576
2313.09812 0.02548
2311.81235 0.02509
2310.52658 0.02466
2309.24081 0.02427
2307.95504 0.02403
2306.66928 0.02397
2305.38351 0.02406
2304.09774 0.02417
2302.81197 0.02415
2301.52620 0.02395
2300.24043 0.02361
2298.95466 0.02320
2297.66889 0.02278
2296.38312 0.02239
2295.09736 0.02206
2293.81159 0.02185
2292.52582 0.02177
2291.24005 0.02184
2289.95428 0.02197
2288.66851 0.02210
2287.38274 0.02219
2286.09697 0.02219
2284.81121 0.02212
2283.52544 0.02201
2282.23967 0.02196
2280.95390 0.02198
2279.66813 0.02196
2278.38236 0.02168
2277.09659 0.02110
2275.81082 0.02040
2274.52505 0.01982
2273.23929 0.01952
2271.95352 0.01953
2270.66775 0.01973
2269.38198 0.01991
2268.09621 0.01981
2266.81044 0.01926
2265.52467 0.01836
2264.23890 0.01757
2262.95314 0.01734
2261.66737 0.01785
2260.38160 0.01881
2259.09583 0.01971
2257.81006 0.02009
2256.52429 0.01985
2255.23852 0.01927
2253.95275 0.01871
2252.66698 0.01832
2251.38122 0.01797
2250.09545 0.01752
2248.80968 0.01712
2247.52391 0.01702
2246.23814 0.01709
2244.95237 0.01706
2243.66660 0.01686
2242.38083 0.01672
2241.09507 0.01694
2239.80930 0.01760
2238.52353 0.01848
2237.23776 0.01922
2235.95199 0.01960
2234.66622 0.01961
2233.38045 0.01932
2232.09468 0.01872
2230.80891 0.01786
2229.52315 0.01704
2228.23738 0.01662
2226.95161 0.01662
2225.66584 0.01666
2224.38007 0.01634
2223.09430 0.01560
2221.80853 0.01463
2220.52276 0.01367
2219.23700 0.01299
2217.95123 0.01281
2216.66546 0.01315
2215.37969 0.01368
2214.09392 0.01400
2212.80815 0.01383
2211.52238 0.01325
2210.23661 0.01270
2208.95084 0.01283
2207.66508 0.01398
2206.37931 0.01569
2205.09354 0.01701
2203.80777 0.01729
2202.52200 0.01666
2201.23623 0.01571
2199.95046 0.01498
2198.66469 0.01464
2197.37893 0.01452
2196.09316 0.01429
2194.80739 0.01364
2193.52162 0.01247
2192.23585 0.01100
2190.95008 0.00985
2189.66431 0.00973
2188.37854 0.01098
2187.09277 0.01306
2185.80701 0.01475
2184.52124 0.01504
2183.23547 0.01391
2181.94970 0.01215
2180.66393 0.01051
2179.37816 0.00937
2178.09239 0.00896
2176.80662 0.00934
2175.52085 0.01025
2174.23509 0.01123
2172.94932 0.01200
2171.66355 0.01240
2170.37778 0.01224
2169.09201 0.01141
2167.80624 0.01027
2166.52047 0.00940
2165.23470 0.00916
2163.94894 0.00949
2162.66317 0.00997
2161.37740 0.00999
2160.09163 0.00913
2158.80586 0.00764
2157.52009 0.00637
2156.23432 0.00582
2154.94855 0.00566
2153.66278 0.00536
2152.37702 0.00492
2151.09125 0.00489
2149.80548 0.00573
2148.51971 0.00725
2147.23394 0.00878
2145.94817 0.00980
2144.66240 0.01019
2143.37663 0.01021
2142.09087 0.01018
2140.80510 0.01025
2139.51933 0.01034
2138.23356 0.01038
2136.94779 0.01046
2135.66202 0.01073
2134.37625 0.01113
2133.09048 0.01148
2131.80471 0.01179
2130.51895 0.01228
2129.23318 0.01307
2127.94741 0.01405
2126.66164 0.01483
2125.37587 0.01500
2124.09010 0.01450
2122.80433 0.01368
2121.51856 0.01309
2120.23280 0.01299
2118.94703 0.01326
2117.66126 0.01362
2116.37549 0.01397
2115.08972 0.01427
2113.80395 0.01450
2112.51818 0.01459
2111.23241 0.01447
2109.94664 0.01401
2108.66088 0.01321
2107.37511 0.01233
2106.08934 0.01184
2104.80357 0.01199
2103.51780 0.01255
2102.23203 0.01298
2100.94626 0.01299
2099.66049 0.01410
2098.37473 0.01447
2097.08896 0.01420
2095.80319 0.01371
2094.51742 0.01306
2093.23165 0.01247
2091.94588 0.01221
2090.66011 0.01239
2089.37434 0.01287
2088.08857 0.01339
2086.80281 0.01375
2085.51704 0.01392
2084.23127 0.01395
2082.94550 0.01384
2081.65973 0.01351
2080.37396 0.01292
2079.08819 0.01218
2077.80242 0.01144
2076.51666 0.01090
2075.23089 0.01067
2073.94512 0.01071
2072.65935 0.01074
2071.37358 0.01054
2070.08781 0.01022
2068.80204 0.01014
2067.51627 0.01040
2066.23050 0.01076
2064.94474 0.01083
2063.65897 0.01054
2062.37320 0.01001
2061.08743 0.00937
2059.80166 0.00867
2058.51589 0.00805
2057.23012 0.00780
2055.94435 0.00817
2054.65859 0.00913
2053.37282 0.01044
2052.08705 0.01171
2050.80128 0.01259
2049.51551 0.01279
2048.22974 0.01226
2046.94397 0.01122
2045.65820 0.01002
2044.37243 0.00894
2043.08667 0.00809
2041.80090 0.00746
2040.51513 0.00706
2039.22936 0.00704
2037.94359 0.00749
2036.65782 0.00806
2035.37205 0.00800
2034.08628 0.00701
2032.80052 0.00572
2031.51475 0.00512
2030.22898 0.00561
2028.94321 0.00669
2027.65744 0.00751
2026.37167 0.00756
2025.08590 0.00685
2023.80013 0.00582
2022.51436 0.00486
2021.22860 0.00414
2019.94283 0.00363
2018.65706 0.00331
2017.37129 0.00326
2016.08552 0.00356
2014.79975 0.00414
2013.51398 0.00490
2012.22821 0.00600
2010.94245 0.00766
2009.65668 0.00958
2008.37091 0.01087
2007.08514 0.01076
2005.79937 0.00949
2004.51360 0.00806
2003.22783 0.00730
2001.94206 0.00724
2000.65629 0.00741
1999.37053 0.00742
1998.08476 0.00724
1996.79899 0.00713
1995.51322 0.00721
1994.22745 0.00739
1992.94168 0.00758
1991.65591 0.00793
1990.37014 0.00866
1989.08438 0.00961
1987.79861 0.01027
1986.51284 0.01039
1985.22707 0.01028
1983.94130 0.01043
1982.65553 0.01095
1981.36976 0.01149
1980.08399 0.01168
1978.79822 0.01159
1977.51246 0.01164
1976.22669 0.01209
1974.94092 0.01268
1973.65515 0.01285
1972.36938 0.01228
1971.08361 0.01128
1969.79784 0.01044
1968.51207 0.01016
1967.22631 0.01037
1965.94054 0.01075
1964.65477 0.01103
1963.36900 0.01114
1962.08323 0.01114
1960.79746 0.01104
1959.51169 0.01087
1958.22592 0.01067
1956.94015 0.01049
1955.65439 0.01049
1954.36862 0.01082
1953.08285 0.01137
1951.79708 0.01176
1950.51131 0.01173
1949.22554 0.01153
1947.93977 0.01160
1946.65400 0.01204
1945.36823 0.01257
1944.08247 0.01298
1942.79670 0.01330
1941.51093 0.01349
1940.22516 0.01345
1938.93939 0.01315
1937.65362 0.01283
1936.36785 0.01270
1935.08208 0.01272
1933.79632 0.01284
1932.51055 0.01311
1931.22478 0.01366
1929.93901 0.01446
1928.65324 0.01519
1927.36747 0.01557
1926.08170 0.01553
1924.79593 0.01528
1923.51016 0.01505
1922.22440 0.01487
1920.93863 0.01453
1919.65286 0.01387
1918.36709 0.01317
1917.08132 0.01294
1915.79555 0.01342
1914.50978 0.01423
1913.22401 0.01469
1911.93825 0.01443
1910.65248 0.01371
1909.36671 0.01305
1908.08094 0.01278
1906.79517 0.01288
1905.50940 0.01320
1904.22363 0.01363
1902.93786 0.01404
1901.65209 0.01427
1900.36633 0.01422
1899.08056 0.01395
1897.79479 0.01361
1896.50902 0.01332
1895.22325 0.01320
1893.93748 0.01337
1892.65171 0.01385
1891.36594 0.01436
1890.08018 0.01454
1888.79441 0.01428
1887.50864 0.01379
1886.22287 0.01338
1884.93710 0.01329
1883.65133 0.01351
1882.36556 0.01389
1881.07979 0.01418
1879.79402 0.01425
1878.50826 0.01418
1877.22249 0.01411
1875.93672 0.01414
1874.65095 0.01424
1873.36518 0.01435
1872.07941 0.01440
1870.79364 0.01436
1869.50787 0.01430
1868.22211 0.01430
1866.93634 0.01433
1865.65057 0.01429
1864.36480 0.01414
1863.07903 0.01397
1861.79326 0.01396
1860.50749 0.01415
1859.22172 0.01443
1857.93595 0.01463
1856.65019 0.01464
1855.36442 0.01451
1854.07865 0.01435
1852.79288 0.01419
1851.50711 0.01402
1850.22134 0.01388
1848.93557 0.01389
1847.64980 0.01407
1846.36404 0.01427
1845.07827 0.01433
1843.79250 0.01430
1842.50673 0.01429
1841.22096 0.01429
1839.93519 0.01425
1838.64942 0.01418
1837.36365 0.01411
1836.07788 0.01406
1834.79212 0.01409
1833.50635 0.01423
1832.22058 0.01447
1830.93481 0.01473
1829.64904 0.01500
1828.36327 0.01524
1827.07750 0.01543
1825.79173 0.01555
1824.50597 0.01565
1823.22020 0.01568
1821.93443 0.01566
1820.64866 0.01563
1819.36289 0.01560
1818.07712 0.01548
1816.79135 0.01517
1815.50558 0.01471
1814.21981 0.01426
1812.93405 0.01393
1811.64828 0.01374
1810.36251 0.01367
1809.07674 0.01372
1807.79097 0.01387
1806.50520 0.01407
1805.21943 0.01425
1803.93366 0.01435
1802.64790 0.01435
1801.36213 0.01434
1800.07636 0.01442
1798.79059 0.01460
1797.50482 0.01477
1796.21905 0.01484
1794.93328 0.01484
1793.64751 0.01484
1792.36174 0.01494
1791.07598 0.01511
1789.79021 0.01524
1788.50444 0.01530
1787.21867 0.01531
1785.93290 0.01528
1784.64713 0.01523
1783.36136 0.01518
1782.07559 0.01513
1780.78983 0.01509
1779.50406 0.01503
1778.21829 0.01496
1776.93252 0.01491
1775.64675 0.01493
1774.36098 0.01499
1773.07521 0.01509
1771.78944 0.01526
1770.50367 0.01539
1769.21791 0.01534
1767.93214 0.01517
1766.64637 0.01501
1765.36060 0.01493
1764.07483 0.01488
1762.78906 0.01494
1761.50329 0.01515
1760.21752 0.01540
1758.93176 0.01551
1757.64599 0.01548
1756.36022 0.01548
1755.07445 0.01559
1753.78868 0.01570
1752.50291 0.01569
1751.21714 0.01563
1749.93137 0.01556
1748.64560 0.01546
1747.35984 0.01535
1746.07407 0.01529
1744.78830 0.01533
1743.50253 0.01542
1742.21676 0.01549
1740.93099 0.01550
1739.64522 0.01550
1738.35945 0.01560
1737.07369 0.01573
1735.78792 0.01576
1734.50215 0.01575
1733.21638 0.01581
1731.93061 0.01589
1730.64484 0.01586
1729.35907 0.01579
1728.07330 0.01582
1726.78753 0.01594
1725.50177 0.01603
1724.21600 0.01611
1722.93023 0.01628
1721.64446 0.01662
1720.35869 0.01700
1719.07292 0.01727
1717.78715 0.01749
1716.50138 0.01773
1715.21561 0.01797
1713.92985 0.01815
1712.64408 0.01832
1711.35831 0.01857
1710.07254 0.01894
1708.78677 0.01943
1707.50100 0.01999
1706.21523 0.02062
1704.92946 0.02139
1703.64370 0.02225
1702.35793 0.02301
1701.07216 0.02371
1699.78639 0.02456
1698.50062 0.02547
1697.21485 0.02612
1695.92908 0.02657
1694.64331 0.02714
1693.35754 0.02779
1692.07178 0.02837
1690.78601 0.02900
1689.50024 0.02988
1688.21447 0.03096
1686.92870 0.03198
1685.64293 0.03282
1684.35716 0.03364
1683.07139 0.03453
1681.78563 0.03531
1680.49986 0.03595
1679.21409 0.03666
1677.92832 0.03749
1676.64255 0.03830
1675.35678 0.03909
1674.07101 0.03995
1672.78524 0.04081
1671.49947 0.04153
1670.21371 0.04210
1668.92794 0.04265
1667.64217 0.04328
1666.35640 0.04397
1665.07063 0.04465
1663.78486 0.04526
1662.49909 0.04582
1661.21332 0.04636
1659.92756 0.04688
1658.64179 0.04746
1657.35602 0.04821
1656.07025 0.04902
1654.78448 0.04965
1653.49871 0.05015
1652.21294 0.05068
1650.92717 0.05114
1649.64140 0.05125
1648.35564 0.05104
1647.06987 0.05081
1645.78410 0.05073
1644.49833 0.05074
1643.21256 0.05070
1641.92679 0.05061
1640.64102 0.05057
1639.35525 0.05058
1638.06949 0.05049
1636.78372 0.05025
1635.49795 0.04991
1634.21218 0.04954
1632.92641 0.04906
1631.64064 0.04845
1630.35487 0.04782
1629.06910 0.04731
1627.78333 0.04691
1626.49757 0.04652
1625.21180 0.04601
1623.92603 0.04533
1622.64026 0.04462
1621.35449 0.04399
1620.06872 0.04342
1618.78295 0.04281
1617.49718 0.04215
1616.21142 0.04157
1614.92565 0.04108
1613.63988 0.04058
1612.35411 0.04010
1611.06834 0.03972
1609.78257 0.03943
1608.49680 0.03914
1607.21103 0.03884
1605.92526 0.03857
1604.63950 0.03837
1603.35373 0.03823
1602.06796 0.03815
1600.78219 0.03811
1599.49642 0.03812
1598.21065 0.03816
1596.92488 0.03820
1595.63911 0.03822
1594.35335 0.03823
1593.06758 0.03826
1591.78181 0.03833
1590.49604 0.03844
1589.21027 0.03857
1587.92450 0.03870
1586.63873 0.03884
1585.35296 0.03902
1584.06719 0.03926
1582.78143 0.03958
1581.49566 0.04001
1580.20989 0.04053
1578.92412 0.04101
1577.63835 0.04135
1576.35258 0.04164
1575.06681 0.04205
1573.78104 0.04253
1572.49528 0.04291
1571.20951 0.04321
1569.92374 0.04356
1568.63797 0.04399
1567.35220 0.04441
1566.06643 0.04478
1564.78066 0.04517
1563.49489 0.04571
1562.20912 0.04629
1560.92336 0.04678
1559.63759 0.04723
1558.35182 0.04774
1557.06605 0.04821
1555.78028 0.04843
1554.49451 0.04851
1553.20874 0.04867
1551.92297 0.04893
1550.63721 0.04919
1549.35144 0.04945
1548.06567 0.04974
1546.77990 0.05004
1545.49413 0.05035
1544.20836 0.05073
1542.92259 0.05111
1541.63682 0.05135
1540.35105 0.05136
1539.06529 0.05126
1537.77952 0.05115
1536.49375 0.05099
1535.20798 0.05081
1533.92221 0.05075
1532.63644 0.05090
1531.35067 0.05120
1530.06490 0.05151
1528.77914 0.05183
1527.49337 0.05219
1526.20760 0.05263
1524.92183 0.05314
1523.63606 0.05362
1522.35029 0.05399
1521.06452 0.05442
1519.77875 0.05499
1518.49298 0.05561
1517.20722 0.05622
1515.92145 0.05689
1514.63568 0.05761
1513.34991 0.05835
1512.06414 0.05915
1510.77837 0.06008
1509.49260 0.06105
1508.20683 0.06192
1506.92107 0.06266
1505.63530 0.06335
1504.34953 0.06400
1503.06376 0.06455
1501.77799 0.06508
1500.49222 0.06570
1499.20645 0.06636
1497.92068 0.06694
1496.63491 0.06742
1495.34915 0.06786
1494.06338 0.06827
1492.77761 0.06857
1491.49184 0.06884
1490.20607 0.06921
1488.92030 0.06975
1487.63453 0.07041
1486.34876 0.07118
1485.06299 0.07203
1483.77723 0.07293
1482.49146 0.07386
1481.20569 0.07484
1479.91992 0.07589
1478.63415 0.07701
1477.34838 0.07819
1476.06261 0.07937
1474.77684 0.08044
1473.49108 0.08131
1472.20531 0.08202
1470.91954 0.08264
1469.63377 0.08318
1468.34800 0.08364
1467.06223 0.08404
1465.77646 0.08440
1464.49069 0.08477
1463.20492 0.08523
1461.91916 0.08583
1460.63339 0.08657
1459.34762 0.08736
1458.06185 0.08809
1456.77608 0.08879
1455.49031 0.08949
1454.20454 0.09005
1452.91877 0.09045
1451.63301 0.09078
1450.34724 0.09109
1449.06147 0.09132
1447.77570 0.09142
1446.48993 0.09141
1445.20416 0.09126
1443.91839 0.09097
1442.63262 0.09057
1441.34685 0.09016
1440.06109 0.08980
1438.77532 0.08945
1437.48955 0.08914
1436.20378 0.08895
1434.91801 0.08890
1433.63224 0.08895
1432.34647 0.08912
1431.06070 0.08950
1429.77494 0.09013
1428.48917 0.09099
1427.20340 0.09201
1425.91763 0.09313
1424.63186 0.09435
1423.34609 0.09565
1422.06032 0.09694
1420.77455 0.09809
1419.48878 0.09913
1418.20302 0.10010
1416.91725 0.10096
1415.63148 0.10164
1414.34571 0.10214
1413.05994 0.10249
1411.77417 0.10269
1410.48840 0.10274
1409.20263 0.10260
1407.91687 0.10223
1406.63110 0.10160
1405.34533 0.10073
1404.05956 0.09969
1402.77379 0.09850
1401.48802 0.09715
1400.20225 0.09561
1398.91648 0.09397
1397.63071 0.09224
1396.34495 0.09042
1395.05918 0.08853
1393.77341 0.08664
1392.48764 0.08478
1391.20187 0.08292
1389.91610 0.08106
1388.63033 0.07919
1387.34456 0.07733
1386.05880 0.07549
1384.77303 0.07366
1383.48726 0.07183
1382.20149 0.07001
1380.91572 0.06820
1379.62995 0.06639
1378.34418 0.06457
1377.05841 0.06272
1375.77264 0.06083
1374.48688 0.05887
1373.20111 0.05691
1371.91534 0.05497
1370.62957 0.05310
1369.34380 0.05135
1368.05803 0.04976
1366.77226 0.04833
1365.48649 0.04699
1364.20073 0.04567
1362.91496 0.04439
1361.62919 0.04319
1360.34342 0.04209
1359.05765 0.04104
1357.77188 0.04002
1356.48611 0.03904
1355.20034 0.03815
1353.91457 0.03738
1352.62881 0.03671
1351.34304 0.03612
1350.05727 0.03554
1348.77150 0.03496
1347.48573 0.03437
1346.19996 0.03382
1344.91419 0.03333
1343.62842 0.03294
1342.34266 0.03260
1341.05689 0.03227
1339.77112 0.03193
1338.48535 0.03158
1337.19958 0.03123
1335.91381 0.03087
1334.62804 0.03050
1333.34227 0.03011
1332.05650 0.02972
1330.77074 0.02934
1329.48497 0.02897
1328.19920 0.02864
1326.91343 0.02836
1325.62766 0.02812
1324.34189 0.02789
1323.05612 0.02761
1321.77035 0.02725
1320.48459 0.02688
1319.19882 0.02656
1317.91305 0.02634
1316.62728 0.02617
1315.34151 0.02598
1314.05574 0.02575
1312.76997 0.02550
1311.48420 0.02523
1310.19843 0.02496
1308.91267 0.02472
1307.62690 0.02452
1306.34113 0.02433
1305.05536 0.02413
1303.76959 0.02392
1302.48382 0.02373
1301.19805 0.02359
1299.91228 0.02346
1298.62652 0.02332
1297.34075 0.02315
1296.05498 0.02295
1294.76921 0.02273
1293.48344 0.02251
1292.19767 0.02231
1290.91190 0.02215
1289.62613 0.02202
1288.34036 0.02192
1287.05460 0.02186
1285.76883 0.02184
1284.48306 0.02185
1283.19729 0.02185
1281.91152 0.02180
1280.62575 0.02168
1279.33998 0.02154
1278.05421 0.02141
1276.76845 0.02130
1275.48268 0.02121
1274.19691 0.02113
1272.91114 0.02105
1271.62537 0.02095
1270.33960 0.02085
1269.05383 0.02073
1267.76806 0.02062
1266.48229 0.02053
1265.19653 0.02049
1263.91076 0.02050
1262.62499 0.02052
1261.33922 0.02050
1260.05345 0.02044
1258.76768 0.02034
1257.48191 0.02025
1256.19614 0.02022
1254.91037 0.02026
1253.62461 0.02034
1252.33884 0.02041
1251.05307 0.02046
1249.76730 0.02047
1248.48153 0.02046
1247.19576 0.02041
1245.90999 0.02034
1244.62422 0.02026
1243.33846 0.02018
1242.05269 0.02013
1240.76692 0.02010
1239.48115 0.02010
1238.19538 0.02010
1236.90961 0.02007
1235.62384 0.01999
1234.33807 0.01984
1233.05230 0.01965
1231.76654 0.01945
1230.48077 0.01926
1229.19500 0.01908
1227.90923 0.01895
1226.62346 0.01885
1225.33769 0.01879
1224.05192 0.01871
1222.76615 0.01858
1221.48039 0.01840
1220.19462 0.01820
1218.90885 0.01805
1217.62308 0.01796
1216.33731 0.01790
1215.05154 0.01781
1213.76577 0.01768
1212.48000 0.01756
1211.19423 0.01750
1209.90847 0.01752
1208.62270 0.01758
1207.33693 0.01763
1206.05116 0.01764
1204.76539 0.01764
1203.47962 0.01761
1202.19385 0.01757
1200.90808 0.01746
1199.62232 0.01727
1198.33655 0.01734
1197.05078 0.01744
1195.76501 0.01750
1194.47924 0.01746
1193.19347 0.01736
1191.90770 0.01726
1190.62193 0.01716
1189.33616 0.01703
1188.05040 0.01686
1186.76463 0.01671
1185.47886 0.01664
1184.19309 0.01666
1182.90732 0.01674
1181.62155 0.01681
1180.33578 0.01685
1179.05001 0.01683
1177.76425 0.01677
1176.47848 0.01672
1175.19271 0.01669
1173.90694 0.01671
1172.62117 0.01682
1171.33540 0.01703
1170.04963 0.01730
1168.76386 0.01754
1167.47809 0.01770
1166.19233 0.01781
1164.90656 0.01792
1163.62079 0.01808
1162.33502 0.01828
1161.04925 0.01849
1159.76348 0.01871
1158.47771 0.01896
1157.19194 0.01927
1155.90618 0.01960
1154.62041 0.01991
1153.33464 0.02019
1152.04887 0.02044
1150.76310 0.02072
1149.47733 0.02106
1148.19156 0.02150
1146.90579 0.02202
1145.62002 0.02262
1144.33426 0.02328
1143.04849 0.02399
1141.76272 0.02475
1140.47695 0.02556
1139.19118 0.02640
1137.90541 0.02725
1136.61964 0.02812
1135.33387 0.02909
1134.04811 0.03031
1132.76234 0.03186
1131.47657 0.03372
1130.19080 0.03577
1128.90503 0.03785
1127.61926 0.03993
1126.33349 0.04207
1125.04772 0.04437
1123.76195 0.04687
1122.47619 0.04950
1121.19042 0.05223
1119.90465 0.05504
1118.61888 0.05795
1117.33311 0.06096
1116.04734 0.06400
1114.76157 0.06703
1113.47580 0.06999
1112.19004 0.07286
1110.90427 0.07565
1109.61850 0.07841
1108.33273 0.08118
1107.04696 0.08398
1105.76119 0.08675
1104.47542 0.08946
1103.18965 0.09208
1101.90388 0.09465
1100.61812 0.09720
1099.33235 0.09969
1098.04658 0.10208
1096.76081 0.10435
1095.47504 0.10655
1094.18927 0.10870
1092.90350 0.11079
1091.61773 0.11274
1090.33197 0.11451
1089.04620 0.11616
1087.76043 0.11781
1086.47466 0.11954
1085.18889 0.12132
1083.90312 0.12310
1082.61735 0.12483
1081.33158 0.12656
1080.04581 0.12840
1078.76005 0.13044
1077.47428 0.13269
1076.18851 0.13508
1074.90274 0.13754
1073.61697 0.14006
1072.33120 0.14269
1071.04543 0.14540
1069.75966 0.14815
1068.47390 0.15090
1067.18813 0.15373
1065.90236 0.15673
1064.61659 0.15991
1063.33082 0.16316
1062.04505 0.16637
1060.75928 0.16952
1059.47351 0.17263
1058.18774 0.17572
1056.90198 0.17872
1055.61621 0.18162
1054.33044 0.18440
1053.04467 0.18713
1051.75890 0.18993
1050.47313 0.19286
1049.18736 0.19590
1047.90159 0.19898
1046.61583 0.20209
1045.33006 0.20523
1044.04429 0.20842
1042.75852 0.21164
1041.47275 0.21485
1040.18698 0.21804
1038.90121 0.22126
1037.61544 0.22453
1036.32967 0.22782
1035.04391 0.23106
1033.75814 0.23420
1032.47237 0.23723
1031.18660 0.24013
1029.90083 0.24281
1028.61506 0.24520
1027.32929 0.24728
1026.04352 0.24910
1024.75775 0.25069
1023.47199 0.25204
1022.18622 0.25315
1020.90045 0.25398
1019.61468 0.25447
1018.32891 0.25460
1017.04314 0.25433
1015.75737 0.25367
1014.47160 0.25260
1013.18584 0.25109
1011.90007 0.24911
1010.61430 0.24668
1009.32853 0.24389
1008.04276 0.24077
1006.75699 0.23730
1005.47122 0.23344
1004.18545 0.22920
1002.89968 0.22463
1001.61392 0.21974
1000.32815 0.21456
999.04238 0.20912
997.75661 0.20348
996.47084 0.19770
995.18507 0.19185
993.89930 0.18598
992.61353 0.18009
991.32777 0.17421
990.04200 0.16839
988.75623 0.16270
987.47046 0.15718
986.18469 0.15180
984.89892 0.14654
983.61315 0.14139
982.32738 0.13641
981.04161 0.13168
979.75585 0.12724
978.47008 0.12308
977.18431 0.11920
975.89854 0.11563
974.61277 0.11241
973.32700 0.10958
972.04123 0.10718
970.75546 0.10531
969.46970 0.10404
968.18393 0.10338
966.89816 0.10329
965.61239 0.10367
964.32662 0.10442
963.04085 0.10531
961.75508 0.10604
960.46931 0.10634
959.18354 0.10603
957.89778 0.10509
956.61201 0.10356
955.32624 0.10157
954.04047 0.09925
952.75470 0.09674
951.46893 0.09417
950.18316 0.09167
948.89739 0.08932
947.61163 0.08712
946.32586 0.08498
945.04009 0.08284
943.75432 0.08066
942.46855 0.07846
941.18278 0.07626
939.89701 0.07415
938.61124 0.07220
937.32547 0.07043
936.03971 0.06881
934.75394 0.06731
933.46817 0.06594
932.18240 0.06471
930.89663 0.06355
929.61086 0.06236
928.32509 0.06111
927.03932 0.05984
925.75356 0.05861
924.46779 0.05748
923.18202 0.05648
921.89625 0.05562
920.61048 0.05487
919.32471 0.05417
918.03894 0.05348
916.75317 0.05280
915.46740 0.05216
914.18164 0.05153
912.89587 0.05086
911.61010 0.05013
910.32433 0.04937
909.03856 0.04867
907.75279 0.04806
906.46702 0.04756
905.18125 0.04712
903.89549 0.04670
902.60972 0.04625
901.32395 0.04577
900.03818 0.04525
898.75241 0.04476
897.46664 0.04435
896.18087 0.04401
894.89510 0.04369
893.60933 0.04338
892.32357 0.04311
891.03780 0.04296
889.75203 0.04301
888.46626 0.04335
887.18049 0.04404
885.89472 0.04518
884.60895 0.04685
883.32318 0.04908
882.03742 0.05176
880.75165 0.05454
879.46588 0.05699
878.18011 0.05885
876.89434 0.06024
875.60857 0.06156
874.32280 0.06302
873.03703 0.06440
871.75126 0.06522
870.46550 0.06520
869.17973 0.06438
867.89396 0.06296
866.60819 0.06110
865.32242 0.05896
864.03665 0.05673
862.75088 0.05460
861.46511 0.05264
860.17935 0.05084
858.89358 0.04916
857.60781 0.04764
856.32204 0.04633
855.03627 0.04526
853.75050 0.04439
852.46473 0.04362
851.17896 0.04290
849.89319 0.04225
848.60743 0.04169
847.32166 0.04123
846.03589 0.04078
844.75012 0.04031
843.46435 0.03982
842.17858 0.03937
840.89281 0.03900
839.60704 0.03869
838.32128 0.03842
837.03551 0.03820
835.74974 0.03800
834.46397 0.03780
833.17820 0.03757
831.89243 0.03728
830.60666 0.03691
829.32089 0.03651
828.03512 0.03620
826.74936 0.03608
825.46359 0.03614
824.17782 0.03622
822.89205 0.03622
821.60628 0.03610
820.32051 0.03593
819.03474 0.03575
817.74897 0.03556
816.46321 0.03539
815.17744 0.03523
813.89167 0.03511
812.60590 0.03503
811.32013 0.03494
810.03436 0.03478
808.74859 0.03454
807.46282 0.03429
806.17705 0.03415
804.89129 0.03412
803.60552 0.03414
802.31975 0.03411
801.03398 0.03402
799.74821 0.03389
798.46244 0.03379
797.17667 0.03376
795.89090 0.03377
794.60513 0.03374
793.31937 0.03368
792.03360 0.03364
790.74783 0.03363
789.46206 0.03355
788.17629 0.03338
786.89052 0.03318
785.60475 0.03304
784.31898 0.03295
783.03322 0.03285
781.74745 0.03274
780.46168 0.03269
779.17591 0.03279
777.89014 0.03301
776.60437 0.03322
775.31860 0.03328
774.03283 0.03317
772.74706 0.03301
771.46130 0.03291
770.17553 0.03290
768.88976 0.03294
767.60399 0.03299
766.31822 0.03305
765.03245 0.03310
763.74668 0.03307
762.46091 0.03294
761.17515 0.03277
759.88938 0.03271
758.60361 0.03284
757.31784 0.03307
756.03207 0.03329
754.74630 0.03341
753.46053 0.03343
752.17476 0.03339
750.88899 0.03335
749.60323 0.03333
748.31746 0.03328
747.03169 0.03309
745.74592 0.03279
744.46015 0.03252
743.17438 0.03243
741.88861 0.03249
740.60284 0.03257
739.31708 0.03257
738.03131 0.03253
736.74554 0.03254
735.45977 0.03258
734.17400 0.03257
732.88823 0.03246
731.60246 0.03228
730.31669 0.03214
729.03092 0.03209
727.74516 0.03215
726.45939 0.03230
725.17362 0.03245
723.88785 0.03255
722.60208 0.03255
721.31631 0.03252
720.03054 0.03249
718.74477 0.03247
717.45901 0.03246
716.17324 0.03245
714.88747 0.03244
713.60170 0.03245
712.31593 0.03246
711.03016 0.03247
709.74439 0.03249
708.45862 0.03251
707.17285 0.03253
705.88709 0.03254
704.60132 0.03253
703.31555 0.03250
702.02978 0.03246
700.74401 0.03242
699.45824 0.03242
698.17247 0.03245
696.88670 0.03250
695.60094 0.03253
694.31517 0.03252
693.02940 0.03247
691.74363 0.03241
690.45786 0.03236
689.17209 0.03235
687.88632 0.03235
686.60055 0.03234
685.31478 0.03227
684.02902 0.03215
682.74325 0.03202
681.45748 0.03193
680.17171 0.03188
678.88594 0.03186
677.60017 0.03185
676.31440 0.03185
675.02863 0.03190
673.74287 0.03202
672.45710 0.03218
671.17133 0.03230
669.88556 0.03237
668.59979 0.03241
667.31402 0.03245
666.02825 0.03243
664.74248 0.03229
663.45671 0.03205
662.17095 0.03178
660.88518 0.03156
659.59941 0.03141
658.31364 0.03127
657.02787 0.03116
655.74210 0.03113
654.45633 0.03120
653.17056 0.03131
651.88480 0.03139
650.59903 0.03141
649.31326 0.03138
648.02749 0.03135
646.74172 0.03133
645.45595 0.03134
644.17018 0.03140
642.88441 0.03155
641.59864 0.03178
640.31288 0.03205
639.02711 0.03234
637.74134 0.03262
636.45557 0.03288
635.16980 0.03312
633.88403 0.03331
632.59826 0.03343
631.31249 0.03372
630.02673 0.03502
628.74096 0.03699
627.45519 0.03655
626.16942 0.03911
624.88365 0.04392
623.59788 0.04906
622.31211 0.05351
621.02634 0.05612
619.74057 0.05593
618.45481 0.05342
617.16904 0.05058
615.88327 0.04960
614.59750 0.05170
613.31173 0.05685
612.02596 0.06392
610.74019 0.07105
609.45442 0.07687
608.16866 0.08176
606.88289 0.08712
605.59712 0.09314
604.31135 0.09820
603.02558 0.10061
601.73981 0.10024
600.45404 0.09826
599.16827 0.09584
597.88250 0.09344
596.59674 0.09108
595.31097 0.08875
594.02520 0.08663
592.73943 0.08488
591.45366 0.08352
590.16789 0.08250
588.88212 0.08185
587.59635 0.08172
586.31059 0.08228
585.02482 0.08352
583.73905 0.08527
582.45328 0.08734
581.16751 0.08958
579.88174 0.09195
578.59597 0.09440
577.31020 0.09686
576.02443 0.09922
574.73867 0.10149
573.45290 0.10379
572.16713 0.10633
570.88136 0.10924
569.59559 0.11254
568.30982 0.11614
567.02405 0.11987
565.73828 0.12354
564.45251 0.12693
563.16675 0.12971
561.88098 0.13145
560.59521 0.13170
559.30944 0.13023
558.02367 0.12712
556.73790 0.12273
555.45213 0.11758
554.16636 0.11215
552.88060 0.10678
551.59483 0.10162
550.30906 0.09672
549.02329 0.09211
547.73752 0.08779
546.45175 0.08372
545.16598 0.07987
543.88021 0.07629
542.59444 0.07303
541.30868 0.07009
540.02291 0.06744
538.73714 0.06504
537.45137 0.06292
536.16560 0.06110
534.87983 0.05952
533.59406 0.05803
532.30829 0.05653
531.02253 0.05504
529.73676 0.05364
528.45099 0.05235
527.16522 0.05108
525.87945 0.04979
524.59368 0.04852
523.30791 0.04737
522.02214 0.04636
520.73637 0.04547
519.45061 0.04464
518.16484 0.04385
516.87907 0.04308
515.59330 0.04233
514.30753 0.04157
513.02176 0.04081
511.73599 0.04010
510.45022 0.03948
509.16446 0.03887
507.87869 0.03818
506.59292 0.03740
505.30715 0.03663
504.02138 0.03597
502.73561 0.03543
501.44984 0.03497
500.16407 0.03453
498.87830 0.03405
497.59254 0.03353
496.30677 0.03303
495.02100 0.03262
493.73523 0.03232
492.44946 0.03211
491.16369 0.03190
489.87792 0.03165
488.59215 0.03132
487.30639 0.03099
486.02062 0.03074
484.73485 0.03066
483.44908 0.03074
482.16331 0.03088
480.87754 0.03097
479.59177 0.03098
478.30600 0.03099
477.02023 0.03108
475.73447 0.03121
474.44870 0.03131
473.16293 0.03134
471.87716 0.03133
470.59139 0.03129
469.30562 0.03122
468.01985 0.03107
466.73408 0.03087
465.44832 0.03065
464.16255 0.03039
462.87678 0.03012
461.59101 0.02982
460.30524 0.02949
459.01947 0.02910
457.73370 0.02868
456.44793 0.02827
455.16216 0.02791
453.87640 0.02758
452.59063 0.02726
451.30486 0.02692
450.01909 0.02654
448.73332 0.02615
447.44755 0.02578
446.16178 0.02548
444.87601 0.02529
443.59025 0.02516
442.30448 0.02503
441.01871 0.02488
439.73294 0.02473
438.44717 0.02457
437.16140 0.02441
435.87563 0.02428
434.58986 0.02418
433.30409 0.02413
432.01833 0.02410
430.73256 0.02406
429.44679 0.02398
428.16102 0.02384
426.87525 0.02366
425.58948 0.02346
424.30371 0.02324
423.01794 0.02303
421.73218 0.02283
420.44641 0.02265
419.16064 0.02251
417.87487 0.02242
416.58910 0.02234
415.30333 0.02227
414.01756 0.02226
412.73179 0.02229
411.44602 0.02233
410.16026 0.02230
408.87449 0.02225
407.58872 0.02223
406.30295 0.02229
405.01718 0.02243
403.73141 0.02257
402.44564 0.02267
401.15987 0.02269
399.87411 0.02267
