3997.45528	0.02772
3996.16951	0.02770
3994.88374	0.02817
3993.59798	0.02903
3992.31221	0.02994
3991.02644	0.03063
3989.74067	0.03083
3988.45490	0.03039
3987.16913	0.02959
3985.88336	0.02909
3984.59759	0.02930
3983.31183	0.03007
3982.02606	0.03097
3980.74029	0.03182
3979.45452	0.03263
3978.16875	0.03330
3976.88298	0.03364
3975.59721	0.03357
3974.31144	0.03300
3973.02567	0.03180
3971.73991	0.03004
3970.45414	0.02833
3969.16837	0.02739
3967.88260	0.02748
3966.59683	0.02824
3965.31106	0.02900
3964.02529	0.02922
3962.73952	0.02874
3961.45376	0.02789
3960.16799	0.02733
3958.88222	0.02750
3957.59645	0.02839
3956.31068	0.02961
3955.02491	0.03076
3953.73914	0.03155
3952.45337	0.03177
3951.16760	0.03133
3949.88184	0.03026
3948.59607	0.02889
3947.31030	0.02774
3946.02453	0.02731
3944.73876	0.02782
3943.45299	0.02904
3942.16722	0.03037
3940.88145	0.03117
3939.59569	0.03104
3938.30992	0.03004
3937.02415	0.02865
3935.73838	0.02744
3934.45261	0.02681
3933.16684	0.02686
3931.88107	0.02748
3930.59530	0.02844
3929.30953	0.02941
3928.02377	0.02997
3926.73800	0.02990
3925.45223	0.02947
3924.16646	0.02927
3922.88069	0.02984
3921.59492	0.03111
3920.30915	0.03256
3919.02338	0.03363
3917.73762	0.03406
3916.45185	0.03382
3915.16608	0.03295
3913.88031	0.03164
3912.59454	0.03038
3911.30877	0.02981
3910.02300	0.03018
3908.73723	0.03102
3907.45146	0.03144
3906.16570	0.03086
3904.87993	0.02936
3903.59416	0.02759
3902.30839	0.02634
3901.02262	0.02606
3899.73685	0.02659
3898.45108	0.02735
3897.16531	0.02790
3895.87955	0.02810
3894.59378	0.02794
3893.30801	0.02732
3892.02224	0.02625
3890.73647	0.02511
3889.45070	0.02449
3888.16493	0.02480
3886.87916	0.02591
3885.59339	0.02733
3884.30763	0.02867
3883.02186	0.02972
3881.73609	0.03041
3880.45032	0.03070
3879.16455	0.03069
3877.87878	0.03048
3876.59301	0.03014
3875.30724	0.02968
3874.02148	0.02928
3872.73571	0.02916
3871.44994	0.02929
3870.16417	0.02919
3868.87840	0.02847
3867.59263	0.02744
3866.30686	0.02676
3865.02109	0.02674
3863.73532	0.02709
3862.44956	0.02739
3861.16379	0.02747
3859.87802	0.02749
3858.59225	0.02770
3857.30648	0.02819
3856.02071	0.02868
3854.73494	0.02881
3853.44917	0.02840
3852.16341	0.02786
3850.87764	0.02773
3849.59187	0.02805
3848.30610	0.02847
3847.02033	0.02868
3845.73456	0.02865
3844.44879	0.02841
3843.16302	0.02792
3841.87725	0.02729
3840.59149	0.02684
3839.30572	0.02681
3838.01995	0.02705
3836.73418	0.02718
3835.44841	0.02706
3834.16264	0.02686
3832.87687	0.02679
3831.59110	0.02695
3830.30534	0.02726
3829.01957	0.02765
3827.73380	0.02811
3826.44803	0.02857
3825.16226	0.02887
3823.87649	0.02886
3822.59072	0.02849
3821.30495	0.02777
3820.01918	0.02688
3818.73342	0.02617
3817.44765	0.02597
3816.16188	0.02630
3814.87611	0.02696
3813.59034	0.02770
3812.30457	0.02818
3811.01880	0.02823
3809.73303	0.02818
3808.44726	0.02851
3807.16150	0.02918
3805.87573	0.02975
3804.58996	0.03002
3803.30419	0.03012
3802.01842	0.03004
3800.73265	0.02958
3799.44688	0.02879
3798.16111	0.02804
3796.87535	0.02760
3795.58958	0.02745
3794.30381	0.02736
3793.01804	0.02705
3791.73227	0.02653
3790.44650	0.02618
3789.16073	0.02647
3787.87496	0.02744
3786.58919	0.02857
3785.30343	0.02919
3784.01766	0.02898
3782.73189	0.02813
3781.44612	0.02714
3780.16035	0.02642
3778.87458	0.02613
3777.58881	0.02636
3776.30304	0.02698
3775.01728	0.02762
3773.73151	0.02782
3772.44574	0.02754
3771.15997	0.02709
3769.87420	0.02674
3768.58843	0.02649
3767.30266	0.02627
3766.01689	0.02601
3764.73112	0.02569
3763.44536	0.02541
3762.15959	0.02540
3760.87382	0.02578
3759.58805	0.02630
3758.30228	0.02659
3757.01651	0.02655
3755.73074	0.02638
3754.44497	0.02627
3753.15921	0.02625
3751.87344	0.02624
3750.58767	0.02631
3749.30190	0.02646
3748.01613	0.02661
3746.73036	0.02671
3745.44459	0.02666
3744.15882	0.02630
3742.87305	0.02581
3741.58729	0.02553
3740.30152	0.02535
3739.01575	0.02497
3737.72998	0.02438
3736.44421	0.02395
3735.15844	0.02389
3733.87267	0.02418
3732.58690	0.02451
3731.30114	0.02456
3730.01537	0.02437
3728.72960	0.02434
3727.44383	0.02470
3726.15806	0.02526
3724.87229	0.02565
3723.58652	0.02561
3722.30075	0.02515
3721.01498	0.02450
3719.72922	0.02415
3718.44345	0.02443
3717.15768	0.02524
3715.87191	0.02609
3714.58614	0.02659
3713.30037	0.02671
3712.01460	0.02660
3710.72883	0.02641
3709.44307	0.02623
3708.15730	0.02610
3706.87153	0.02590
3705.58576	0.02535
3704.29999	0.02430
3703.01422	0.02302
3701.72845	0.02220
3700.44268	0.02233
3699.15691	0.02326
3697.87115	0.02436
3696.58538	0.02521
3695.29961	0.02590
3694.01384	0.02664
3692.72807	0.02725
3691.44230	0.02735
3690.15653	0.02686
3688.87076	0.02600
3687.58500	0.02503
3686.29923	0.02404
3685.01346	0.02314
3683.72769	0.02253
3682.44192	0.02250
3681.15615	0.02299
3679.87038	0.02358
3678.58461	0.02395
3677.29884	0.02433
3676.01308	0.02504
3674.72731	0.02613
3673.44154	0.02749
3672.15577	0.02902
3670.87000	0.03035
3669.58423	0.03097
3668.29846	0.03055
3667.01269	0.02922
3665.72693	0.02740
3664.44116	0.02575
3663.15539	0.02486
3661.86962	0.02499
3660.58385	0.02591
3659.29808	0.02713
3658.01231	0.02824
3656.72654	0.02903
3655.44077	0.02942
3654.15501	0.02937
3652.86924	0.02891
3651.58347	0.02822
3650.29770	0.02774
3649.01193	0.02780
3647.72616	0.02834
3646.44039	0.02897
3645.15462	0.02945
3643.86886	0.02987
3642.58309	0.03040
3641.29732	0.03089
3640.01155	0.03090
3638.72578	0.03005
3637.44001	0.02850
3636.15424	0.02704
3634.86847	0.02650
3633.58270	0.02712
3632.29694	0.02842
3631.01117	0.02972
3629.72540	0.03057
3628.43963	0.03087
3627.15386	0.03091
3625.86809	0.03095
3624.58232	0.03103
3623.29655	0.03113
3622.01079	0.03140
3620.72502	0.03202
3619.43925	0.03291
3618.15348	0.03378
3616.86771	0.03435
3615.58194	0.03442
3614.29617	0.03385
3613.01040	0.03280
3611.72463	0.03178
3610.43887	0.03134
3609.15310	0.03157
3607.86733	0.03207
3606.58156	0.03238
3605.29579	0.03246
3604.01002	0.03257
3602.72425	0.03290
3601.43848	0.03332
3600.15272	0.03354
3598.86695	0.03339
3597.58118	0.03297
3596.29541	0.03264
3595.00964	0.03278
3593.72387	0.03353
3592.43810	0.03455
3591.15233	0.03520
3589.86656	0.03509
3588.58080	0.03445
3587.29503	0.03392
3586.00926	0.03401
3584.72349	0.03473
3583.43772	0.03554
3582.15195	0.03583
3580.86618	0.03544
3579.58041	0.03482
3578.29464	0.03453
3577.00888	0.03475
3575.72311	0.03528
3574.43734	0.03591
3573.15157	0.03663
3571.86580	0.03736
3570.58003	0.03792
3569.29426	0.03811
3568.00849	0.03806
3566.72273	0.03811
3565.43696	0.03847
3564.15119	0.03899
3562.86542	0.03930
3561.57965	0.03935
3560.29388	0.03942
3559.00811	0.03978
3557.72234	0.04036
3556.43657	0.04087
3555.15081	0.04116
3553.86504	0.04121
3552.57927	0.04103
3551.29350	0.04070
3550.00773	0.04041
3548.72196	0.04029
3547.43619	0.04033
3546.15042	0.04044
3544.86466	0.04061
3543.57889	0.04093
3542.29312	0.04132
3541.00735	0.04162
3539.72158	0.04173
3538.43581	0.04175
3537.15004	0.04188
3535.86427	0.04223
3534.57850	0.04279
3533.29274	0.04339
3532.00697	0.04377
3530.72120	0.04364
3529.43543	0.04296
3528.14966	0.04211
3526.86389	0.04170
3525.57812	0.04206
3524.29235	0.04288
3523.00659	0.04352
3521.72082	0.04370
3520.43505	0.04364
3519.14928	0.04372
3517.86351	0.04407
3516.57774	0.04457
3515.29197	0.04511
3514.00620	0.04560
3512.72043	0.04589
3511.43467	0.04582
3510.14890	0.04538
3508.86313	0.04466
3507.57736	0.04377
3506.29159	0.04274
3505.00582	0.04168
3503.72005	0.04095
3502.43428	0.04104
3501.14852	0.04210
3499.86275	0.04363
3498.57698	0.04481
3497.29121	0.04517
3496.00544	0.04497
3494.71967	0.04482
3493.43390	0.04505
3492.14813	0.04565
3490.86236	0.04652
3489.57660	0.04754
3488.29083	0.04847
3487.00506	0.04895
3485.71929	0.04879
3484.43352	0.04807
3483.14775	0.04715
3481.86198	0.04639
3480.57621	0.04605
3479.29045	0.04618
3478.00468	0.04671
3476.71891	0.04742
3475.43314	0.04798
3474.14737	0.04809
3472.86160	0.04763
3471.57583	0.04690
3470.29006	0.04645
3469.00429	0.04667
3467.71853	0.04753
3466.43276	0.04867
3465.14699	0.04966
3463.86122	0.05024
3462.57545	0.05038
3461.28968	0.05023
3460.00391	0.04995
3458.71814	0.04970
3457.43238	0.04959
3456.14661	0.04971
3454.86084	0.05006
3453.57507	0.05049
3452.28930	0.05084
3451.00353	0.05099
3449.71776	0.05100
3448.43199	0.05101
3447.14622	0.05111
3445.86046	0.05124
3444.57469	0.05131
3443.28892	0.05138
3442.00315	0.05158
3440.71738	0.05184
3439.43161	0.05188
3438.14584	0.05154
3436.86007	0.05109
3435.57431	0.05101
3434.28854	0.05142
3433.00277	0.05194
3431.71700	0.05214
3430.43123	0.05200
3429.14546	0.05187
3427.85969	0.05199
3426.57392	0.05222
3425.28815	0.05224
3424.00239	0.05189
3422.71662	0.05136
3421.43085	0.05108
3420.14508	0.05138
3418.85931	0.05219
3417.57354	0.05299
3416.28777	0.05324
3415.00200	0.05285
3413.71624	0.05228
3412.43047	0.05207
3411.14470	0.05240
3409.85893	0.05309
3408.57316	0.05383
3407.28739	0.05434
3406.00162	0.05441
3404.71585	0.05404
3403.43008	0.05356
3402.14432	0.05330
3400.85855	0.05330
3399.57278	0.05336
3398.28701	0.05340
3397.00124	0.05359
3395.71547	0.05405
3394.42970	0.05455
3393.14393	0.05473
3391.85817	0.05459
3390.57240	0.05448
3389.28663	0.05469
3388.00086	0.05511
3386.71509	0.05542
3385.42932	0.05554
3384.14355	0.05567
3382.85778	0.05591
3381.57201	0.05598
3380.28625	0.05548
3379.00048	0.05444
3377.71471	0.05335
3376.42894	0.05270
3375.14317	0.05257
3373.85740	0.05272
3372.57163	0.05289
3371.28586	0.05305
3370.00010	0.05326
3368.71433	0.05354
3367.42856	0.05395
3366.14279	0.05453
3364.85702	0.05532
3363.57125	0.05615
3362.28548	0.05663
3360.99971	0.05650
3359.71394	0.05595
3358.42818	0.05544
3357.14241	0.05533
3355.85664	0.05551
3354.57087	0.05565
3353.28510	0.05552
3351.99933	0.05528
3350.71356	0.05521
3349.42779	0.05536
3348.14202	0.05549
3346.85626	0.05536
3345.57049	0.05499
3344.28472	0.05458
3342.99895	0.05432
3341.71318	0.05429
3340.42741	0.05455
3339.14164	0.05497
3337.85587	0.05528
3336.57011	0.05536
3335.28434	0.05531
3333.99857	0.05533
3332.71280	0.05541
3331.42703	0.05530
3330.14126	0.05489
3328.85549	0.05435
3327.56972	0.05408
3326.28395	0.05427
3324.99819	0.05476
3323.71242	0.05517
3322.42665	0.05527
3321.14088	0.05511
3319.85511	0.05489
3318.56934	0.05474
3317.28357	0.05461
3315.99780	0.05442
3314.71204	0.05419
3313.42627	0.05403
3312.14050	0.05407
3310.85473	0.05429
3309.56896	0.05459
3308.28319	0.05489
3306.99742	0.05518
3305.71165	0.05549
3304.42588	0.05577
3303.14012	0.05585
3301.85435	0.05563
3300.56858	0.05515
3299.28281	0.05460
3297.99704	0.05416
3296.71127	0.05393
3295.42550	0.05390
3294.13973	0.05412
3292.85397	0.05464
3291.56820	0.05533
3290.28243	0.05581
3288.99666	0.05574
3287.71089	0.05517
3286.42512	0.05447
3285.13935	0.05402
3283.85358	0.05390
3282.56781	0.05398
3281.28205	0.05411
3279.99628	0.05419
3278.71051	0.05416
3277.42474	0.05407
3276.13897	0.05404
3274.85320	0.05411
3273.56743	0.05425
3272.28166	0.05445
3270.99590	0.05468
3269.71013	0.05485
3268.42436	0.05483
3267.13859	0.05454
3265.85282	0.05406
3264.56705	0.05348
3263.28128	0.05293
3261.99551	0.05245
3260.70974	0.05211
3259.42398	0.05201
3258.13821	0.05223
3256.85244	0.05274
3255.56667	0.05339
3254.28090	0.05393
3252.99513	0.05413
3251.70936	0.05395
3250.42359	0.05358
3249.13783	0.05338
3247.85206	0.05360
3246.56629	0.05412
3245.28052	0.05453
3243.99475	0.05442
3242.70898	0.05371
3241.42321	0.05281
3240.13744	0.05225
3238.85167	0.05225
3237.56591	0.05251
3236.28014	0.05260
3234.99437	0.05236
3233.70860	0.05195
3232.42283	0.05156
3231.13706	0.05124
3229.85129	0.05092
3228.56552	0.05061
3227.27976	0.05048
3225.99399	0.05063
3224.70822	0.05095
3223.42245	0.05122
3222.13668	0.05135
3220.85091	0.05140
3219.56514	0.05140
3218.27937	0.05126
3216.99360	0.05101
3215.70784	0.05086
3214.42207	0.05098
3213.13630	0.05130
3211.85053	0.05156
3210.56476	0.05158
3209.27899	0.05138
3207.99322	0.05112
3206.70745	0.05092
3205.42169	0.05079
3204.13592	0.05065
3202.85015	0.05042
3201.56438	0.05014
3200.27861	0.04991
3198.99284	0.04980
3197.70707	0.04983
3196.42130	0.04997
3195.13553	0.05015
3193.84977	0.05025
3192.56400	0.05020
3191.27823	0.05007
3189.99246	0.04995
3188.70669	0.04986
3187.42092	0.04971
3186.13515	0.04946
3184.84938	0.04922
3183.56362	0.04916
3182.27785	0.04937
3180.99208	0.04972
3179.70631	0.05002
3178.42054	0.05013
3177.13477	0.05007
3175.84900	0.04997
3174.56323	0.04991
3173.27746	0.04994
3171.99170	0.05000
3170.70593	0.05002
3169.42016	0.04999
3168.13439	0.04990
3166.84862	0.04979
3165.56285	0.04966
3164.27708	0.04954
3162.99131	0.04944
3161.70555	0.04937
3160.41978	0.04937
3159.13401	0.04938
3157.84824	0.04931
3156.56247	0.04915
3155.27670	0.04906
3153.99093	0.04920
3152.70516	0.04940
3151.41939	0.04936
3150.13363	0.04900
3148.84786	0.04851
3147.56209	0.04810
3146.27632	0.04776
3144.99055	0.04746
3143.70478	0.04723
3142.41901	0.04703
3141.13324	0.04676
3139.84748	0.04641
3138.56171	0.04615
3137.27594	0.04612
3135.99017	0.04620
3134.70440	0.04618
3133.41863	0.04603
3132.13286	0.04597
3130.84709	0.04626
3129.56132	0.04690
3128.27556	0.04758
3126.98979	0.04793
3125.70402	0.04777
3124.41825	0.04724
3123.13248	0.04657
3121.84671	0.04582
3120.56094	0.04502
3119.27517	0.04424
3117.98940	0.04369
3116.70364	0.04353
3115.41787	0.04373
3114.13210	0.04415
3112.84633	0.04472
3111.56056	0.04542
3110.27479	0.04621
3108.98902	0.04685
3107.70325	0.04704
3106.41749	0.04671
3105.13172	0.04617
3103.84595	0.04584
3102.56018	0.04581
3101.27441	0.04577
3099.98864	0.04545
3098.70287	0.04494
3097.41710	0.04453
3096.13133	0.04439
3094.84557	0.04442
3093.55980	0.04438
3092.27403	0.04418
3090.98826	0.04389
3089.70249	0.04362
3088.41672	0.04343
3087.13095	0.04334
3085.84518	0.04337
3084.55942	0.04350
3083.27365	0.04372
3081.98788	0.04403
3080.70211	0.04443
3079.41634	0.04482
3078.13057	0.04506
3076.84480	0.04510
3075.55903	0.04509
3074.27326	0.04519
3072.98750	0.04539
3071.70173	0.04548
3070.41596	0.04537
3069.13019	0.04511
3067.84442	0.04476
3066.55865	0.04428
3065.27288	0.04371
3063.98711	0.04318
3062.70135	0.04289
3061.41558	0.04287
3060.12981	0.04300
3058.84404	0.04309
3057.55827	0.04309
3056.27250	0.04308
3054.98673	0.04311
3053.70096	0.04306
3052.41519	0.04281
3051.12943	0.04238
3049.84366	0.04200
3048.55789	0.04184
3047.27212	0.04189
3045.98635	0.04201
3044.70058	0.04212
3043.41481	0.04213
3042.12904	0.04202
3040.84328	0.04181
3039.55751	0.04165
3038.27174	0.04169
3036.98597	0.04190
3035.70020	0.04203
3034.41443	0.04189
3033.12866	0.04160
3031.84289	0.04144
3030.55712	0.04150
3029.27136	0.04157
3027.98559	0.04143
3026.69982	0.04113
3025.41405	0.04092
3024.12828	0.04098
3022.84251	0.04126
3021.55674	0.04163
3020.27097	0.04195
3018.98521	0.04212
3017.69944	0.04205
3016.41367	0.04170
3015.12790	0.04115
3013.84213	0.04060
3012.55636	0.04023
3011.27059	0.04012
3009.98482	0.04017
3008.69905	0.04026
3007.41329	0.04029
3006.12752	0.04023
3004.84175	0.04004
3003.55598	0.03973
3002.27021	0.03936
3000.98444	0.03908
2999.69867	0.03900
2998.41290	0.03909
2997.12714	0.03921
2995.84137	0.03927
2994.55560	0.03928
2993.26983	0.03924
2991.98406	0.03919
2990.69829	0.03925
2989.41252	0.03952
2988.12675	0.03985
2986.84098	0.04002
2985.55522	0.04001
2984.26945	0.04010
2982.98368	0.04048
2981.69791	0.04105
2980.41214	0.04153
2979.12637	0.04171
2977.84060	0.04157
2976.55483	0.04120
2975.26907	0.04080
2973.98330	0.04068
2972.69753	0.04109
2971.41176	0.04205
2970.12599	0.04323
2968.84022	0.04420
2967.55445	0.04467
2966.26868	0.04479
2964.98291	0.04491
2963.69715	0.04528
2962.41138	0.04587
2961.12561	0.04654
2959.83984	0.04714
2958.55407	0.04758
2957.26830	0.04790
2955.98253	0.04814
2954.69676	0.04826
2953.41100	0.04815
2952.12523	0.04774
2950.83946	0.04713
2949.55369	0.04661
2948.26792	0.04642
2946.98215	0.04659
2945.69638	0.04687
2944.41061	0.04698
2943.12484	0.04680
2941.83908	0.04647
2940.55331	0.04630
2939.26754	0.04658
2937.98177	0.04738
2936.69600	0.04843
2935.41023	0.04929
2934.12446	0.04962
2932.83869	0.04944
2931.55293	0.04905
2930.26716	0.04883
2928.98139	0.04901
2927.69562	0.04957
2926.40985	0.05030
2925.12408	0.05089
2923.83831	0.05108
2922.55254	0.05086
2921.26677	0.05040
2919.98101	0.04990
2918.69524	0.04946
2917.40947	0.04901
2916.12370	0.04850
2914.83793	0.04809
2913.55216	0.04800
2912.26639	0.04822
2910.98062	0.04840
2909.69486	0.04805
2908.40909	0.04707
2907.12332	0.04588
2905.83755	0.04501
2904.55178	0.04465
2903.26601	0.04460
2901.98024	0.04457
2900.69447	0.04447
2899.40870	0.04431
2898.12294	0.04408
2896.83717	0.04379
2895.55140	0.04351
2894.26563	0.04334
2892.97986	0.04328
2891.69409	0.04327
2890.40832	0.04319
2889.12255	0.04298
2887.83678	0.04263
2886.55102	0.04222
2885.26525	0.04186
2883.97948	0.04162
2882.69371	0.04149
2881.40794	0.04140
2880.12217	0.04136
2878.83640	0.04142
2877.55063	0.04162
2876.26487	0.04191
2874.97910	0.04223
2873.69333	0.04249
2872.40756	0.04264
2871.12179	0.04259
2869.83602	0.04233
2868.55025	0.04190
2867.26448	0.04150
2865.97871	0.04133
2864.69295	0.04143
2863.40718	0.04157
2862.12141	0.04151
2860.83564	0.04128
2859.54987	0.04111
2858.26410	0.04108
2856.97833	0.04103
2855.69256	0.04082
2854.40680	0.04055
2853.12103	0.04036
2851.83526	0.04027
2850.54949	0.04009
2849.26372	0.03975
2847.97795	0.03934
2846.69218	0.03905
2845.40641	0.03896
2844.12064	0.03894
2842.83488	0.03882
2841.54911	0.03851
2840.26334	0.03802
2838.97757	0.03741
2837.69180	0.03680
2836.40603	0.03633
2835.12026	0.03608
2833.83449	0.03600
2832.54873	0.03595
2831.26296	0.03582
2829.97719	0.03563
2828.69142	0.03545
2827.40565	0.03529
2826.11988	0.03509
2824.83411	0.03479
2823.54834	0.03437
2822.26257	0.03393
2820.97681	0.03365
2819.69104	0.03368
2818.40527	0.03391
2817.11950	0.03407
2815.83373	0.03402
2814.54796	0.03386
2813.26219	0.03378
2811.97642	0.03383
2810.69066	0.03381
2809.40489	0.03358
2808.11912	0.03325
2806.83335	0.03307
2805.54758	0.03311
2804.26181	0.03317
2802.97604	0.03303
2801.69027	0.03268
2800.40450	0.03238
2799.11874	0.03228
2797.83297	0.03237
2796.54720	0.03247
2795.26143	0.03248
2793.97566	0.03243
2792.68989	0.03238
2791.40412	0.03235
2790.11835	0.03223
2788.83259	0.03197
2787.54682	0.03161
2786.26105	0.03131
2784.97528	0.03124
2783.68951	0.03140
2782.40374	0.03163
2781.11797	0.03177
2779.83220	0.03176
2778.54643	0.03166
2777.26067	0.03147
2775.97490	0.03120
2774.68913	0.03094
2773.40336	0.03084
2772.11759	0.03097
2770.83182	0.03121
2769.54605	0.03139
2768.26028	0.03138
2766.97452	0.03123
2765.68875	0.03104
2764.40298	0.03086
2763.11721	0.03071
2761.83144	0.03060
2760.54567	0.03053
2759.25990	0.03049
2757.97413	0.03047
2756.68836	0.03051
2755.40260	0.03064
2754.11683	0.03087
2752.83106	0.03106
2751.54529	0.03110
2750.25952	0.03097
2748.97375	0.03080
2747.68798	0.03067
2746.40221	0.03057
2745.11645	0.03041
2743.83068	0.03017
2742.54491	0.02996
2741.25914	0.02992
2739.97337	0.03003
2738.68760	0.03013
2737.40183	0.03012
2736.11606	0.03001
2734.83029	0.02988
2733.54453	0.02977
2732.25876	0.02962
2730.97299	0.02943
2729.68722	0.02933
2728.40145	0.02946
2727.11568	0.02978
2725.82991	0.03010
2724.54414	0.03022
2723.25838	0.03013
2721.97261	0.02994
2720.68684	0.02976
2719.40107	0.02964
2718.11530	0.02955
2716.82953	0.02942
2715.54376	0.02920
2714.25799	0.02894
2712.97222	0.02874
2711.68646	0.02865
2710.40069	0.02860
2709.11492	0.02861
2707.82915	0.02872
2706.54338	0.02889
2705.25761	0.02901
2703.97184	0.02898
2702.68607	0.02880
2701.40031	0.02855
2700.11454	0.02832
2698.82877	0.02816
2697.54300	0.02810
2696.25723	0.02812
2694.97146	0.02822
2693.68569	0.02835
2692.39992	0.02845
2691.11415	0.02845
2689.82839	0.02834
2688.54262	0.02816
2687.25685	0.02794
2685.97108	0.02778
2684.68531	0.02778
2683.39954	0.02794
2682.11377	0.02812
2680.82800	0.02816
2679.54224	0.02806
2678.25647	0.02791
2676.97070	0.02781
2675.68493	0.02779
2674.39916	0.02777
2673.11339	0.02770
2671.82762	0.02757
2670.54185	0.02744
2669.25608	0.02736
2667.97032	0.02738
2666.68455	0.02754
2665.39878	0.02780
2664.11301	0.02809
2662.82724	0.02832
2661.54147	0.02846
2660.25570	0.02848
2658.96993	0.02837
2657.68417	0.02818
2656.39840	0.02800
2655.11263	0.02788
2653.82686	0.02775
2652.54109	0.02759
2651.25532	0.02746
2649.96955	0.02742
2648.68378	0.02744
2647.39801	0.02732
2646.11225	0.02695
2644.82648	0.02645
2643.54071	0.02606
2642.25494	0.02593
2640.96917	0.02601
2639.68340	0.02612
2638.39763	0.02612
2637.11186	0.02603
2635.82609	0.02597
2634.54033	0.02602
2633.25456	0.02611
2631.96879	0.02602
2630.68302	0.02568
2629.39725	0.02523
2628.11148	0.02491
2626.82571	0.02480
2625.53994	0.02481
2624.25418	0.02483
2622.96841	0.02486
2621.68264	0.02488
2620.39687	0.02475
2619.11110	0.02443
2617.82533	0.02409
2616.53956	0.02393
2615.25379	0.02395
2613.96802	0.02392
2612.68226	0.02373
2611.39649	0.02353
2610.11072	0.02346
2608.82495	0.02349
2607.53918	0.02340
2606.25341	0.02303
2604.96764	0.02239
2603.68187	0.02173
2602.39611	0.02140
2601.11034	0.02160
2599.82457	0.02213
2598.53880	0.02262
2597.25303	0.02284
2595.96726	0.02288
2594.68149	0.02291
2593.39572	0.02292
2592.10995	0.02276
2590.82419	0.02250
2589.53842	0.02243
2588.25265	0.02277
2586.96688	0.02328
2585.68111	0.02348
2584.39534	0.02308
2583.10957	0.02234
2581.82380	0.02171
2580.53804	0.02140
2579.25227	0.02123
2577.96650	0.02091
2576.68073	0.02044
2575.39496	0.02011
2574.10919	0.02022
2572.82342	0.02070
2571.53765	0.02115
2570.25188	0.02124
2568.96612	0.02099
2567.68035	0.02076
2566.39458	0.02087
2565.10881	0.02134
2563.82304	0.02179
2562.53727	0.02175
2561.25150	0.02114
2559.96573	0.02032
2558.67997	0.01972
2557.39420	0.01951
2556.10843	0.01962
2554.82266	0.01999
2553.53689	0.02060
2552.25112	0.02136
2550.96535	0.02206
2549.67958	0.02246
2548.39381	0.02251
2547.10805	0.02229
2545.82228	0.02195
2544.53651	0.02158
2543.25074	0.02120
2541.96497	0.02085
2540.67920	0.02059
2539.39343	0.02056
2538.10766	0.02081
2536.82190	0.02112
2535.53613	0.02124
2534.25036	0.02106
2532.96459	0.02076
2531.67882	0.02060
2530.39305	0.02065
2529.10728	0.02082
2527.82151	0.02098
2526.53574	0.02101
2525.24998	0.02085
2523.96421	0.02054
2522.67844	0.02025
2521.39267	0.02020
2520.10690	0.02047
2518.82113	0.02087
2517.53536	0.02110
2516.24959	0.02096
2514.96383	0.02051
2513.67806	0.01999
2512.39229	0.01965
2511.10652	0.01960
2509.82075	0.01980
2508.53498	0.02003
2507.24921	0.02008
2505.96344	0.02000
2504.67767	0.02004
2503.39191	0.02037
2502.10614	0.02083
2500.82037	0.02111
2499.53460	0.02113
2498.24883	0.02104
2496.96306	0.02095
2495.67729	0.02079
2494.39152	0.02044
2493.10576	0.01997
2491.81999	0.01955
2490.53422	0.01935
2489.24845	0.01944
2487.96268	0.01983
2486.67691	0.02029
2485.39114	0.02055
2484.10537	0.02047
2482.81960	0.02026
2481.53384	0.02022
2480.24807	0.02036
2478.96230	0.02041
2477.67653	0.02019
2476.39076	0.01982
2475.10499	0.01963
2473.81922	0.01982
2472.53345	0.02036
2471.24769	0.02099
2469.96192	0.02137
2468.67615	0.02124
2467.39038	0.02066
2466.10461	0.01999
2464.81884	0.01958
2463.53307	0.01955
2462.24730	0.01974
2460.96153	0.01989
2459.67577	0.01991
2458.39000	0.01988
2457.10423	0.01996
2455.81846	0.02014
2454.53269	0.02033
2453.24692	0.02040
2451.96115	0.02028
2450.67538	0.02002
2449.38962	0.01969
2448.10385	0.01936
2446.81808	0.01905
2445.53231	0.01884
2444.24654	0.01883
2442.96077	0.01902
2441.67500	0.01926
2440.38923	0.01929
2439.10346	0.01903
2437.81770	0.01865
2436.53193	0.01841
2435.24616	0.01846
2433.96039	0.01867
2432.67462	0.01888
2431.38885	0.01907
2430.10308	0.01932
2428.81731	0.01957
2427.53155	0.01956
2426.24578	0.01921
2424.96001	0.01873
2423.67424	0.01848
2422.38847	0.01860
2421.10270	0.01884
2419.81693	0.01884
2418.53116	0.01852
2417.24539	0.01813
2415.95963	0.01807
2414.67386	0.01840
2413.38809	0.01882
2412.10232	0.01893
2410.81655	0.01862
2409.53078	0.01811
2408.24501	0.01772
2406.95924	0.01758
2405.67347	0.01764
2404.38771	0.01790
2403.10194	0.01838
2401.81617	0.01900
2400.53040	0.01954
2399.24463	0.01986
2397.95886	0.01972
2396.67309	0.01924
2395.38732	0.01868
2394.10156	0.01821
2392.81579	0.01787
2391.53002	0.01760
2390.24425	0.01738
2388.95848	0.01727
2387.67271	0.01736
2386.38694	0.01764
2385.10117	0.01800
2383.81540	0.01833
2382.52964	0.01852
2381.24387	0.01844
2379.95810	0.01799
2378.67233	0.01716
2377.38656	0.01611
2376.10079	0.01516
2374.81502	0.01455
2373.52925	0.01431
2372.24349	0.01434
2370.95772	0.01452
2369.67195	0.01479
2368.38618	0.01499
2367.10041	0.01494
2365.81464	0.01459
2364.52887	0.01414
2363.24310	0.01386
2361.95733	0.01387
2360.67157	0.01409
2359.38580	0.01438
2358.10003	0.01464
2356.81426	0.01485
2355.52849	0.01506
2354.24272	0.01532
2352.95695	0.01568
2351.67118	0.01604
2350.38542	0.01626
2349.09965	0.01629
2347.81388	0.01625
2346.52811	0.01625
2345.24234	0.01633
2343.95657	0.01646
2342.67080	0.01658
2341.38503	0.01659
2340.09926	0.01642
2338.81350	0.01608
2337.52773	0.01565
2336.24196	0.01527
2334.95619	0.01502
2333.67042	0.01489
2332.38465	0.01482
2331.09888	0.01473
2329.81311	0.01461
2328.52735	0.01462
2327.24158	0.01493
2325.95581	0.01561
2324.67004	0.01648
2323.38427	0.01723
2322.09850	0.01761
2320.81273	0.01767
2319.52696	0.01767
2318.24119	0.01786
2316.95543	0.01822
2315.66966	0.01853
2314.38389	0.01865
2313.09812	0.01860
2311.81235	0.01850
2310.52658	0.01836
2309.24081	0.01812
2307.95504	0.01772
2306.66928	0.01725
2305.38351	0.01688
2304.09774	0.01674
2302.81197	0.01688
2301.52620	0.01722
2300.24043	0.01764
2298.95466	0.01795
2297.66889	0.01800
2296.38312	0.01778
2295.09736	0.01738
2293.81159	0.01694
2292.52582	0.01655
2291.24005	0.01628
2289.95428	0.01614
2288.66851	0.01614
2287.38274	0.01629
2286.09697	0.01655
2284.81121	0.01685
2283.52544	0.01705
2282.23967	0.01713
2280.95390	0.01721
2279.66813	0.01735
2278.38236	0.01743
2277.09659	0.01724
2275.81082	0.01671
2274.52505	0.01598
2273.23929	0.01529
2271.95352	0.01483
2270.66775	0.01464
2269.38198	0.01461
2268.09621	0.01461
2266.81044	0.01465
2265.52467	0.01477
2264.23890	0.01490
2262.95314	0.01495
2261.66737	0.01493
2260.38160	0.01498
2259.09583	0.01506
2257.81006	0.01495
2256.52429	0.01454
2255.23852	0.01406
2253.95275	0.01377
2252.66698	0.01364
2251.38122	0.01349
2250.09545	0.01351
2248.80968	0.01387
2247.52391	0.01383
2246.23814	0.01354
2244.95237	0.01293
2243.66660	0.01232
2242.38083	0.01218
2241.09507	0.01263
2239.80930	0.01333
2238.52353	0.01384
2237.23776	0.01402
2235.95199	0.01409
2234.66622	0.01424
2233.38045	0.01441
2232.09468	0.01450
2230.80891	0.01458
2229.52315	0.01477
2228.23738	0.01487
2226.95161	0.01459
2225.66584	0.01390
2224.38007	0.01317
2223.09430	0.01272
2221.80853	0.01255
2220.52276	0.01239
2219.23700	0.01198
2217.95123	0.01132
2216.66546	0.01050
2215.37969	0.00964
2214.09392	0.00887
2212.80815	0.00846
2211.52238	0.00847
2210.23661	0.00856
2208.95084	0.00837
2207.66508	0.00812
2206.37931	0.00836
2205.09354	0.00903
2203.80777	0.00934
2202.52200	0.00879
2201.23623	0.00790
2199.95046	0.00766
2198.66469	0.00841
2197.37893	0.00953
2196.09316	0.01005
2194.80739	0.00947
2193.52162	0.00837
2192.23585	0.00800
2190.95008	0.00905
2189.66431	0.01075
2188.37854	0.01159
2187.09277	0.01090
2185.80701	0.00928
2184.52124	0.00764
2183.23547	0.00640
2181.94970	0.00569
2180.66393	0.00563
2179.37816	0.00616
2178.09239	0.00690
2176.80662	0.00743
2175.52085	0.00768
2174.23509	0.00795
2172.94932	0.00846
2171.66355	0.00894
2170.37778	0.00877
2169.09201	0.00774
2167.80624	0.00658
2166.52047	0.00637
2165.23470	0.00741
2163.94894	0.00872
2162.66317	0.00901
2161.37740	0.00788
2160.09163	0.00605
2158.80586	0.00466
2157.52009	0.00432
2156.23432	0.00488
2154.94855	0.00583
2153.66278	0.00670
2152.37702	0.00727
2151.09125	0.00764
2149.80548	0.00794
2148.51971	0.00801
2147.23394	0.00754
2145.94817	0.00667
2144.66240	0.00602
2143.37663	0.00604
2142.09087	0.00655
2140.80510	0.00705
2139.51933	0.00726
2138.23356	0.00716
2136.94779	0.00682
2135.66202	0.00629
2134.37625	0.00580
2133.09048	0.00581
2131.80471	0.00656
2130.51895	0.00764
2129.23318	0.00824
2127.94741	0.00803
2126.66164	0.00756
2125.37587	0.00756
2124.09010	0.00811
2122.80433	0.00873
2121.51856	0.00904
2120.23280	0.00909
2118.94703	0.00910
2117.66126	0.00920
2116.37549	0.00946
2115.08972	0.00988
2113.80395	0.01034
2112.51818	0.01052
2111.23241	0.01022
2109.94664	0.00961
2108.66088	0.00901
2107.37511	0.00858
2106.08934	0.00822
2104.80357	0.00786
2103.51780	0.00764
2102.23203	0.00764
2100.94626	0.00780
2099.66049	0.00795
2098.37473	0.00801
2097.08896	0.00792
2095.80319	0.00768
2094.51742	0.00739
2093.23165	0.00719
2091.94588	0.00710
2090.66011	0.00707
2089.37434	0.00700
2088.08857	0.00690
2086.80281	0.00687
2085.51704	0.00700
2084.23127	0.00730
2082.94550	0.00765
2081.65973	0.00792
2080.37396	0.00800
2079.08819	0.00782
2077.80242	0.00734
2076.51666	0.00664
2075.23089	0.00593
2073.94512	0.00547
2072.65935	0.00547
2071.37358	0.00594
2070.08781	0.00663
2068.80204	0.00706
2067.51627	0.00695
2066.23050	0.00647
2064.94474	0.00610
2063.65897	0.00615
2062.37320	0.00643
2061.08743	0.00651
2059.80166	0.00623
2058.51589	0.00588
2057.23012	0.00585
2055.94435	0.00628
2054.65859	0.00690
2053.37282	0.00725
2052.08705	0.00706
2050.80128	0.00638
2049.51551	0.00546
2048.22974	0.00463
2046.94397	0.00422
2045.65820	0.00433
2044.37243	0.00481
2043.08667	0.00532
2041.80090	0.00561
2040.51513	0.00562
2039.22936	0.00547
2037.94359	0.00521
2036.65782	0.00488
2035.37205	0.00448
2034.08628	0.00405
2032.80052	0.00358
2031.51475	0.00302
2030.22898	0.00225
2028.94321	0.00124
2027.65744	0.00019
2026.37167	-0.00046
2025.08590	-0.00042
2023.80013	0.00019
2022.51436	0.00088
2021.22860	0.00128
2019.94283	0.00139
2018.65706	0.00149
2017.37129	0.00184
2016.08552	0.00243
2014.79975	0.00298
2013.51398	0.00315
2012.22821	0.00297
2010.94245	0.00286
2009.65668	0.00311
2008.37091	0.00353
2007.08514	0.00377
2005.79937	0.00381
2004.51360	0.00395
2003.22783	0.00432
2001.94206	0.00480
2000.65629	0.00514
1999.37053	0.00519
1998.08476	0.00487
1996.79899	0.00432
1995.51322	0.00389
1994.22745	0.00387
1992.94168	0.00420
1991.65591	0.00461
1990.37014	0.00497
1989.08438	0.00531
1987.79861	0.00563
1986.51284	0.00585
1985.22707	0.00608
1983.94130	0.00660
1982.65553	0.00739
1981.36976	0.00796
1980.08399	0.00783
1978.79822	0.00703
1977.51246	0.00604
1976.22669	0.00523
1974.94092	0.00471
1973.65515	0.00449
1972.36938	0.00471
1971.08361	0.00541
1969.79784	0.00640
1968.51207	0.00732
1967.22631	0.00785
1965.94054	0.00795
1964.65477	0.00784
1963.36900	0.00772
1962.08323	0.00771
1960.79746	0.00785
1959.51169	0.00819
1958.22592	0.00871
1956.94015	0.00925
1955.65439	0.00960
1954.36862	0.00966
1953.08285	0.00946
1951.79708	0.00914
1950.51131	0.00880
1949.22554	0.00858
1947.93977	0.00858
1946.65400	0.00869
1945.36823	0.00869
1944.08247	0.00842
1942.79670	0.00801
1941.51093	0.00777
1940.22516	0.00779
1938.93939	0.00792
1937.65362	0.00797
1936.36785	0.00798
1935.08208	0.00811
1933.79632	0.00846
1932.51055	0.00887
1931.22478	0.00914
1929.93901	0.00921
1928.65324	0.00912
1927.36747	0.00895
1926.08170	0.00877
1924.79593	0.00863
1923.51016	0.00856
1922.22440	0.00854
1920.93863	0.00856
1919.65286	0.00864
1918.36709	0.00880
1917.08132	0.00903
1915.79555	0.00928
1914.50978	0.00942
1913.22401	0.00937
1911.93825	0.00919
1910.65248	0.00904
1909.36671	0.00906
1908.08094	0.00923
1906.79517	0.00953
1905.50940	0.00988
1904.22363	0.01018
1902.93786	0.01027
1901.65209	0.01019
1900.36633	0.01010
1899.08056	0.01011
1897.79479	0.01010
1896.50902	0.00986
1895.22325	0.00943
1893.93748	0.00906
1892.65171	0.00902
1891.36594	0.00938
1890.08018	0.00995
1888.79441	0.01044
1887.50864	0.01070
1886.22287	0.01072
1884.93710	0.01055
1883.65133	0.01031
1882.36556	0.01008
1881.07979	0.00994
1879.79402	0.00988
1878.50826	0.00992
1877.22249	0.01004
1875.93672	0.01022
1874.65095	0.01038
1873.36518	0.01043
1872.07941	0.01042
1870.79364	0.01044
1869.50787	0.01056
1868.22211	0.01083
1866.93634	0.01121
1865.65057	0.01161
1864.36480	0.01182
1863.07903	0.01169
1861.79326	0.01125
1860.50749	0.01077
1859.22172	0.01051
1857.93595	0.01053
1856.65019	0.01072
1855.36442	0.01088
1854.07865	0.01093
1852.79288	0.01092
1851.50711	0.01091
1850.22134	0.01092
1848.93557	0.01092
1847.64980	0.01094
1846.36404	0.01094
1845.07827	0.01086
1843.79250	0.01071
1842.50673	0.01063
1841.22096	0.01075
1839.93519	0.01102
1838.64942	0.01123
1837.36365	0.01131
1836.07788	0.01132
1834.79212	0.01135
1833.50635	0.01143
1832.22058	0.01148
1830.93481	0.01143
1829.64904	0.01126
1828.36327	0.01104
1827.07750	0.01093
1825.79173	0.01099
1824.50597	0.01110
1823.22020	0.01118
1821.93443	0.01119
1820.64866	0.01119
1819.36289	0.01120
1818.07712	0.01118
1816.79135	0.01112
1815.50558	0.01103
1814.21981	0.01100
1812.93405	0.01106
1811.64828	0.01118
1810.36251	0.01130
1809.07674	0.01134
1807.79097	0.01126
1806.50520	0.01111
1805.21943	0.01103
1803.93366	0.01111
1802.64790	0.01134
1801.36213	0.01156
1800.07636	0.01166
1798.79059	0.01162
1797.50482	0.01149
1796.21905	0.01136
1794.93328	0.01126
1793.64751	0.01121
1792.36174	0.01120
1791.07598	0.01122
1789.79021	0.01130
1788.50444	0.01147
1787.21867	0.01168
1785.93290	0.01183
1784.64713	0.01188
1783.36136	0.01184
1782.07559	0.01180
1780.78983	0.01177
1779.50406	0.01173
1778.21829	0.01168
1776.93252	0.01164
1775.64675	0.01168
1774.36098	0.01180
1773.07521	0.01193
1771.78944	0.01199
1770.50367	0.01202
1769.21791	0.01214
1767.93214	0.01232
1766.64637	0.01244
1765.36060	0.01243
1764.07483	0.01235
1762.78906	0.01226
1761.50329	0.01220
1760.21752	0.01219
1758.93176	0.01225
1757.64599	0.01236
1756.36022	0.01244
1755.07445	0.01249
1753.78868	0.01255
1752.50291	0.01266
1751.21714	0.01274
1749.93137	0.01274
1748.64560	0.01264
1747.35984	0.01251
1746.07407	0.01243
1744.78830	0.01243
1743.50253	0.01249
1742.21676	0.01258
1740.93099	0.01269
1739.64522	0.01279
1738.35945	0.01286
1737.07369	0.01293
1735.78792	0.01305
1734.50215	0.01317
1733.21638	0.01320
1731.93061	0.01315
1730.64484	0.01315
1729.35907	0.01324
1728.07330	0.01338
1726.78753	0.01353
1725.50177	0.01367
1724.21600	0.01377
1722.93023	0.01381
1721.64446	0.01383
1720.35869	0.01390
1719.07292	0.01403
1717.78715	0.01418
1716.50138	0.01429
1715.21561	0.01442
1713.92985	0.01464
1712.64408	0.01493
1711.35831	0.01525
1710.07254	0.01558
1708.78677	0.01595
1707.50100	0.01636
1706.21523	0.01672
1704.92946	0.01700
1703.64370	0.01727
1702.35793	0.01768
1701.07216	0.01821
1699.78639	0.01867
1698.50062	0.01902
1697.21485	0.01937
1695.92908	0.01972
1694.64331	0.02002
1693.35754	0.02034
1692.07178	0.02080
1690.78601	0.02137
1689.50024	0.02189
1688.21447	0.02233
1686.92870	0.02278
1685.64293	0.02326
1684.35716	0.02368
1683.07139	0.02401
1681.78563	0.02433
1680.49986	0.02475
1679.21409	0.02523
1677.92832	0.02572
1676.64255	0.02623
1675.35678	0.02670
1674.07101	0.02709
1672.78524	0.02742
1671.49947	0.02773
1670.21371	0.02804
1668.92794	0.02833
1667.64217	0.02862
1666.35640	0.02897
1665.07063	0.02943
1663.78486	0.02996
1662.49909	0.03046
1661.21332	0.03085
1659.92756	0.03109
1658.64179	0.03123
1657.35602	0.03133
1656.07025	0.03150
1654.78448	0.03180
1653.49871	0.03212
1652.21294	0.03232
1650.92717	0.03240
1649.64140	0.03249
1648.35564	0.03263
1647.06987	0.03276
1645.78410	0.03282
1644.49833	0.03288
1643.21256	0.03299
1641.92679	0.03311
1640.64102	0.03318
1639.35525	0.03317
1638.06949	0.03314
1636.78372	0.03312
1635.49795	0.03306
1634.21218	0.03290
1632.92641	0.03269
1631.64064	0.03250
1630.35487	0.03233
1629.06910	0.03218
1627.78333	0.03203
1626.49757	0.03192
1625.21180	0.03183
1623.92603	0.03175
1622.64026	0.03165
1621.35449	0.03154
1620.06872	0.03150
1618.78295	0.03153
1617.49718	0.03154
1616.21142	0.03145
1614.92565	0.03130
1613.63988	0.03121
1612.35411	0.03120
1611.06834	0.03118
1609.78257	0.03113
1608.49680	0.03109
1607.21103	0.03114
1605.92526	0.03130
1604.63950	0.03153
1603.35373	0.03174
1602.06796	0.03188
1600.78219	0.03193
1599.49642	0.03191
1598.21065	0.03187
1596.92488	0.03188
1595.63911	0.03197
1594.35335	0.03213
1593.06758	0.03232
1591.78181	0.03248
1590.49604	0.03260
1589.21027	0.03269
1587.92450	0.03276
1586.63873	0.03283
1585.35296	0.03291
1584.06719	0.03303
1582.78143	0.03321
1581.49566	0.03341
1580.20989	0.03362
1578.92412	0.03387
1577.63835	0.03420
1576.35258	0.03456
1575.06681	0.03484
1573.78104	0.03505
1572.49528	0.03530
1571.20951	0.03563
1569.92374	0.03599
1568.63797	0.03629
1567.35220	0.03650
1566.06643	0.03666
1564.78066	0.03680
1563.49489	0.03696
1562.20912	0.03722
1560.92336	0.03761
1559.63759	0.03802
1558.35182	0.03829
1557.06605	0.03843
1555.78028	0.03857
1554.49451	0.03878
1553.20874	0.03901
1551.92297	0.03925
1550.63721	0.03948
1549.35144	0.03966
1548.06567	0.03979
1546.77990	0.03994
1545.49413	0.04013
1544.20836	0.04034
1542.92259	0.04053
1541.63682	0.04070
1540.35105	0.04083
1539.06529	0.04090
1537.77952	0.04098
1536.49375	0.04117
1535.20798	0.04146
1533.92221	0.04175
1532.63644	0.04197
1531.35067	0.04220
1530.06490	0.04256
1528.77914	0.04309
1527.49337	0.04369
1526.20760	0.04427
1524.92183	0.04478
1523.63606	0.04531
1522.35029	0.04591
1521.06452	0.04656
1519.77875	0.04726
1518.49298	0.04805
1517.20722	0.04895
1515.92145	0.04990
1514.63568	0.05087
1513.34991	0.05188
1512.06414	0.05291
1510.77837	0.05396
1509.49260	0.05502
1508.20683	0.05615
1506.92107	0.05729
1505.63530	0.05836
1504.34953	0.05934
1503.06376	0.06029
1501.77799	0.06119
1500.49222	0.06203
1499.20645	0.06282
1497.92068	0.06359
1496.63491	0.06435
1495.34915	0.06503
1494.06338	0.06562
1492.77761	0.06619
1491.49184	0.06678
1490.20607	0.06741
1488.92030	0.06811
1487.63453	0.06886
1486.34876	0.06967
1485.06299	0.07051
1483.77723	0.07140
1482.49146	0.07234
1481.20569	0.07328
1479.91992	0.07421
1478.63415	0.07514
1477.34838	0.07606
1476.06261	0.07696
1474.77684	0.07781
1473.49108	0.07858
1472.20531	0.07918
1470.91954	0.07960
1469.63377	0.07989
1468.34800	0.08016
1467.06223	0.08043
1465.77646	0.08071
1464.49069	0.08095
1463.20492	0.08116
1461.91916	0.08135
1460.63339	0.08163
1459.34762	0.08208
1458.06185	0.08270
1456.77608	0.08332
1455.49031	0.08381
1454.20454	0.08419
1452.91877	0.08453
1451.63301	0.08486
1450.34724	0.08516
1449.06147	0.08542
1447.77570	0.08565
1446.48993	0.08580
1445.20416	0.08588
1443.91839	0.08588
1442.63262	0.08580
1441.34685	0.08565
1440.06109	0.08547
1438.77532	0.08537
1437.48955	0.08538
1436.20378	0.08551
1434.91801	0.08578
1433.63224	0.08623
1432.34647	0.08689
1431.06070	0.08771
1429.77494	0.08866
1428.48917	0.08971
1427.20340	0.09084
1425.91763	0.09200
1424.63186	0.09317
1423.34609	0.09432
1422.06032	0.09548
1420.77455	0.09664
1419.48878	0.09771
1418.20302	0.09858
1416.91725	0.09921
1415.63148	0.09963
1414.34571	0.09988
1413.05994	0.09998
1411.77417	0.09991
1410.48840	0.09967
1409.20263	0.09924
1407.91687	0.09865
1406.63110	0.09790
1405.34533	0.09699
1404.05956	0.09591
1402.77379	0.09470
1401.48802	0.09335
1400.20225	0.09185
1398.91648	0.09016
1397.63071	0.08832
1396.34495	0.08643
1395.05918	0.08453
1393.77341	0.08265
1392.48764	0.08078
1391.20187	0.07891
1389.91610	0.07702
1388.63033	0.07510
1387.34456	0.07318
1386.05880	0.07128
1384.77303	0.06942
1383.48726	0.06764
1382.20149	0.06590
1380.91572	0.06419
1379.62995	0.06248
1378.34418	0.06073
1377.05841	0.05891
1375.77264	0.05703
1374.48688	0.05510
1373.20111	0.05318
1371.91534	0.05132
1370.62957	0.04955
1369.34380	0.04783
1368.05803	0.04619
1366.77226	0.04463
1365.48649	0.04322
1364.20073	0.04194
1362.91496	0.04072
1361.62919	0.03952
1360.34342	0.03834
1359.05765	0.03722
1357.77188	0.03618
1356.48611	0.03523
1355.20034	0.03435
1353.91457	0.03353
1352.62881	0.03280
1351.34304	0.03215
1350.05727	0.03156
1348.77150	0.03100
1347.48573	0.03047
1346.19996	0.02998
1344.91419	0.02950
1343.62842	0.02904
1342.34266	0.02858
1341.05689	0.02813
1339.77112	0.02771
1338.48535	0.02731
1337.19958	0.02696
1335.91381	0.02664
1334.62804	0.02633
1333.34227	0.02598
1332.05650	0.02557
1330.77074	0.02514
1329.48497	0.02472
1328.19920	0.02438
1326.91343	0.02413
1325.62766	0.02394
1324.34189	0.02379
1323.05612	0.02363
1321.77035	0.02345
1320.48459	0.02327
1319.19882	0.02310
1317.91305	0.02291
1316.62728	0.02267
1315.34151	0.02239
1314.05574	0.02211
1312.76997	0.02186
1311.48420	0.02167
1310.19843	0.02152
1308.91267	0.02139
1307.62690	0.02125
1306.34113	0.02110
1305.05536	0.02092
1303.76959	0.02074
1302.48382	0.02059
1301.19805	0.02046
1299.91228	0.02031
1298.62652	0.02013
1297.34075	0.01993
1296.05498	0.01976
1294.76921	0.01964
1293.48344	0.01957
1292.19767	0.01953
1290.91190	0.01949
1289.62613	0.01940
1288.34036	0.01925
1287.05460	0.01908
1285.76883	0.01891
1284.48306	0.01878
1283.19729	0.01866
1281.91152	0.01854
1280.62575	0.01841
1279.33998	0.01829
1278.05421	0.01822
1276.76845	0.01821
1275.48268	0.01820
1274.19691	0.01816
1272.91114	0.01809
1271.62537	0.01801
1270.33960	0.01791
1269.05383	0.01779
1267.76806	0.01763
1266.48229	0.01748
1265.19653	0.01737
1263.91076	0.01733
1262.62499	0.01733
1261.33922	0.01731
1260.05345	0.01725
1258.76768	0.01719
1257.48191	0.01716
1256.19614	0.01717
1254.91037	0.01719
1253.62461	0.01718
1252.33884	0.01713
1251.05307	0.01706
1249.76730	0.01698
1248.48153	0.01691
1247.19576	0.01685
1245.90999	0.01677
1244.62422	0.01669
1243.33846	0.01663
1242.05269	0.01659
1240.76692	0.01658
1239.48115	0.01656
1238.19538	0.01651
1236.90961	0.01643
1235.62384	0.01632
1234.33807	0.01620
1233.05230	0.01609
1231.76654	0.01600
1230.48077	0.01593
1229.19500	0.01587
1227.90923	0.01583
1226.62346	0.01579
1225.33769	0.01573
1224.05192	0.01565
1222.76615	0.01556
1221.48039	0.01547
1220.19462	0.01539
1218.90885	0.01533
1217.62308	0.01526
1216.33731	0.01522
1215.05154	0.01520
1213.76577	0.01518
1212.48000	0.01515
1211.19423	0.01507
1209.90847	0.01498
1208.62270	0.01493
1207.33693	0.01497
1206.05116	0.01507
1204.76539	0.01517
1203.47962	0.01520
1202.19385	0.01515
1200.90808	0.01507
1199.62232	0.01501
1198.33655	0.01499
1197.05078	0.01501
1195.76501	0.01503
1194.47924	0.01500
1193.19347	0.01491
1191.90770	0.01478
1190.62193	0.01470
1189.33616	0.01469
1188.05040	0.01475
1186.76463	0.01485
1185.47886	0.01494
1184.19309	0.01500
1182.90732	0.01505
1181.62155	0.01511
1180.33578	0.01515
1179.05001	0.01514
1177.76425	0.01506
1176.47848	0.01496
1175.19271	0.01493
1173.90694	0.01498
1172.62117	0.01508
1171.33540	0.01516
1170.04963	0.01522
1168.76386	0.01532
1167.47809	0.01550
1166.19233	0.01573
1164.90656	0.01596
1163.62079	0.01615
1162.33502	0.01633
1161.04925	0.01652
1159.76348	0.01670
1158.47771	0.01686
1157.19194	0.01700
1155.90618	0.01715
1154.62041	0.01735
1153.33464	0.01764
1152.04887	0.01801
1150.76310	0.01847
1149.47733	0.01899
1148.19156	0.01956
1146.90579	0.02012
1145.62002	0.02068
1144.33426	0.02126
1143.04849	0.02190
1141.76272	0.02263
1140.47695	0.02346
1139.19118	0.02438
1137.90541	0.02537
1136.61964	0.02648
1135.33387	0.02776
1134.04811	0.02922
1132.76234	0.03080
1131.47657	0.03245
1130.19080	0.03420
1128.90503	0.03613
1127.61926	0.03832
1126.33349	0.04076
1125.04772	0.04342
1123.76195	0.04624
1122.47619	0.04918
1121.19042	0.05217
1119.90465	0.05513
1118.61888	0.05804
1117.33311	0.06095
1116.04734	0.06393
1114.76157	0.06698
1113.47580	0.07005
1112.19004	0.07310
1110.90427	0.07614
1109.61850	0.07918
1108.33273	0.08221
1107.04696	0.08523
1105.76119	0.08824
1104.47542	0.09119
1103.18965	0.09403
1101.90388	0.09676
1100.61812	0.09937
1099.33235	0.10184
1098.04658	0.10412
1096.76081	0.10622
1095.47504	0.10824
1094.18927	0.11028
1092.90350	0.11235
1091.61773	0.11436
1090.33197	0.11626
1089.04620	0.11807
1087.76043	0.11987
1086.47466	0.12174
1085.18889	0.12367
1083.90312	0.12564
1082.61735	0.12766
1081.33158	0.12979
1080.04581	0.13201
1078.76005	0.13433
1077.47428	0.13671
1076.18851	0.13915
1074.90274	0.14167
1073.61697	0.14430
1072.33120	0.14706
1071.04543	0.14997
1069.75966	0.15299
1068.47390	0.15608
1067.18813	0.15920
1065.90236	0.16234
1064.61659	0.16553
1063.33082	0.16876
1062.04505	0.17198
1060.75928	0.17515
1059.47351	0.17829
1058.18774	0.18142
1056.90198	0.18451
1055.61621	0.18751
1054.33044	0.19040
1053.04467	0.19324
1051.75890	0.19613
1050.47313	0.19909
1049.18736	0.20212
1047.90159	0.20518
1046.61583	0.20827
1045.33006	0.21141
1044.04429	0.21460
1042.75852	0.21786
1041.47275	0.22116
1040.18698	0.22445
1038.90121	0.22765
1037.61544	0.23076
1036.32967	0.23382
1035.04391	0.23688
1033.75814	0.23994
1032.47237	0.24290
1031.18660	0.24564
1029.90083	0.24808
1028.61506	0.25021
1027.32929	0.25210
1026.04352	0.25376
1024.75775	0.25511
1023.47199	0.25607
1022.18622	0.25659
1020.90045	0.25669
1019.61468	0.25642
1018.32891	0.25581
1017.04314	0.25478
1015.75737	0.25328
1014.47160	0.25128
1013.18584	0.24878
1011.90007	0.24573
1010.61430	0.24210
1009.32853	0.23790
1008.04276	0.23320
1006.75699	0.22807
1005.47122	0.22256
1004.18545	0.21673
1002.89968	0.21065
1001.61392	0.20432
1000.32815	0.19771
999.04238	0.19083
997.75661	0.18377
996.47084	0.17671
995.18507	0.16975
993.89930	0.16286
992.61353	0.15599
991.32777	0.14919
990.04200	0.14259
988.75623	0.13628
987.47046	0.13028
986.18469	0.12460
984.89892	0.11928
983.61315	0.11434
982.32738	0.10967
981.04161	0.10517
979.75585	0.10082
978.47008	0.09674
977.18431	0.09307
975.89854	0.08990
974.61277	0.08726
973.32700	0.08513
972.04123	0.08349
970.75546	0.08231
969.46970	0.08166
968.18393	0.08157
966.89816	0.08195
965.61239	0.08264
964.32662	0.08347
963.04085	0.08430
961.75508	0.08492
960.46931	0.08512
959.18354	0.08471
957.89778	0.08364
956.61201	0.08201
955.32624	0.08001
954.04047	0.07782
952.75470	0.07561
951.46893	0.07344
950.18316	0.07132
948.89739	0.06918
947.61163	0.06702
946.32586	0.06493
945.04009	0.06300
943.75432	0.06120
942.46855	0.05943
941.18278	0.05762
939.89701	0.05583
938.61124	0.05419
937.32547	0.05276
936.03971	0.05150
934.75394	0.05038
933.46817	0.04935
932.18240	0.04840
930.89663	0.04750
929.61086	0.04664
928.32509	0.04580
927.03932	0.04495
925.75356	0.04409
924.46779	0.04324
923.18202	0.04247
921.89625	0.04182
920.61048	0.04127
919.32471	0.04076
918.03894	0.04026
916.75317	0.03975
915.46740	0.03928
914.18164	0.03886
912.89587	0.03848
911.61010	0.03812
910.32433	0.03774
909.03856	0.03734
907.75279	0.03694
906.46702	0.03658
905.18125	0.03626
903.89549	0.03597
902.60972	0.03570
901.32395	0.03547
900.03818	0.03524
898.75241	0.03502
897.46664	0.03483
896.18087	0.03475
894.89510	0.03477
893.60933	0.03483
892.32357	0.03482
891.03780	0.03478
889.75203	0.03486
888.46626	0.03524
887.18049	0.03607
885.89472	0.03749
884.60895	0.03962
883.32318	0.04243
882.03742	0.04565
880.75165	0.04876
879.46588	0.05128
878.18011	0.05307
876.89434	0.05438
875.60857	0.05564
874.32280	0.05700
873.03703	0.05821
871.75126	0.05885
870.46550	0.05868
869.17973	0.05769
867.89396	0.05600
866.60819	0.05380
865.32242	0.05133
864.03665	0.04887
862.75088	0.04658
861.46511	0.04453
860.17935	0.04268
858.89358	0.04101
857.60781	0.03955
856.32204	0.03835
855.03627	0.03740
853.75050	0.03663
852.46473	0.03599
851.17896	0.03543
849.89319	0.03492
848.60743	0.03448
847.32166	0.03409
846.03589	0.03373
844.75012	0.03339
843.46435	0.03308
842.17858	0.03281
840.89281	0.03259
839.60704	0.03238
838.32128	0.03215
837.03551	0.03187
835.74974	0.03155
834.46397	0.03121
833.17820	0.03094
831.89243	0.03074
830.60666	0.03062
829.32089	0.03050
828.03512	0.03035
826.74936	0.03016
825.46359	0.02996
824.17782	0.02977
822.89205	0.02965
821.60628	0.02966
820.32051	0.02978
819.03474	0.02994
817.74897	0.03003
816.46321	0.03001
815.17744	0.02992
813.89167	0.02983
812.60590	0.02974
811.32013	0.02963
810.03436	0.02951
808.74859	0.02942
807.46282	0.02939
806.17705	0.02942
804.89129	0.02945
803.60552	0.02946
802.31975	0.02944
801.03398	0.02940
799.74821	0.02938
798.46244	0.02939
797.17667	0.02941
795.89090	0.02940
794.60513	0.02937
793.31937	0.02933
792.03360	0.02929
790.74783	0.02926
789.46206	0.02925
788.17629	0.02927
786.89052	0.02925
785.60475	0.02916
784.31898	0.02902
783.03322	0.02887
781.74745	0.02877
780.46168	0.02872
779.17591	0.02865
777.89014	0.02855
776.60437	0.02844
775.31860	0.02841
774.03283	0.02846
772.74706	0.02852
771.46130	0.02853
770.17553	0.02851
768.88976	0.02852
767.60399	0.02858
766.31822	0.02866
765.03245	0.02872
763.74668	0.02874
762.46091	0.02879
761.17515	0.02892
759.88938	0.02911
758.60361	0.02928
757.31784	0.02932
756.03207	0.02922
754.74630	0.02909
753.46053	0.02904
752.17476	0.02907
750.88899	0.02912
749.60323	0.02911
748.31746	0.02906
747.03169	0.02897
745.74592	0.02885
744.46015	0.02870
743.17438	0.02855
741.88861	0.02842
740.60284	0.02830
739.31708	0.02817
738.03131	0.02805
736.74554	0.02796
735.45977	0.02794
734.17400	0.02798
732.88823	0.02810
731.60246	0.02829
730.31669	0.02851
729.03092	0.02871
727.74516	0.02885
726.45939	0.02891
725.17362	0.02890
723.88785	0.02872
722.60208	0.02883
721.31631	0.02915
720.03054	0.02951
718.74477	0.02982
717.45901	0.03001
716.17324	0.03002
714.88747	0.02986
713.60170	0.02962
712.31593	0.02939
711.03016	0.02921
709.74439	0.02910
708.45862	0.02901
707.17285	0.02893
705.88709	0.02885
704.60132	0.02881
703.31555	0.02880
702.02978	0.02884
700.74401	0.02890
699.45824	0.02900
698.17247	0.02911
696.88670	0.02923
695.60094	0.02935
694.31517	0.02944
693.02940	0.02947
691.74363	0.02943
690.45786	0.02935
689.17209	0.02926
687.88632	0.02918
686.60055	0.02908
685.31478	0.02897
684.02902	0.02887
682.74325	0.02878
681.45748	0.02868
680.17171	0.02859
678.88594	0.02852
677.60017	0.02849
676.31440	0.02850
675.02863	0.02856
673.74287	0.02863
672.45710	0.02866
671.17133	0.02865
669.88556	0.02861
668.59979	0.02861
667.31402	0.02868
666.02825	0.02877
664.74248	0.02880
663.45671	0.02872
662.17095	0.02853
660.88518	0.02830
659.59941	0.02808
658.31364	0.02796
657.02787	0.02799
655.74210	0.02814
654.45633	0.02831
653.17056	0.02841
651.88480	0.02839
650.59903	0.02830
649.31326	0.02821
648.02749	0.02817
646.74172	0.02822
645.45595	0.02836
644.17018	0.02860
642.88441	0.02887
641.59864	0.02911
640.31288	0.02926
639.02711	0.02934
637.74134	0.02944
636.45557	0.02964
635.16980	0.02997
633.88403	0.03037
632.59826	0.03074
631.31249	0.03105
630.02673	0.03134
628.74096	0.03162
627.45519	0.03183
626.16942	0.03190
624.88365	0.03184
623.59788	0.03207
622.31211	0.03349
621.02634	0.03669
619.74057	0.04130
618.45481	0.04606
617.16904	0.04954
615.88327	0.05101
614.59750	0.05101
613.31173	0.05131
612.02596	0.05372
610.74019	0.05885
609.45442	0.06579
608.16866	0.07292
606.88289	0.07900
605.59712	0.08373
604.31135	0.08727
603.02558	0.08979
601.73981	0.09116
600.45404	0.09125
599.16827	0.09017
597.88250	0.08827
596.59674	0.08598
595.31097	0.08368
594.02520	0.08160
592.73943	0.07984
591.45366	0.07848
590.16789	0.07764
588.88212	0.07742
587.59635	0.07781
586.31059	0.07868
585.02482	0.07996
583.73905	0.08166
582.45328	0.08382
581.16751	0.08633
579.88174	0.08899
578.59597	0.09163
577.31020	0.09418
576.02443	0.09665
574.73867	0.09898
573.45290	0.10116
572.16713	0.10332
570.88136	0.10574
569.59559	0.10867
568.30982	0.11216
567.02405	0.11598
565.73828	0.11970
564.45251	0.12274
563.16675	0.12465
561.88098	0.12517
560.59521	0.12421
559.30944	0.12176
558.02367	0.11782
556.73790	0.11258
555.45213	0.10639
554.16636	0.09979
552.88060	0.09329
551.59483	0.08732
550.30906	0.08208
549.02329	0.07753
547.73752	0.07347
546.45175	0.06973
545.16598	0.06621
543.88021	0.06293
542.59444	0.06000
541.30868	0.05749
540.02291	0.05537
538.73714	0.05352
537.45137	0.05179
536.16560	0.05010
534.87983	0.04851
533.59406	0.04709
532.30829	0.04583
531.02253	0.04464
529.73676	0.04348
528.45099	0.04242
527.16522	0.04150
525.87945	0.04074
524.59368	0.04005
523.30791	0.03933
522.02214	0.03850
520.73637	0.03758
519.45061	0.03666
518.16484	0.03585
516.87907	0.03517
515.59330	0.03454
514.30753	0.03391
513.02176	0.03327
511.73599	0.03268
510.45022	0.03215
509.16446	0.03166
507.87869	0.03122
506.59292	0.03080
505.30715	0.03041
504.02138	0.03005
502.73561	0.02974
501.44984	0.02951
500.16407	0.02936
498.87830	0.02925
497.59254	0.02912
496.30677	0.02891
495.02100	0.02858
493.73523	0.02816
492.44946	0.02773
491.16369	0.02738
489.87792	0.02718
488.59215	0.02710
487.30639	0.02706
486.02062	0.02698
484.73485	0.02689
483.44908	0.02685
482.16331	0.02689
480.87754	0.02701
479.59177	0.02719
478.30600	0.02740
477.02023	0.02763
475.73447	0.02786
474.44870	0.02809
473.16293	0.02830
471.87716	0.02845
470.59139	0.02854
469.30562	0.02856
468.01985	0.02848
466.73408	0.02828
465.44832	0.02799
464.16255	0.02770
462.87678	0.02748
461.59101	0.02731
460.30524	0.02710
459.01947	0.02677
457.73370	0.02632
456.44793	0.02585
455.16216	0.02547
453.87640	0.02521
452.59063	0.02504
451.30486	0.02489
450.01909	0.02472
448.73332	0.02458
447.44755	0.02448
446.16178	0.02443
444.87601	0.02436
443.59025	0.02420
442.30448	0.02394
441.01871	0.02367
439.73294	0.02349
438.44717	0.02344
437.16140	0.02345
435.87563	0.02346
434.58986	0.02342
433.30409	0.02338
432.01833	0.02334
430.73256	0.02330
429.44679	0.02325
428.16102	0.02320
426.87525	0.02316
425.58948	0.02313
424.30371	0.02307
423.01794	0.02298
421.73218	0.02289
420.44641	0.02282
419.16064	0.02276
417.87487	0.02270
416.58910	0.02263
415.30333	0.02257
414.01756	0.02256
412.73179	0.02258
411.44602	0.02260
410.16026	0.02262
408.87449	0.02265
407.58872	0.02272
406.30295	0.02285
405.01718	0.02299
403.73141	0.02308
402.44564	0.02312
401.15987	0.02317
399.87411	0.02326
