3997.45528 0.05970
3996.16951 0.05868
3994.88374 0.05744
3993.59798 0.05645
3992.31221 0.05617
3991.02644 0.05649
3989.74067 0.05698
3988.45490 0.05741
3987.16913 0.05783
3985.88336 0.05817
3984.59759 0.05821
3983.31183 0.05786
3982.02606 0.05746
3980.74029 0.05740
3979.45452 0.05770
3978.16875 0.05806
3976.88298 0.05827
3975.59721 0.05834
3974.31144 0.05848
3973.02567 0.05878
3971.73991 0.05909
3970.45414 0.05899
3969.16837 0.05820
3967.88260 0.05702
3966.59683 0.05627
3965.31106 0.05652
3964.02529 0.05758
3962.73952 0.05871
3961.45376 0.05938
3960.16799 0.05954
3958.88222 0.05948
3957.59645 0.05936
3956.31068 0.05909
3955.02491 0.05843
3953.73914 0.05731
3952.45337 0.05613
3951.16760 0.05553
3949.88184 0.05580
3948.59607 0.05651
3947.31030 0.05704
3946.02453 0.05735
3944.73876 0.05786
3943.45299 0.05874
3942.16722 0.05950
3940.88145 0.05950
3939.59569 0.05860
3938.30992 0.05727
3937.02415 0.05624
3935.73838 0.05603
3934.45261 0.05658
3933.16684 0.05732
3931.88107 0.05766
3930.59530 0.05747
3929.30953 0.05702
3928.02377 0.05658
3926.73800 0.05614
3925.45223 0.05550
3924.16646 0.05458
3922.88069 0.05374
3921.59492 0.05349
3920.30915 0.05405
3919.02338 0.05507
3917.73762 0.05590
3916.45185 0.05605
3915.16608 0.05568
3913.88031 0.05543
3912.59454 0.05580
3911.30877 0.05663
3910.02300 0.05745
3908.73723 0.05805
3907.45146 0.05860
3906.16570 0.05926
3904.87993 0.05983
3903.59416 0.05993
3902.30839 0.05945
3901.02262 0.05888
3899.73685 0.05891
3898.45108 0.05992
3897.16531 0.06155
3895.87955 0.06276
3894.59378 0.06262
3893.30801 0.06107
3892.02224 0.05890
3890.73647 0.05711
3889.45070 0.05633
3888.16493 0.05653
3886.87916 0.05701
3885.59339 0.05699
3884.30763 0.05642
3883.02186 0.05592
3881.73609 0.05598
3880.45032 0.05645
3879.16455 0.05697
3877.87878 0.05742
3876.59301 0.05769
3875.30724 0.05754
3874.02148 0.05683
3872.73571 0.05597
3871.44994 0.05544
3870.16417 0.05518
3868.87840 0.05494
3867.59263 0.05494
3866.30686 0.05537
3865.02109 0.05570
3863.73532 0.05528
3862.44956 0.05423
3861.16379 0.05331
3859.87802 0.05307
3858.59225 0.05340
3857.30648 0.05379
3856.02071 0.05388
3854.73494 0.05349
3853.44917 0.05252
3852.16341 0.05126
3850.87764 0.05050
3849.59187 0.05067
3848.30610 0.05135
3847.02033 0.05179
3845.73456 0.05173
3844.44879 0.05158
3843.16302 0.05177
3841.87725 0.05230
3840.59149 0.05290
3839.30572 0.05340
3838.01995 0.05377
3836.73418 0.05402
3835.44841 0.05431
3834.16264 0.05472
3832.87687 0.05509
3831.59110 0.05523
3830.30534 0.05514
3829.01957 0.05491
3827.73380 0.05457
3826.44803 0.05412
3825.16226 0.05375
3823.87649 0.05393
3822.59072 0.05472
3821.30495 0.05546
3820.01918 0.05539
3818.73342 0.05451
3817.44765 0.05333
3816.16188 0.05215
3814.87611 0.05121
3813.59034 0.05103
3812.30457 0.05177
3811.01880 0.05288
3809.73303 0.05363
3808.44726 0.05352
3807.16150 0.05245
3805.87573 0.05098
3804.58996 0.05029
3803.30419 0.05110
3802.01842 0.05279
3800.73265 0.05414
3799.44688 0.05462
3798.16111 0.05443
3796.87535 0.05364
3795.58958 0.05234
3794.30381 0.05102
3793.01804 0.05024
3791.73227 0.05022
3790.44650 0.05089
3789.16073 0.05194
3787.87496 0.05287
3786.58919 0.05318
3785.30343 0.05271
3784.01766 0.05171
3782.73189 0.05064
3781.44612 0.05004
3780.16035 0.05009
3778.87458 0.05050
3777.58881 0.05085
3776.30304 0.05103
3775.01728 0.05126
3773.73151 0.05180
3772.44574 0.05265
3771.15997 0.05358
3769.87420 0.05432
3768.58843 0.05472
3767.30266 0.05468
3766.01689 0.05419
3764.73112 0.05350
3763.44536 0.05317
3762.15959 0.05350
3760.87382 0.05411
3759.58805 0.05426
3758.30228 0.05355
3757.01651 0.05217
3755.73074 0.05080
3754.44497 0.05023
3753.15921 0.05077
3751.87344 0.05187
3750.58767 0.05260
3749.30190 0.05233
3748.01613 0.05145
3746.73036 0.05117
3745.44459 0.05190
3744.15882 0.05268
3742.87305 0.05267
3741.58729 0.05214
3740.30152 0.05154
3739.01575 0.05091
3737.72998 0.05020
3736.44421 0.04958
3735.15844 0.04940
3733.87267 0.04989
3732.58690 0.05047
3731.30114 0.05009
3730.01537 0.04858
3728.72960 0.04690
3727.44383 0.04596
3726.15806 0.04588
3724.87229 0.04626
3723.58652 0.04680
3722.30075 0.04737
3721.01498 0.04808
3719.72922 0.04906
3718.44345 0.05005
3717.15768 0.05045
3715.87191 0.04988
3714.58614 0.04875
3713.30037 0.04792
3712.01460 0.04799
3710.72883 0.04889
3709.44307 0.05008
3708.15730 0.05100
3706.87153 0.05137
3705.58576 0.05129
3704.29999 0.05110
3703.01422 0.05102
3701.72845 0.05104
3700.44268 0.05083
3699.15691 0.05018
3697.87115 0.04934
3696.58538 0.04887
3695.29961 0.04922
3694.01384 0.05024
3692.72807 0.05129
3691.44230 0.05176
3690.15653 0.05156
3688.87076 0.05104
3687.58500 0.05067
3686.29923 0.05078
3685.01346 0.05118
3683.72769 0.05128
3682.44192 0.05098
3681.15615 0.05078
3679.87038 0.05104
3678.58461 0.05160
3677.29884 0.05216
3676.01308 0.05244
3674.72731 0.05233
3673.44154 0.05219
3672.15577 0.05244
3670.87000 0.05296
3669.58423 0.05324
3668.29846 0.05313
3667.01269 0.05271
3665.72693 0.05203
3664.44116 0.05128
3663.15539 0.05087
3661.86962 0.05103
3660.58385 0.05167
3659.29808 0.05254
3658.01231 0.05335
3656.72654 0.05374
3655.44077 0.05337
3654.15501 0.05237
3652.86924 0.05130
3651.58347 0.05061
3650.29770 0.05033
3649.01193 0.05039
3647.72616 0.05080
3646.44039 0.05164
3645.15462 0.05276
3643.86886 0.05371
3642.58309 0.05407
3641.29732 0.05381
3640.01155 0.05327
3638.72578 0.05276
3637.44001 0.05232
3636.15424 0.05202
3634.86847 0.05210
3633.58270 0.05281
3632.29694 0.05413
3631.01117 0.05561
3629.72540 0.05651
3628.43963 0.05648
3627.15386 0.05607
3625.86809 0.05610
3624.58232 0.05661
3623.29655 0.05707
3622.01079 0.05724
3620.72502 0.05733
3619.43925 0.05745
3618.15348 0.05753
3616.86771 0.05750
3615.58194 0.05742
3614.29617 0.05728
3613.01040 0.05711
3611.72463 0.05724
3610.43887 0.05803
3609.15310 0.05945
3607.86733 0.06097
3606.58156 0.06200
3605.29579 0.06232
3604.01002 0.06203
3602.72425 0.06145
3601.43848 0.06080
3600.15272 0.06009
3598.86695 0.05924
3597.58118 0.05845
3596.29541 0.05814
3595.00964 0.05853
3593.72387 0.05947
3592.43810 0.06063
3591.15233 0.06176
3589.86656 0.06263
3588.58080 0.06295
3587.29503 0.06271
3586.00926 0.06230
3584.72349 0.06219
3583.43772 0.06259
3582.15195 0.06333
3580.86618 0.06405
3579.58041 0.06446
3578.29464 0.06455
3577.00888 0.06470
3575.72311 0.06516
3574.43734 0.06573
3573.15157 0.06590
3571.86580 0.06559
3570.58003 0.06527
3569.29426 0.06545
3568.00849 0.06609
3566.72273 0.06674
3565.43696 0.06703
3564.15119 0.06702
3562.86542 0.06687
3561.57965 0.06661
3560.29388 0.06619
3559.00811 0.06575
3557.72234 0.06573
3556.43657 0.06661
3555.15081 0.06837
3553.86504 0.07024
3552.57927 0.07115
3551.29350 0.07060
3550.00773 0.06917
3548.72196 0.06801
3547.43619 0.06791
3546.15042 0.06889
3544.86466 0.07045
3543.57889 0.07204
3542.29312 0.07325
3541.00735 0.07384
3539.72158 0.07388
3538.43581 0.07369
3537.15004 0.07360
3535.86427 0.07368
3534.57850 0.07391
3533.29274 0.07427
3532.00697 0.07470
3530.72120 0.07498
3529.43543 0.07491
3528.14966 0.07455
3526.86389 0.07418
3525.57812 0.07400
3524.29235 0.07399
3523.00659 0.07398
3521.72082 0.07391
3520.43505 0.07383
3519.14928 0.07385
3517.86351 0.07410
3516.57774 0.07471
3515.29197 0.07558
3514.00620 0.07632
3512.72043 0.07658
3511.43467 0.07637
3510.14890 0.07608
3508.86313 0.07603
3507.57736 0.07615
3506.29159 0.07616
3505.00582 0.07597
3503.72005 0.07582
3502.43428 0.07609
3501.14852 0.07699
3499.86275 0.07837
3498.57698 0.07981
3497.29121 0.08093
3496.00544 0.08153
3494.71967 0.08174
3493.43390 0.08185
3492.14813 0.08198
3490.86236 0.08189
3489.57660 0.08112
3488.29083 0.07958
3487.00506 0.07784
3485.71929 0.07681
3484.43352 0.07693
3483.14775 0.07789
3481.86198 0.07902
3480.57621 0.07991
3479.29045 0.08059
3478.00468 0.08123
3476.71891 0.08183
3475.43314 0.08222
3474.14737 0.08235
3472.86160 0.08234
3471.57583 0.08238
3470.29006 0.08244
3469.00429 0.08240
3467.71853 0.08237
3466.43276 0.08264
3465.14699 0.08328
3463.86122 0.08380
3462.57545 0.08367
3461.28968 0.08290
3460.00391 0.08214
3458.71814 0.08203
3457.43238 0.08270
3456.14661 0.08379
3454.86084 0.08472
3453.57507 0.08502
3452.28930 0.08457
3451.00353 0.08373
3449.71776 0.08316
3448.43199 0.08334
3447.14622 0.08414
3445.86046 0.08508
3444.57469 0.08574
3443.28892 0.08603
3442.00315 0.08604
3440.71738 0.08593
3439.43161 0.08591
3438.14584 0.08617
3436.86007 0.08688
3435.57431 0.08800
3434.28854 0.08914
3433.00277 0.08982
3431.71700 0.08983
3430.43123 0.08942
3429.14546 0.08905
3427.85969 0.08904
3426.57392 0.08941
3425.28815 0.08995
3424.00239 0.09036
3422.71662 0.09040
3421.43085 0.08997
3420.14508 0.08926
3418.85931 0.08865
3417.57354 0.08845
3416.28777 0.08862
3415.00200 0.08888
3413.71624 0.08909
3412.43047 0.08943
3411.14470 0.09015
3409.85893 0.09107
3408.57316 0.09167
3407.28739 0.09150
3406.00162 0.09060
3404.71585 0.08948
3403.43008 0.08874
3402.14432 0.08877
3400.85855 0.08944
3399.57278 0.09024
3398.28701 0.09069
3397.00124 0.09073
3395.71547 0.09061
3394.42970 0.09053
3393.14393 0.09062
3391.85817 0.09095
3390.57240 0.09156
3389.28663 0.09228
3388.00086 0.09273
3386.71509 0.09276
3385.42932 0.09264
3384.14355 0.09273
3382.85778 0.09304
3381.57201 0.09333
3380.28625 0.09345
3379.00048 0.09353
3377.71471 0.09379
3376.42894 0.09428
3375.14317 0.09486
3373.85740 0.09539
3372.57163 0.09575
3371.28586 0.09598
3370.00010 0.09609
3368.71433 0.09601
3367.42856 0.09558
3366.14279 0.09470
3364.85702 0.09354
3363.57125 0.09250
3362.28548 0.09203
3360.99971 0.09228
3359.71394 0.09304
3358.42818 0.09401
3357.14241 0.09495
3355.85664 0.09568
3354.57087 0.09596
3353.28510 0.09561
3351.99933 0.09477
3350.71356 0.09388
3349.42779 0.09344
3348.14202 0.09362
3346.85626 0.09418
3345.57049 0.09480
3344.28472 0.09536
3342.99895 0.09587
3341.71318 0.09620
3340.42741 0.09611
3339.14164 0.09552
3337.85587 0.09476
3336.57011 0.09428
3335.28434 0.09429
3333.99857 0.09473
3332.71280 0.09540
3331.42703 0.09597
3330.14126 0.09608
3328.85549 0.09561
3327.56972 0.09489
3326.28395 0.09446
3324.99819 0.09454
3323.71242 0.09501
3322.42665 0.09559
3321.14088 0.09614
3319.85511 0.09657
3318.56934 0.09678
3317.28357 0.09669
3315.99780 0.09640
3314.71204 0.09617
3313.42627 0.09625
3312.14050 0.09670
3310.85473 0.09738
3309.56896 0.09796
3308.28319 0.09825
3306.99742 0.09826
3305.71165 0.09821
3304.42588 0.09826
3303.14012 0.09835
3301.85435 0.09831
3300.56858 0.09812
3299.28281 0.09785
3297.99704 0.09750
3296.71127 0.09697
3295.42550 0.09628
3294.13973 0.09571
3292.85397 0.09564
3291.56820 0.09614
3290.28243 0.09687
3288.99666 0.09736
3287.71089 0.09745
3286.42512 0.09734
3285.13935 0.09723
3283.85358 0.09704
3282.56781 0.09656
3281.28205 0.09583
3279.99628 0.09520
3278.71051 0.09500
3277.42474 0.09532
3276.13897 0.09592
3274.85320 0.09649
3273.56743 0.09684
3272.28166 0.09697
3270.99590 0.09696
3269.71013 0.09688
3268.42436 0.09670
3267.13859 0.09636
3265.85282 0.09584
3264.56705 0.09533
3263.28128 0.09510
3261.99551 0.09521
3260.70974 0.09539
3259.42398 0.09531
3258.13821 0.09505
3256.85244 0.09506
3255.56667 0.09556
3254.28090 0.09618
3252.99513 0.09624
3251.70936 0.09553
3250.42359 0.09450
3249.13783 0.09373
3247.85206 0.09344
3246.56629 0.09342
3245.28052 0.09339
3243.99475 0.09326
3242.70898 0.09305
3241.42321 0.09286
3240.13744 0.09274
3238.85167 0.09269
3237.56591 0.09255
3236.28014 0.09218
3234.99437 0.09162
3233.70860 0.09105
3232.42283 0.09059
3231.13706 0.09021
3229.85129 0.08999
3228.56552 0.09005
3227.27976 0.09032
3225.99399 0.09052
3224.70822 0.09039
3223.42245 0.09000
3222.13668 0.08970
3220.85091 0.08973
3219.56514 0.09002
3218.27937 0.09028
3216.99360 0.09035
3215.70784 0.09024
3214.42207 0.09007
3213.13630 0.09002
3211.85053 0.09026
3210.56476 0.09076
3209.27899 0.09121
3207.99322 0.09115
3206.70745 0.09051
3205.42169 0.08968
3204.13592 0.08917
3202.85015 0.08902
3201.56438 0.08894
3200.27861 0.08872
3198.99284 0.08850
3197.70707 0.08846
3196.42130 0.08855
3195.13553 0.08845
3193.84977 0.08793
3192.56400 0.08695
3191.27823 0.08575
3189.99246 0.08471
3188.70669 0.08427
3187.42092 0.08460
3186.13515 0.08541
3184.84938 0.08599
3183.56362 0.08582
3182.27785 0.08504
3180.99208 0.08428
3179.70631 0.08399
3178.42054 0.08410
3177.13477 0.08430
3175.84900 0.08435
3174.56323 0.08413
3173.27746 0.08369
3171.99170 0.08324
3170.70593 0.08311
3169.42016 0.08341
3168.13439 0.08385
3166.84862 0.08406
3165.56285 0.08391
3164.27708 0.08357
3162.99131 0.08318
3161.70555 0.08279
3160.41978 0.08242
3159.13401 0.08211
3157.84824 0.08189
3156.56247 0.08169
3155.27670 0.08143
3153.99093 0.08105
3152.70516 0.08057
3151.41939 0.08006
3150.13363 0.07964
3148.84786 0.07941
3147.56209 0.07937
3146.27632 0.07943
3144.99055 0.07947
3143.70478 0.07944
3142.41901 0.07937
3141.13324 0.07937
3139.84748 0.07950
3138.56171 0.07972
3137.27594 0.07987
3135.99017 0.07985
3134.70440 0.07958
3133.41863 0.07910
3132.13286 0.07847
3130.84709 0.07784
3129.56132 0.07739
3128.27556 0.07728
3126.98979 0.07756
3125.70402 0.07807
3124.41825 0.07850
3123.13248 0.07862
3121.84671 0.07850
3120.56094 0.07830
3119.27517 0.07805
3117.98940 0.07765
3116.70364 0.07706
3115.41787 0.07645
3114.13210 0.07603
3112.84633 0.07586
3111.56056 0.07588
3110.27479 0.07599
3108.98902 0.07621
3107.70325 0.07652
3106.41749 0.07678
3105.13172 0.07678
3103.84595 0.07644
3102.56018 0.07599
3101.27441 0.07572
3099.98864 0.07573
3098.70287 0.07587
3097.41710 0.07596
3096.13133 0.07599
3094.84557 0.07601
3093.55980 0.07601
3092.27403 0.07592
3090.98826 0.07571
3089.70249 0.07545
3088.41672 0.07521
3087.13095 0.07500
3085.84518 0.07481
3084.55942 0.07471
3083.27365 0.07475
3081.98788 0.07493
3080.70211 0.07519
3079.41634 0.07538
3078.13057 0.07535
3076.84480 0.07501
3075.55903 0.07445
3074.27326 0.07397
3072.98750 0.07385
3071.70173 0.07408
3070.41596 0.07441
3069.13019 0.07459
3067.84442 0.07459
3066.55865 0.07452
3065.27288 0.07441
3063.98711 0.07428
3062.70135 0.07421
3061.41558 0.07424
3060.12981 0.07426
3058.84404 0.07410
3057.55827 0.07366
3056.27250 0.07298
3054.98673 0.07223
3053.70096 0.07163
3052.41519 0.07131
3051.12943 0.07135
3049.84366 0.07168
3048.55789 0.07217
3047.27212 0.07262
3045.98635 0.07280
3044.70058 0.07264
3043.41481 0.07223
3042.12904 0.07168
3040.84328 0.07104
3039.55751 0.07043
3038.27174 0.07005
3036.98597 0.07004
3035.70020 0.07029
3034.41443 0.07057
3033.12866 0.07069
3031.84289 0.07056
3030.55712 0.07024
3029.27136 0.06988
3027.98559 0.06963
3026.69982 0.06947
3025.41405 0.06933
3024.12828 0.06921
3022.84251 0.06919
3021.55674 0.06930
3020.27097 0.06942
3018.98521 0.06931
3017.69944 0.06889
3016.41367 0.06829
3015.12790 0.06775
3013.84213 0.06743
3012.55636 0.06726
3011.27059 0.06713
3009.98482 0.06703
3008.69905 0.06705
3007.41329 0.06719
3006.12752 0.06729
3004.84175 0.06717
3003.55598 0.06687
3002.27021 0.06661
3000.98444 0.06658
2999.69867 0.06677
2998.41290 0.06691
2997.12714 0.06679
2995.84137 0.06644
2994.55560 0.06606
2993.26983 0.06585
2991.98406 0.06590
2990.69829 0.06610
2989.41252 0.06639
2988.12675 0.06677
2986.84098 0.06734
2985.55522 0.06805
2984.26945 0.06872
2982.98368 0.06915
2981.69791 0.06922
2980.41214 0.06899
2979.12637 0.06870
2977.84060 0.06872
2976.55483 0.06927
2975.26907 0.07023
2973.98330 0.07131
2972.69753 0.07232
2971.41176 0.07332
2970.12599 0.07431
2968.84022 0.07516
2967.55445 0.07575
2966.26868 0.07618
2964.98291 0.07670
2963.69715 0.07739
2962.41138 0.07808
2961.12561 0.07860
2959.83984 0.07895
2958.55407 0.07925
2957.26830 0.07960
2955.98253 0.08004
2954.69676 0.08060
2953.41100 0.08136
2952.12523 0.08226
2950.83946 0.08315
2949.55369 0.08392
2948.26792 0.08448
2946.98215 0.08475
2945.69638 0.08465
2944.41061 0.08433
2943.12484 0.08415
2941.83908 0.08436
2940.55331 0.08474
2939.26754 0.08484
2937.98177 0.08447
2936.69600 0.08379
2935.41023 0.08312
2934.12446 0.08264
2932.83869 0.08240
2931.55293 0.08229
2930.26716 0.08207
2928.98139 0.08148
2927.69562 0.08042
2926.40985 0.07887
2925.12408 0.07683
2923.83831 0.07411
2922.55254 0.07056
2921.26677 0.06620
2919.98101 0.06147
2918.69524 0.05722
2917.40947 0.05447
2916.12370 0.05399
2914.83793 0.05587
2913.55216 0.05948
2912.26639 0.06381
2910.98062 0.06793
2909.69486 0.07128
2908.40909 0.07363
2907.12332 0.07504
2905.83755 0.07581
2904.55178 0.07634
2903.26601 0.07680
2901.98024 0.07701
2900.69447 0.07680
2899.40870 0.07629
2898.12294 0.07580
2896.83717 0.07548
2895.55140 0.07523
2894.26563 0.07488
2892.97986 0.07445
2891.69409 0.07413
2890.40832 0.07400
2889.12255 0.07393
2887.83678 0.07373
2886.55102 0.07335
2885.26525 0.07295
2883.97948 0.07266
2882.69371 0.07252
2881.40794 0.07258
2880.12217 0.07289
2878.83640 0.07338
2877.55063 0.07392
2876.26487 0.07436
2874.97910 0.07467
2873.69333 0.07497
2872.40756 0.07541
2871.12179 0.07602
2869.83602 0.07665
2868.55025 0.07703
2867.26448 0.07696
2865.97871 0.07641
2864.69295 0.07556
2863.40718 0.07465
2862.12141 0.07380
2860.83564 0.07300
2859.54987 0.07215
2858.26410 0.07109
2856.97833 0.06960
2855.69256 0.06744
2854.40680 0.06444
2853.12103 0.06061
2851.83526 0.05638
2850.54949 0.05282
2849.26372 0.05124
2847.97795 0.05229
2846.69218 0.05537
2845.40641 0.05908
2844.12064 0.06218
2842.83488 0.06420
2841.54911 0.06527
2840.26334 0.06577
2838.97757 0.06603
2837.69180 0.06622
2836.40603 0.06629
2835.12026 0.06612
2833.83449 0.06570
2832.54873 0.06510
2831.26296 0.06445
2829.97719 0.06389
2828.69142 0.06348
2827.40565 0.06325
2826.11988 0.06306
2824.83411 0.06267
2823.54834 0.06198
2822.26257 0.06119
2820.97681 0.06060
2819.69104 0.06035
2818.40527 0.06034
2817.11950 0.06043
2815.83373 0.06048
2814.54796 0.06044
2813.26219 0.06032
2811.97642 0.06014
2810.69066 0.05989
2809.40489 0.05958
2808.11912 0.05926
2806.83335 0.05898
2805.54758 0.05873
2804.26181 0.05848
2802.97604 0.05829
2801.69027 0.05819
2800.40450 0.05814
2799.11874 0.05808
2797.83297 0.05799
2796.54720 0.05787
2795.26143 0.05768
2793.97566 0.05735
2792.68989 0.05694
2791.40412 0.05659
2790.11835 0.05645
2788.83259 0.05652
2787.54682 0.05664
2786.26105 0.05672
2784.97528 0.05676
2783.68951 0.05680
2782.40374 0.05682
2781.11797 0.05677
2779.83220 0.05670
2778.54643 0.05668
2777.26067 0.05672
2775.97490 0.05670
2774.68913 0.05650
2773.40336 0.05609
2772.11759 0.05562
2770.83182 0.05523
2769.54605 0.05498
2768.26028 0.05484
2766.97452 0.05479
2765.68875 0.05486
2764.40298 0.05500
2763.11721 0.05507
2761.83144 0.05493
2760.54567 0.05464
2759.25990 0.05435
2757.97413 0.05417
2756.68836 0.05406
2755.40260 0.05398
2754.11683 0.05396
2752.83106 0.05399
2751.54529 0.05404
2750.25952 0.05400
2748.97375 0.05387
2747.68798 0.05369
2746.40221 0.05353
2745.11645 0.05344
2743.83068 0.05342
2742.54491 0.05347
2741.25914 0.05354
2739.97337 0.05356
2738.68760 0.05349
2737.40183 0.05338
2736.11606 0.05335
2734.83029 0.05340
2733.54453 0.05342
2732.25876 0.05327
2730.97299 0.05295
2729.68722 0.05267
2728.40145 0.05258
2727.11568 0.05265
2725.82991 0.05269
2724.54414 0.05256
2723.25838 0.05230
2721.97261 0.05206
2720.68684 0.05194
2719.40107 0.05196
2718.11530 0.05209
2716.82953 0.05223
2715.54376 0.05227
2714.25799 0.05216
2712.97222 0.05191
2711.68646 0.05164
2710.40069 0.05145
2709.11492 0.05135
2707.82915 0.05132
2706.54338 0.05129
2705.25761 0.05120
2703.97184 0.05101
2702.68607 0.05078
2701.40031 0.05059
2700.11454 0.05053
2698.82877 0.05057
2697.54300 0.05063
2696.25723 0.05073
2694.97146 0.05095
2693.68569 0.05124
2692.39992 0.05142
2691.11415 0.05129
2689.82839 0.05086
2688.54262 0.05036
2687.25685 0.05007
2685.97108 0.05008
2684.68531 0.05022
2683.39954 0.05033
2682.11377 0.05035
2680.82800 0.05030
2679.54224 0.05016
2678.25647 0.04998
2676.97070 0.04978
2675.68493 0.04961
2674.39916 0.04948
2673.11339 0.04939
2671.82762 0.04939
2670.54185 0.04944
2669.25608 0.04947
2667.97032 0.04948
2666.68455 0.04950
2665.39878 0.04957
2664.11301 0.04966
2662.82724 0.04973
2661.54147 0.04977
2660.25570 0.04979
2658.96993 0.04978
2657.68417 0.04970
2656.39840 0.04950
2655.11263 0.04918
2653.82686 0.04875
2652.54109 0.04828
2651.25532 0.04783
2649.96955 0.04749
2648.68378 0.04731
2647.39801 0.04729
2646.11225 0.04735
2644.82648 0.04737
2643.54071 0.04726
2642.25494 0.04709
2640.96917 0.04698
2639.68340 0.04695
2638.39763 0.04688
2637.11186 0.04665
2635.82609 0.04634
2634.54033 0.04607
2633.25456 0.04580
2631.96879 0.04547
2630.68302 0.04516
2629.39725 0.04509
2628.11148 0.04526
2626.82571 0.04545
2625.53994 0.04556
2624.25418 0.04562
2622.96841 0.04563
2621.68264 0.04550
2620.39687 0.04521
2619.11110 0.04492
2617.82533 0.04468
2616.53956 0.04435
2615.25379 0.04389
2613.96802 0.04344
2612.68226 0.04315
2611.39649 0.04295
2610.11072 0.04270
2608.82495 0.04240
2607.53918 0.04225
2606.25341 0.04236
2604.96764 0.04256
2603.68187 0.04252
2602.39611 0.04213
2601.11034 0.04163
2599.82457 0.04131
2598.53880 0.04121
2597.25303 0.04115
2595.96726 0.04107
2594.68149 0.04114
2593.39572 0.04157
2592.10995 0.04236
2590.82419 0.04310
2589.53842 0.04326
2588.25265 0.04264
2586.96688 0.04163
2585.68111 0.04092
2584.39534 0.04080
2583.10957 0.04096
2581.82380 0.04095
2580.53804 0.04071
2579.25227 0.04055
2577.96650 0.04064
2576.68073 0.04082
2575.39496 0.04088
2574.10919 0.04080
2572.82342 0.04067
2571.53765 0.04043
2570.25188 0.04000
2568.96612 0.03951
2567.68035 0.03921
2566.39458 0.03911
2565.10881 0.03902
2563.82304 0.03884
2562.53727 0.03870
2561.25150 0.03872
2559.96573 0.03888
2558.67997 0.03910
2557.39420 0.03938
2556.10843 0.03964
2554.82266 0.03976
2553.53689 0.03976
2552.25112 0.03983
2550.96535 0.04006
2549.67958 0.04033
2548.39381 0.04041
2547.10805 0.04017
2545.82228 0.03963
2544.53651 0.03900
2543.25074 0.03862
2541.96497 0.03870
2540.67920 0.03902
2539.39343 0.03913
2538.10766 0.03880
2536.82190 0.03823
2535.53613 0.03773
2534.25036 0.03747
2532.96459 0.03749
2531.67882 0.03777
2530.39305 0.03825
2529.10728 0.03875
2527.82151 0.03908
2526.53574 0.03910
2525.24998 0.03879
2523.96421 0.03820
2522.67844 0.03751
2521.39267 0.03700
2520.10690 0.03688
2518.82113 0.03717
2517.53536 0.03763
2516.24959 0.03795
2514.96383 0.03792
2513.67806 0.03759
2512.39229 0.03718
2511.10652 0.03703
2509.82075 0.03734
2508.53498 0.03797
2507.24921 0.03855
2505.96344 0.03874
2504.67767 0.03842
2503.39191 0.03773
2502.10614 0.03705
2500.82037 0.03673
2499.53460 0.03683
2498.24883 0.03713
2496.96306 0.03726
2495.67729 0.03710
2494.39152 0.03679
2493.10576 0.03659
2491.81999 0.03662
2490.53422 0.03677
2489.24845 0.03691
2487.96268 0.03701
2486.67691 0.03714
2485.39114 0.03724
2484.10537 0.03719
2482.81960 0.03694
2481.53384 0.03664
2480.24807 0.03647
2478.96230 0.03646
2477.67653 0.03647
2476.39076 0.03638
2475.10499 0.03622
2473.81922 0.03605
2472.53345 0.03594
2471.24769 0.03592
2469.96192 0.03603
2468.67615 0.03623
2467.39038 0.03642
2466.10461 0.03656
2464.81884 0.03674
2463.53307 0.03704
2462.24730 0.03727
2460.96153 0.03710
2459.67577 0.03644
2458.39000 0.03560
2457.10423 0.03501
2455.81846 0.03481
2454.53269 0.03487
2453.24692 0.03503
2451.96115 0.03521
2450.67538 0.03532
2449.38962 0.03529
2448.10385 0.03508
2446.81808 0.03473
2445.53231 0.03427
2444.24654 0.03375
2442.96077 0.03328
2441.67500 0.03293
2440.38923 0.03268
2439.10346 0.03255
2437.81770 0.03269
2436.53193 0.03327
2435.24616 0.03412
2433.96039 0.03484
2432.67462 0.03508
2431.38885 0.03483
2430.10308 0.03432
2428.81731 0.03376
2427.53155 0.03326
2426.24578 0.03290
2424.96001 0.03273
2423.67424 0.03276
2422.38847 0.03298
2421.10270 0.03332
2419.81693 0.03371
2418.53116 0.03405
2417.24539 0.03423
2415.95963 0.03417
2414.67386 0.03401
2413.38809 0.03403
2412.10232 0.03434
2410.81655 0.03470
2409.53078 0.03480
2408.24501 0.03460
2406.95924 0.03432
2405.67347 0.03414
2404.38771 0.03403
2403.10194 0.03389
2401.81617 0.03370
2400.53040 0.03355
2399.24463 0.03343
2397.95886 0.03341
2396.67309 0.03342
2395.38732 0.03351
2394.10156 0.03372
2392.81579 0.03400
2391.53002 0.03419
2390.24425 0.03413
2388.95848 0.03384
2387.67271 0.03350
2386.38694 0.03329
2385.10117 0.03327
2383.81540 0.03333
2382.52964 0.03337
2381.24387 0.03337
2379.95810 0.03342
2378.67233 0.03359
2377.38656 0.03390
2376.10079 0.03423
2374.81502 0.03447
2373.52925 0.03456
2372.24349 0.03450
2370.95772 0.03435
2369.67195 0.03410
2368.38618 0.03383
2367.10041 0.03370
2365.81464 0.03381
2364.52887 0.03410
2363.24310 0.03444
2361.95733 0.03470
2360.67157 0.03489
2359.38580 0.03498
2358.10003 0.03506
2356.81426 0.03516
2355.52849 0.03525
2354.24272 0.03523
2352.95695 0.03505
2351.67118 0.03480
2350.38542 0.03462
2349.09965 0.03453
2347.81388 0.03442
2346.52811 0.03424
2345.24234 0.03403
2343.95657 0.03386
2342.67080 0.03379
2341.38503 0.03394
2340.09926 0.03428
2338.81350 0.03464
2337.52773 0.03487
2336.24196 0.03494
2334.95619 0.03485
2333.67042 0.03460
2332.38465 0.03434
2331.09888 0.03431
2329.81311 0.03441
2328.52735 0.03452
2327.24158 0.03493
2325.95581 0.03548
2324.67004 0.03573
2323.38427 0.03573
2322.09850 0.03557
2320.81273 0.03521
2319.52696 0.03488
2318.24119 0.03450
2316.95543 0.03395
2315.66966 0.03349
2314.38389 0.03324
2313.09812 0.03317
2311.81235 0.03333
2310.52658 0.03352
2309.24081 0.03365
2307.95504 0.03363
2306.66928 0.03334
2305.38351 0.03285
2304.09774 0.03224
2302.81197 0.03169
2301.52620 0.03140
2300.24043 0.03138
2298.95466 0.03149
2297.66889 0.03151
2296.38312 0.03137
2295.09736 0.03112
2293.81159 0.03086
2292.52582 0.03065
2291.24005 0.03048
2289.95428 0.03033
2288.66851 0.03023
2287.38274 0.03017
2286.09697 0.02998
2284.81121 0.02956
2283.52544 0.02900
2282.23967 0.02865
2280.95390 0.02876
2279.66813 0.02922
2278.38236 0.02964
2277.09659 0.02969
2275.81082 0.02932
2274.52505 0.02882
2273.23929 0.02852
2271.95352 0.02853
2270.66775 0.02872
2269.38198 0.02891
2268.09621 0.02892
2266.81044 0.02872
2265.52467 0.02839
2264.23890 0.02806
2262.95314 0.02773
2261.66737 0.02736
2260.38160 0.02694
2259.09583 0.02654
2257.81006 0.02614
2256.52429 0.02568
2255.23852 0.02521
2253.95275 0.02493
2252.66698 0.02484
2251.38122 0.02474
2250.09545 0.02461
2248.80968 0.02471
2247.52391 0.02507
2246.23814 0.02578
2244.95237 0.02624
2243.66660 0.02593
2242.38083 0.02500
2241.09507 0.02412
2239.80930 0.02375
2238.52353 0.02389
2237.23776 0.02435
2235.95199 0.02495
2234.66622 0.02533
2233.38045 0.02501
2232.09468 0.02388
2230.80891 0.02241
2229.52315 0.02124
2228.23738 0.02070
2226.95161 0.02070
2225.66584 0.02105
2224.38007 0.02158
2223.09430 0.02222
2221.80853 0.02284
2220.52276 0.02316
2219.23700 0.02296
2217.95123 0.02235
2216.66546 0.02187
2215.37969 0.02194
2214.09392 0.02227
2212.80815 0.02204
2211.52238 0.02084
2210.23661 0.01935
2208.95084 0.01881
2207.66508 0.01977
2206.37931 0.02156
2205.09354 0.02289
2203.80777 0.02301
2202.52200 0.02224
2201.23623 0.02150
2199.95046 0.02132
2198.66469 0.02148
2197.37893 0.02158
2196.09316 0.02152
2194.80739 0.02137
2193.52162 0.02103
2192.23585 0.02045
2190.95008 0.01977
2189.66431 0.01916
2188.37854 0.01853
2187.09277 0.01787
2185.80701 0.01735
2184.52124 0.01712
2183.23547 0.01698
2181.94970 0.01673
2180.66393 0.01654
2179.37816 0.01679
2178.09239 0.01740
2176.80662 0.01777
2175.52085 0.01732
2174.23509 0.01603
2172.94932 0.01433
2171.66355 0.01271
2170.37778 0.01168
2169.09201 0.01163
2167.80624 0.01233
2166.52047 0.01296
2165.23470 0.01294
2163.94894 0.01247
2162.66317 0.01204
2161.37740 0.01162
2160.09163 0.01086
2158.80586 0.00990
2157.52009 0.00931
2156.23432 0.00936
2154.94855 0.00986
2153.66278 0.01065
2152.37702 0.01174
2151.09125 0.01311
2149.80548 0.01448
2148.51971 0.01550
2147.23394 0.01600
2145.94817 0.01604
2144.66240 0.01585
2143.37663 0.01564
2142.09087 0.01567
2140.80510 0.01610
2139.51933 0.01682
2138.23356 0.01731
2136.94779 0.01706
2135.66202 0.01622
2134.37625 0.01561
2133.09048 0.01593
2131.80471 0.01699
2130.51895 0.01799
2129.23318 0.01850
2127.94741 0.01879
2126.66164 0.01924
2125.37587 0.01973
2124.09010 0.01992
2122.80433 0.01977
2121.51856 0.01967
2120.23280 0.01994
2118.94703 0.02051
2117.66126 0.02111
2116.37549 0.02154
2115.08972 0.02167
2113.80395 0.02148
2112.51818 0.02112
2111.23241 0.02088
2109.94664 0.02091
2108.66088 0.02098
2107.37511 0.02071
2106.08934 0.02004
2104.80357 0.01925
2103.51780 0.01864
2102.23203 0.01825
2100.94626 0.01796
2099.66049 0.01728
2098.37473 0.01709
2097.08896 0.01742
2095.80319 0.01793
2094.51742 0.01837
2093.23165 0.01857
2091.94588 0.01853
2090.66011 0.01837
2089.37434 0.01817
2088.08857 0.01799
2086.80281 0.01796
2085.51704 0.01817
2084.23127 0.01857
2082.94550 0.01891
2081.65973 0.01903
2080.37396 0.01894
2079.08819 0.01868
2077.80242 0.01823
2076.51666 0.01757
2075.23089 0.01683
2073.94512 0.01628
2072.65935 0.01610
2071.37358 0.01621
2070.08781 0.01631
2068.80204 0.01616
2067.51627 0.01581
2066.23050 0.01552
2064.94474 0.01545
2063.65897 0.01547
2062.37320 0.01533
2061.08743 0.01496
2059.80166 0.01449
2058.51589 0.01412
2057.23012 0.01397
2055.94435 0.01405
2054.65859 0.01438
2053.37282 0.01480
2052.08705 0.01496
2050.80128 0.01466
2049.51551 0.01400
2048.22974 0.01325
2046.94397 0.01259
2045.65820 0.01212
2044.37243 0.01194
2043.08667 0.01208
2041.80090 0.01224
2040.51513 0.01193
2039.22936 0.01079
2037.94359 0.00902
2036.65782 0.00736
2035.37205 0.00652
2034.08628 0.00661
2032.80052 0.00715
2031.51475 0.00758
2030.22898 0.00776
2028.94321 0.00783
2027.65744 0.00809
2026.37167 0.00867
2025.08590 0.00937
2023.80013 0.00971
2022.51436 0.00940
2021.22860 0.00878
2019.94283 0.00844
2018.65706 0.00868
2017.37129 0.00928
2016.08552 0.00986
2014.79975 0.01024
2013.51398 0.01034
2012.22821 0.01008
2010.94245 0.00941
2009.65668 0.00854
2008.37091 0.00789
2007.08514 0.00782
2005.79937 0.00854
2004.51360 0.00996
2003.22783 0.01169
2001.94206 0.01311
2000.65629 0.01382
1999.37053 0.01389
1998.08476 0.01370
1996.79899 0.01356
1995.51322 0.01350
1994.22745 0.01339
1992.94168 0.01329
1991.65591 0.01338
1990.37014 0.01372
1989.08438 0.01409
1987.79861 0.01421
1986.51284 0.01412
1985.22707 0.01408
1983.94130 0.01421
1982.65553 0.01425
1981.36976 0.01384
1980.08399 0.01287
1978.79822 0.01147
1977.51246 0.00998
1976.22669 0.00896
1974.94092 0.00897
1973.65515 0.01009
1972.36938 0.01173
1971.08361 0.01320
1969.79784 0.01432
1968.51207 0.01527
1967.22631 0.01607
1965.94054 0.01634
1964.65477 0.01574
1963.36900 0.01451
1962.08323 0.01328
1960.79746 0.01262
1959.51169 0.01258
1958.22592 0.01292
1956.94015 0.01347
1955.65439 0.01422
1954.36862 0.01516
1953.08285 0.01611
1951.79708 0.01676
1950.51131 0.01681
1949.22554 0.01621
1947.93977 0.01532
1946.65400 0.01482
1945.36823 0.01526
1944.08247 0.01652
1942.79670 0.01790
1941.51093 0.01862
1940.22516 0.01835
1938.93939 0.01741
1937.65362 0.01646
1936.36785 0.01602
1935.08208 0.01616
1933.79632 0.01654
1932.51055 0.01682
1931.22478 0.01688
1929.93901 0.01682
1928.65324 0.01681
1927.36747 0.01697
1926.08170 0.01732
1924.79593 0.01768
1923.51016 0.01780
1922.22440 0.01751
1920.93863 0.01699
1919.65286 0.01652
1918.36709 0.01625
1917.08132 0.01611
1915.79555 0.01612
1914.50978 0.01640
1913.22401 0.01696
1911.93825 0.01757
1910.65248 0.01796
1909.36671 0.01805
1908.08094 0.01798
1906.79517 0.01795
1905.50940 0.01803
1904.22363 0.01813
1902.93786 0.01815
1901.65209 0.01808
1900.36633 0.01802
1899.08056 0.01799
1897.79479 0.01794
1896.50902 0.01786
1895.22325 0.01781
1893.93748 0.01792
1892.65171 0.01818
1891.36594 0.01839
1890.08018 0.01834
1888.79441 0.01802
1887.50864 0.01771
1886.22287 0.01771
1884.93710 0.01811
1883.65133 0.01871
1882.36556 0.01920
1881.07979 0.01927
1879.79402 0.01888
1878.50826 0.01827
1877.22249 0.01781
1875.93672 0.01768
1874.65095 0.01781
1873.36518 0.01797
1872.07941 0.01808
1870.79364 0.01820
1869.50787 0.01841
1868.22211 0.01867
1866.93634 0.01888
1865.65057 0.01898
1864.36480 0.01902
1863.07903 0.01907
1861.79326 0.01918
1860.50749 0.01930
1859.22172 0.01931
1857.93595 0.01915
1856.65019 0.01887
1855.36442 0.01866
1854.07865 0.01866
1852.79288 0.01886
1851.50711 0.01907
1850.22134 0.01912
1848.93557 0.01898
1847.64980 0.01878
1846.36404 0.01867
1845.07827 0.01863
1843.79250 0.01854
1842.50673 0.01844
1841.22096 0.01851
1839.93519 0.01876
1838.64942 0.01903
1837.36365 0.01916
1836.07788 0.01914
1834.79212 0.01902
1833.50635 0.01883
1832.22058 0.01860
1830.93481 0.01841
1829.64904 0.01831
1828.36327 0.01838
1827.07750 0.01861
1825.79173 0.01888
1824.50597 0.01897
1823.22020 0.01882
1821.93443 0.01858
1820.64866 0.01841
1819.36289 0.01837
1818.07712 0.01846
1816.79135 0.01865
1815.50558 0.01892
1814.21981 0.01919
1812.93405 0.01939
1811.64828 0.01950
1810.36251 0.01953
1809.07674 0.01955
1807.79097 0.01956
1806.50520 0.01953
1805.21943 0.01948
1803.93366 0.01945
1802.64790 0.01945
1801.36213 0.01947
1800.07636 0.01946
1798.79059 0.01946
1797.50482 0.01953
1796.21905 0.01965
1794.93328 0.01977
1793.64751 0.01982
1792.36174 0.01974
1791.07598 0.01958
1789.79021 0.01944
1788.50444 0.01940
1787.21867 0.01943
1785.93290 0.01946
1784.64713 0.01946
1783.36136 0.01944
1782.07559 0.01942
1780.78983 0.01942
1779.50406 0.01940
1778.21829 0.01938
1776.93252 0.01937
1775.64675 0.01943
1774.36098 0.01961
1773.07521 0.01981
1771.78944 0.01986
1770.50367 0.01978
1769.21791 0.01974
1767.93214 0.01978
1766.64637 0.01981
1765.36060 0.01983
1764.07483 0.01991
1762.78906 0.01999
1761.50329 0.01999
1760.21752 0.01993
1758.93176 0.01994
1757.64599 0.02005
1756.36022 0.02014
1755.07445 0.02015
1753.78868 0.02018
1752.50291 0.02025
1751.21714 0.02026
1749.93137 0.02013
1748.64560 0.02001
1747.35984 0.02001
1746.07407 0.02014
1744.78830 0.02032
1743.50253 0.02047
1742.21676 0.02059
1740.93099 0.02069
1739.64522 0.02070
1738.35945 0.02060
1737.07369 0.02058
1735.78792 0.02080
1734.50215 0.02112
1733.21638 0.02128
1731.93061 0.02131
1730.64484 0.02141
1729.35907 0.02161
1728.07330 0.02176
1726.78753 0.02185
1725.50177 0.02199
1724.21600 0.02219
1722.93023 0.02240
1721.64446 0.02261
1720.35869 0.02288
1719.07292 0.02325
1717.78715 0.02362
1716.50138 0.02390
1715.21561 0.02415
1713.92985 0.02451
1712.64408 0.02503
1711.35831 0.02566
1710.07254 0.02638
1708.78677 0.02714
1707.50100 0.02789
1706.21523 0.02858
1704.92946 0.02918
1703.64370 0.02988
1702.35793 0.03095
1701.07216 0.03226
1699.78639 0.03340
1698.50062 0.03433
1697.21485 0.03536
1695.92908 0.03651
1694.64331 0.03753
1693.35754 0.03848
1692.07178 0.03959
1690.78601 0.04081
1689.50024 0.04192
1688.21447 0.04294
1686.92870 0.04410
1685.64293 0.04547
1684.35716 0.04677
1683.07139 0.04785
1681.78563 0.04888
1680.49986 0.05002
1679.21409 0.05120
1677.92832 0.05239
1676.64255 0.05363
1675.35678 0.05484
1674.07101 0.05593
1672.78524 0.05701
1671.49947 0.05825
1670.21371 0.05957
1668.92794 0.06082
1667.64217 0.06191
1666.35640 0.06293
1665.07063 0.06402
1663.78486 0.06516
1662.49909 0.06623
1661.21332 0.06718
1659.92756 0.06800
1658.64179 0.06871
1657.35602 0.06934
1656.07025 0.07009
1654.78448 0.07111
1653.49871 0.07213
1652.21294 0.07274
1650.92717 0.07300
1649.64140 0.07333
1648.35564 0.07391
1647.06987 0.07447
1645.78410 0.07478
1644.49833 0.07491
1643.21256 0.07501
1641.92679 0.07513
1640.64102 0.07516
1639.35525 0.07503
1638.06949 0.07485
1636.78372 0.07466
1635.49795 0.07433
1634.21218 0.07376
1632.92641 0.07303
1631.64064 0.07230
1630.35487 0.07155
1629.06910 0.07071
1627.78333 0.06977
1626.49757 0.06880
1625.21180 0.06788
1623.92603 0.06700
1622.64026 0.06603
1621.35449 0.06492
1620.06872 0.06381
1618.78295 0.06288
1617.49718 0.06208
1616.21142 0.06121
1614.92565 0.06022
1613.63988 0.05928
1612.35411 0.05849
1611.06834 0.05778
1609.78257 0.05709
1608.49680 0.05641
1607.21103 0.05573
1605.92526 0.05507
1604.63950 0.05446
1603.35373 0.05393
1602.06796 0.05351
1600.78219 0.05321
1599.49642 0.05301
1598.21065 0.05285
1596.92488 0.05267
1595.63911 0.05243
1594.35335 0.05217
1593.06758 0.05192
1591.78181 0.05170
1590.49604 0.05151
1589.21027 0.05136
1587.92450 0.05124
1586.63873 0.05114
1585.35296 0.05104
1584.06719 0.05091
1582.78143 0.05075
1581.49566 0.05058
1580.20989 0.05045
1578.92412 0.05052
1577.63835 0.05089
1576.35258 0.05139
1575.06681 0.05180
1573.78104 0.05217
1572.49528 0.05271
1571.20951 0.05344
1569.92374 0.05414
1568.63797 0.05467
1567.35220 0.05508
1566.06643 0.05545
1564.78066 0.05574
1563.49489 0.05593
1562.20912 0.05618
1560.92336 0.05665
1559.63759 0.05716
1558.35182 0.05746
1557.06605 0.05762
1555.78028 0.05791
1554.49451 0.05833
1553.20874 0.05868
1551.92297 0.05890
1550.63721 0.05905
1549.35144 0.05913
1548.06567 0.05910
1546.77990 0.05894
1545.49413 0.05865
1544.20836 0.05826
1542.92259 0.05792
1541.63682 0.05783
1540.35105 0.05797
1539.06529 0.05813
1537.77952 0.05825
1536.49375 0.05852
1535.20798 0.05902
1533.92221 0.05952
1532.63644 0.05978
1531.35067 0.05985
1530.06490 0.05991
1528.77914 0.06004
1527.49337 0.06019
1526.20760 0.06028
1524.92183 0.06031
1523.63606 0.06042
1522.35029 0.06064
1521.06452 0.06081
1519.77875 0.06088
1518.49298 0.06101
1517.20722 0.06130
1515.92145 0.06169
1514.63568 0.06209
1513.34991 0.06249
1512.06414 0.06286
1510.77837 0.06315
1509.49260 0.06350
1508.20683 0.06400
1506.92107 0.06453
1505.63530 0.06488
1504.34953 0.06509
1503.06376 0.06540
1501.77799 0.06585
1500.49222 0.06627
1499.20645 0.06655
1497.92068 0.06674
1496.63491 0.06688
1495.34915 0.06697
1494.06338 0.06704
1492.77761 0.06716
1491.49184 0.06735
1490.20607 0.06756
1488.92030 0.06784
1487.63453 0.06827
1486.34876 0.06888
1485.06299 0.06961
1483.77723 0.07040
1482.49146 0.07120
1481.20569 0.07198
1479.91992 0.07276
1478.63415 0.07351
1477.34838 0.07419
1476.06261 0.07478
1474.77684 0.07536
1473.49108 0.07609
1472.20531 0.07697
1470.91954 0.07797
1469.63377 0.07903
1468.34800 0.08009
1467.06223 0.08107
1465.77646 0.08193
1464.49069 0.08271
1463.20492 0.08352
1461.91916 0.08449
1460.63339 0.08566
1459.34762 0.08702
1458.06185 0.08846
1456.77608 0.08974
1455.49031 0.09072
1454.20454 0.09148
1452.91877 0.09220
1451.63301 0.09290
1450.34724 0.09352
1449.06147 0.09399
1447.77570 0.09426
1446.48993 0.09429
1445.20416 0.09413
1443.91839 0.09383
1442.63262 0.09340
1441.34685 0.09284
1440.06109 0.09226
1438.77532 0.09177
1437.48955 0.09137
1436.20378 0.09093
1434.91801 0.09050
1433.63224 0.09024
1432.34647 0.09024
1431.06070 0.09050
1429.77494 0.09093
1428.48917 0.09150
1427.20340 0.09215
1425.91763 0.09285
1424.63186 0.09352
1423.34609 0.09419
1422.06032 0.09492
1420.77455 0.09575
1419.48878 0.09655
1418.20302 0.09718
1416.91725 0.09766
1415.63148 0.09807
1414.34571 0.09838
1413.05994 0.09856
1411.77417 0.09858
1410.48840 0.09841
1409.20263 0.09804
1407.91687 0.09748
1406.63110 0.09679
1405.34533 0.09597
1404.05956 0.09498
1402.77379 0.09379
1401.48802 0.09246
1400.20225 0.09102
1398.91648 0.08949
1397.63071 0.08789
1396.34495 0.08628
1395.05918 0.08470
1393.77341 0.08311
1392.48764 0.08156
1391.20187 0.08010
1389.91610 0.07877
1388.63033 0.07751
1387.34456 0.07622
1386.05880 0.07485
1384.77303 0.07346
1383.48726 0.07213
1382.20149 0.07088
1380.91572 0.06971
1379.62995 0.06856
1378.34418 0.06735
1377.05841 0.06605
1375.77264 0.06465
1374.48688 0.06319
1373.20111 0.06167
1371.91534 0.06017
1370.62957 0.05875
1369.34380 0.05746
1368.05803 0.05627
1366.77226 0.05514
1365.48649 0.05403
1364.20073 0.05293
1362.91496 0.05183
1361.62919 0.05075
1360.34342 0.04975
1359.05765 0.04885
1357.77188 0.04809
1356.48611 0.04745
1355.20034 0.04691
1353.91457 0.04645
1352.62881 0.04604
1351.34304 0.04567
1350.05727 0.04530
1348.77150 0.04493
1347.48573 0.04456
1346.19996 0.04420
1344.91419 0.04387
1343.62842 0.04357
1342.34266 0.04332
1341.05689 0.04310
1339.77112 0.04290
1338.48535 0.04268
1337.19958 0.04245
1335.91381 0.04220
1334.62804 0.04191
1333.34227 0.04153
1332.05650 0.04109
1330.77074 0.04064
1329.48497 0.04024
1328.19920 0.03993
1326.91343 0.03967
1325.62766 0.03943
1324.34189 0.03919
1323.05612 0.03895
1321.77035 0.03872
1320.48459 0.03850
1319.19882 0.03828
1317.91305 0.03804
1316.62728 0.03777
1315.34151 0.03746
1314.05574 0.03713
1312.76997 0.03678
1311.48420 0.03644
1310.19843 0.03614
1308.91267 0.03586
1307.62690 0.03561
1306.34113 0.03537
1305.05536 0.03515
1303.76959 0.03496
1302.48382 0.03481
1301.19805 0.03469
1299.91228 0.03457
1298.62652 0.03443
1297.34075 0.03428
1296.05498 0.03412
1294.76921 0.03397
1293.48344 0.03383
1292.19767 0.03373
1290.91190 0.03366
1289.62613 0.03359
1288.34036 0.03347
1287.05460 0.03332
1285.76883 0.03323
1284.48306 0.03320
1283.19729 0.03322
1281.91152 0.03322
1280.62575 0.03319
1279.33998 0.03314
1278.05421 0.03309
1276.76845 0.03306
1275.48268 0.03304
1274.19691 0.03299
1272.91114 0.03287
1271.62537 0.03271
1270.33960 0.03258
1269.05383 0.03253
1267.76806 0.03255
1266.48229 0.03256
1265.19653 0.03256
1263.91076 0.03258
1262.62499 0.03266
1261.33922 0.03279
1260.05345 0.03292
1258.76768 0.03302
1257.48191 0.03312
1256.19614 0.03325
1254.91037 0.03338
1253.62461 0.03351
1252.33884 0.03364
1251.05307 0.03380
1249.76730 0.03400
1248.48153 0.03422
1247.19576 0.03441
1245.90999 0.03454
1244.62422 0.03462
1243.33846 0.03469
1242.05269 0.03476
1240.76692 0.03483
1239.48115 0.03487
1238.19538 0.03487
1236.90961 0.03486
1235.62384 0.03488
1234.33807 0.03494
1233.05230 0.03503
1231.76654 0.03510
1230.48077 0.03511
1229.19500 0.03504
1227.90923 0.03493
1226.62346 0.03480
1225.33769 0.03469
1224.05192 0.03458
1222.76615 0.03449
1221.48039 0.03443
1220.19462 0.03440
1218.90885 0.03439
1217.62308 0.03438
1216.33731 0.03438
1215.05154 0.03444
1213.76577 0.03457
1212.48000 0.03476
1211.19423 0.03497
1209.90847 0.03517
1208.62270 0.03536
1207.33693 0.03554
1206.05116 0.03574
1204.76539 0.03596
1203.47962 0.03618
1202.19385 0.03638
1200.90808 0.03661
1199.62232 0.03688
1198.33655 0.03704
1197.05078 0.03716
1195.76501 0.03721
1194.47924 0.03722
1193.19347 0.03721
1191.90770 0.03720
1190.62193 0.03716
1189.33616 0.03711
1188.05040 0.03710
1186.76463 0.03717
1185.47886 0.03728
1184.19309 0.03738
1182.90732 0.03744
1181.62155 0.03748
1180.33578 0.03757
1179.05001 0.03768
1177.76425 0.03781
1176.47848 0.03793
1175.19271 0.03810
1173.90694 0.03832
1172.62117 0.03857
1171.33540 0.03882
1170.04963 0.03906
1168.76386 0.03928
1167.47809 0.03949
1166.19233 0.03971
1164.90656 0.03998
1163.62079 0.04030
1162.33502 0.04061
1161.04925 0.04085
1159.76348 0.04099
1158.47771 0.04107
1157.19194 0.04112
1155.90618 0.04115
1154.62041 0.04122
1153.33464 0.04132
1152.04887 0.04149
1150.76310 0.04173
1149.47733 0.04206
1148.19156 0.04251
1146.90579 0.04305
1145.62002 0.04359
1144.33426 0.04410
1143.04849 0.04460
1141.76272 0.04517
1140.47695 0.04582
1139.19118 0.04654
1137.90541 0.04731
1136.61964 0.04814
1135.33387 0.04905
1134.04811 0.05004
1132.76234 0.05112
1131.47657 0.05231
1130.19080 0.05366
1128.90503 0.05517
1127.61926 0.05684
1126.33349 0.05864
1125.04772 0.06060
1123.76195 0.06274
1122.47619 0.06509
1121.19042 0.06763
1119.90465 0.07031
1118.61888 0.07309
1117.33311 0.07587
1116.04734 0.07862
1114.76157 0.08132
1113.47580 0.08402
1112.19004 0.08677
1110.90427 0.08961
1109.61850 0.09248
1108.33273 0.09526
1107.04696 0.09787
1105.76119 0.10030
1104.47542 0.10266
1103.18965 0.10502
1101.90388 0.10738
1100.61812 0.10968
1099.33235 0.11190
1098.04658 0.11405
1096.76081 0.11613
1095.47504 0.11810
1094.18927 0.11994
1092.90350 0.12163
1091.61773 0.12321
1090.33197 0.12468
1089.04620 0.12603
1087.76043 0.12726
1086.47466 0.12840
1085.18889 0.12950
1083.90312 0.13060
1082.61735 0.13180
1081.33158 0.13317
1080.04581 0.13476
1078.76005 0.13653
1077.47428 0.13836
1076.18851 0.14017
1074.90274 0.14197
1073.61697 0.14386
1072.33120 0.14592
1071.04543 0.14817
1069.75966 0.15056
1068.47390 0.15300
1067.18813 0.15545
1065.90236 0.15793
1064.61659 0.16051
1063.33082 0.16321
1062.04505 0.16596
1060.75928 0.16864
1059.47351 0.17117
1058.18774 0.17362
1056.90198 0.17608
1055.61621 0.17859
1054.33044 0.18107
1053.04467 0.18350
1051.75890 0.18592
1050.47313 0.18843
1049.18736 0.19112
1047.90159 0.19394
1046.61583 0.19682
1045.33006 0.19969
1044.04429 0.20255
1042.75852 0.20545
1041.47275 0.20834
1040.18698 0.21119
1038.90121 0.21396
1037.61544 0.21668
1036.32967 0.21944
1035.04391 0.22229
1033.75814 0.22518
1032.47237 0.22798
1031.18660 0.23053
1029.90083 0.23283
1028.61506 0.23493
1027.32929 0.23690
1026.04352 0.23871
1024.75775 0.24035
1023.47199 0.24174
1022.18622 0.24277
1020.90045 0.24340
1019.61468 0.24365
1018.32891 0.24361
1017.04314 0.24334
1015.75737 0.24286
1014.47160 0.24210
1013.18584 0.24099
1011.90007 0.23948
1010.61430 0.23756
1009.32853 0.23527
1008.04276 0.23261
1006.75699 0.22960
1005.47122 0.22629
1004.18545 0.22277
1002.89968 0.21909
1001.61392 0.21522
1000.32815 0.21110
999.04238 0.20673
997.75661 0.20218
996.47084 0.19759
995.18507 0.19303
993.89930 0.18851
992.61353 0.18402
991.32777 0.17953
990.04200 0.17507
988.75623 0.17067
987.47046 0.16642
986.18469 0.16232
984.89892 0.15834
983.61315 0.15442
982.32738 0.15053
981.04161 0.14669
979.75585 0.14295
978.47008 0.13941
977.18431 0.13612
975.89854 0.13308
974.61277 0.13031
973.32700 0.12783
972.04123 0.12566
970.75546 0.12380
969.46970 0.12227
968.18393 0.12114
966.89816 0.12045
965.61239 0.12014
964.32662 0.12004
963.04085 0.11998
961.75508 0.11986
960.46931 0.11955
959.18354 0.11889
957.89778 0.11774
956.61201 0.11611
955.32624 0.11419
954.04047 0.11217
952.75470 0.11011
951.46893 0.10802
950.18316 0.10591
948.89739 0.10384
947.61163 0.10186
946.32586 0.09997
945.04009 0.09812
943.75432 0.09629
942.46855 0.09445
941.18278 0.09262
939.89701 0.09085
938.61124 0.08919
937.32547 0.08763
936.03971 0.08614
934.75394 0.08468
933.46817 0.08327
932.18240 0.08196
930.89663 0.08072
929.61086 0.07951
928.32509 0.07834
927.03932 0.07726
925.75356 0.07631
924.46779 0.07545
923.18202 0.07463
921.89625 0.07380
920.61048 0.07297
919.32471 0.07214
918.03894 0.07134
916.75317 0.07054
915.46740 0.06969
914.18164 0.06882
912.89587 0.06802
911.61010 0.06736
910.32433 0.06676
909.03856 0.06607
907.75279 0.06524
906.46702 0.06436
905.18125 0.06357
903.89549 0.06287
902.60972 0.06215
901.32395 0.06133
900.03818 0.06048
898.75241 0.05972
897.46664 0.05911
896.18087 0.05857
894.89510 0.05802
893.60933 0.05741
892.32357 0.05680
891.03780 0.05624
889.75203 0.05582
888.46626 0.05566
887.18049 0.05589
885.89472 0.05660
884.60895 0.05782
883.32318 0.05959
882.03742 0.06180
880.75165 0.06417
879.46588 0.06630
878.18011 0.06797
876.89434 0.06933
875.60857 0.07062
874.32280 0.07185
873.03703 0.07274
871.75126 0.07290
870.46550 0.07219
869.17973 0.07080
867.89396 0.06904
866.60819 0.06710
865.32242 0.06504
864.03665 0.06290
862.75088 0.06081
861.46511 0.05892
860.17935 0.05730
858.89358 0.05595
857.60781 0.05483
856.32204 0.05383
855.03627 0.05289
853.75050 0.05202
852.46473 0.05130
851.17896 0.05079
849.89319 0.05044
848.60743 0.05013
847.32166 0.04973
846.03589 0.04920
844.75012 0.04860
843.46435 0.04804
842.17858 0.04761
840.89281 0.04731
839.60704 0.04708
838.32128 0.04684
837.03551 0.04659
835.74974 0.04638
834.46397 0.04620
833.17820 0.04606
831.89243 0.04589
830.60666 0.04569
829.32089 0.04543
828.03512 0.04515
826.74936 0.04491
825.46359 0.04474
824.17782 0.04464
822.89205 0.04455
821.60628 0.04442
820.32051 0.04425
819.03474 0.04410
817.74897 0.04400
816.46321 0.04393
815.17744 0.04390
813.89167 0.04391
812.60590 0.04399
811.32013 0.04413
810.03436 0.04427
808.74859 0.04445
807.46282 0.04470
806.17705 0.04503
804.89129 0.04537
803.60552 0.04567
802.31975 0.04594
801.03398 0.04622
799.74821 0.04646
798.46244 0.04664
797.17667 0.04680
795.89090 0.04697
794.60513 0.04717
793.31937 0.04732
792.03360 0.04736
790.74783 0.04727
789.46206 0.04713
788.17629 0.04698
786.89052 0.04686
785.60475 0.04676
784.31898 0.04669
783.03322 0.04661
781.74745 0.04653
780.46168 0.04646
779.17591 0.04645
777.89014 0.04648
776.60437 0.04645
775.31860 0.04627
774.03283 0.04595
772.74706 0.04560
771.46130 0.04533
770.17553 0.04520
768.88976 0.04513
767.60399 0.04505
766.31822 0.04496
765.03245 0.04492
763.74668 0.04492
762.46091 0.04489
761.17515 0.04477
759.88938 0.04461
758.60361 0.04452
757.31784 0.04453
756.03207 0.04458
754.74630 0.04458
753.46053 0.04451
752.17476 0.04434
750.88899 0.04406
749.60323 0.04372
748.31746 0.04343
747.03169 0.04328
745.74592 0.04331
744.46015 0.04344
743.17438 0.04358
741.88861 0.04356
740.60284 0.04334
739.31708 0.04298
738.03131 0.04267
736.74554 0.04253
735.45977 0.04251
734.17400 0.04250
732.88823 0.04245
731.60246 0.04239
730.31669 0.04235
729.03092 0.04231
727.74516 0.04225
726.45939 0.04217
725.17362 0.04204
723.88785 0.04179
722.60208 0.04160
721.31631 0.04154
720.03054 0.04163
718.74477 0.04187
717.45901 0.04220
716.17324 0.04251
714.88747 0.04272
713.60170 0.04278
712.31593 0.04270
711.03016 0.04253
709.74439 0.04230
708.45862 0.04205
707.17285 0.04181
705.88709 0.04164
704.60132 0.04154
703.31555 0.04148
702.02978 0.04141
700.74401 0.04136
699.45824 0.04138
698.17247 0.04150
696.88670 0.04169
695.60094 0.04185
694.31517 0.04192
693.02940 0.04190
691.74363 0.04183
690.45786 0.04177
689.17209 0.04170
687.88632 0.04159
686.60055 0.04142
685.31478 0.04120
684.02902 0.04092
682.74325 0.04061
681.45748 0.04033
680.17171 0.04011
678.88594 0.03997
677.60017 0.03990
676.31440 0.03987
675.02863 0.03990
673.74287 0.04001
672.45710 0.04017
671.17133 0.04036
669.88556 0.04053
668.59979 0.04060
667.31402 0.04058
666.02825 0.04053
664.74248 0.04037
663.45671 0.04024
662.17095 0.04015
660.88518 0.04009
659.59941 0.04007
658.31364 0.04008
657.02787 0.04012
655.74210 0.04014
654.45633 0.04012
653.17056 0.04008
651.88480 0.04007
650.59903 0.04012
649.31326 0.04021
648.02749 0.04035
646.74172 0.04051
645.45595 0.04070
644.17018 0.04087
642.88441 0.04097
641.59864 0.04096
640.31288 0.04089
639.02711 0.04085
637.74134 0.04088
636.45557 0.04099
635.16980 0.04111
633.88403 0.04118
632.59826 0.04123
631.31249 0.04126
630.02673 0.04105
628.74096 0.04088
627.45519 0.04212
626.16942 0.04266
624.88365 0.04270
623.59788 0.04283
622.31211 0.04325
621.02634 0.04423
619.74057 0.04592
618.45481 0.04811
617.16904 0.05018
615.88327 0.05154
614.59750 0.05204
613.31173 0.05258
612.02596 0.05506
610.74019 0.06094
609.45442 0.06928
608.16866 0.07718
606.88289 0.08266
605.59712 0.08614
604.31135 0.08881
603.02558 0.09084
601.73981 0.09161
600.45404 0.09089
599.16827 0.08916
597.88250 0.08705
596.59674 0.08491
595.31097 0.08290
594.02520 0.08108
592.73943 0.07946
591.45366 0.07804
590.16789 0.07690
588.88212 0.07617
587.59635 0.07593
586.31059 0.07617
585.02482 0.07683
583.73905 0.07788
582.45328 0.07930
581.16751 0.08104
579.88174 0.08302
578.59597 0.08520
577.31020 0.08750
576.02443 0.08981
574.73867 0.09198
573.45290 0.09394
572.16713 0.09578
570.88136 0.09769
569.59559 0.09984
568.30982 0.10233
567.02405 0.10518
565.73828 0.10826
564.45251 0.11126
563.16675 0.11372
561.88098 0.11521
560.59521 0.11549
559.30944 0.11454
558.02367 0.11253
556.73790 0.10966
555.45213 0.10618
554.16636 0.10231
552.88060 0.09828
551.59483 0.09430
550.30906 0.09056
549.02329 0.08711
547.73752 0.08398
546.45175 0.08122
545.16598 0.07886
543.88021 0.07694
542.59444 0.07535
541.30868 0.07394
540.02291 0.07258
538.73714 0.07124
537.45137 0.06994
536.16560 0.06873
534.87983 0.06761
533.59406 0.06659
532.30829 0.06566
531.02253 0.06476
529.73676 0.06381
528.45099 0.06280
527.16522 0.06178
525.87945 0.06084
524.59368 0.06004
523.30791 0.05937
522.02214 0.05879
520.73637 0.05822
519.45061 0.05759
518.16484 0.05688
516.87907 0.05615
515.59330 0.05547
514.30753 0.05488
513.02176 0.05440
511.73599 0.05398
510.45022 0.05356
509.16446 0.05308
507.87869 0.05254
506.59292 0.05199
505.30715 0.05152
504.02138 0.05116
502.73561 0.05087
501.44984 0.05059
500.16407 0.05031
498.87830 0.05009
497.59254 0.04992
496.30677 0.04978
495.02100 0.04963
493.73523 0.04948
492.44946 0.04932
491.16369 0.04917
489.87792 0.04909
488.59215 0.04916
487.30639 0.04943
486.02062 0.04982
484.73485 0.05018
483.44908 0.05043
482.16331 0.05058
480.87754 0.05072
479.59177 0.05095
478.30600 0.05134
477.02023 0.05189
475.73447 0.05253
474.44870 0.05319
473.16293 0.05379
471.87716 0.05427
470.59139 0.05459
469.30562 0.05479
468.01985 0.05491
466.73408 0.05494
465.44832 0.05485
464.16255 0.05463
462.87678 0.05428
461.59101 0.05384
460.30524 0.05334
459.01947 0.05284
457.73370 0.05238
456.44793 0.05196
455.16216 0.05155
453.87640 0.05115
452.59063 0.05075
451.30486 0.05034
450.01909 0.04991
448.73332 0.04943
447.44755 0.04888
446.16178 0.04833
444.87601 0.04783
443.59025 0.04740
442.30448 0.04700
441.01871 0.04661
439.73294 0.04623
438.44717 0.04588
437.16140 0.04559
435.87563 0.04537
434.58986 0.04519
433.30409 0.04507
432.01833 0.04498
430.73256 0.04485
429.44679 0.04459
428.16102 0.04419
426.87525 0.04376
425.58948 0.04340
424.30371 0.04313
423.01794 0.04287
421.73218 0.04258
420.44641 0.04222
419.16064 0.04180
417.87487 0.04130
416.58910 0.04080
415.30333 0.04032
414.01756 0.03988
412.73179 0.03945
411.44602 0.03903
410.16026 0.03861
408.87449 0.03819
407.58872 0.03775
406.30295 0.03731
405.01718 0.03692
403.73141 0.03663
402.44564 0.03649
401.15987 0.03650
399.87411 0.03663
