3997.45528	0.02717
3996.16951	0.02759
3994.88374	0.02772
3993.59798	0.02729
3992.31221	0.02637
3991.02644	0.02545
3989.74067	0.02505
3988.45490	0.02531
3987.16913	0.02583
3985.88336	0.02603
3984.59759	0.02571
3983.31183	0.02515
3982.02606	0.02485
3980.74029	0.02503
3979.45452	0.02543
3978.16875	0.02572
3976.88298	0.02583
3975.59721	0.02598
3974.31144	0.02625
3973.02567	0.02649
3971.73991	0.02645
3970.45414	0.02603
3969.16837	0.02541
3967.88260	0.02506
3966.59683	0.02537
3965.31106	0.02634
3964.02529	0.02745
3962.73952	0.02809
3961.45376	0.02809
3960.16799	0.02771
3958.88222	0.02729
3957.59645	0.02696
3956.31068	0.02675
3955.02491	0.02664
3953.73914	0.02664
3952.45337	0.02668
3951.16760	0.02670
3949.88184	0.02681
3948.59607	0.02709
3947.31030	0.02748
3946.02453	0.02780
3944.73876	0.02790
3943.45299	0.02783
3942.16722	0.02775
3940.88145	0.02779
3939.59569	0.02790
3938.30992	0.02779
3937.02415	0.02725
3935.73838	0.02640
3934.45261	0.02558
3933.16684	0.02504
3931.88107	0.02479
3930.59530	0.02476
3929.30953	0.02489
3928.02377	0.02521
3926.73800	0.02571
3925.45223	0.02626
3924.16646	0.02663
3922.88069	0.02672
3921.59492	0.02664
3920.30915	0.02652
3919.02338	0.02621
3917.73762	0.02548
3916.45185	0.02444
3915.16608	0.02366
3913.88031	0.02370
3912.59454	0.02459
3911.30877	0.02583
3910.02300	0.02681
3908.73723	0.02719
3907.45146	0.02713
3906.16570	0.02711
3904.87993	0.02732
3903.59416	0.02745
3902.30839	0.02715
3901.02262	0.02653
3899.73685	0.02608
3898.45108	0.02608
3897.16531	0.02629
3895.87955	0.02634
3894.59378	0.02619
3893.30801	0.02620
3892.02224	0.02661
3890.73647	0.02715
3889.45070	0.02752
3888.16493	0.02774
3886.87916	0.02772
3885.59339	0.02705
3884.30763	0.02566
3883.02186	0.02423
3881.73609	0.02356
3880.45032	0.02369
3879.16455	0.02413
3877.87878	0.02445
3876.59301	0.02452
3875.30724	0.02443
3874.02148	0.02430
3872.73571	0.02442
3871.44994	0.02498
3870.16417	0.02575
3868.87840	0.02625
3867.59263	0.02630
3866.30686	0.02598
3865.02109	0.02545
3863.73532	0.02496
3862.44956	0.02479
3861.16379	0.02492
3859.87802	0.02510
3858.59225	0.02519
3857.30648	0.02525
3856.02071	0.02549
3854.73494	0.02584
3853.44917	0.02589
3852.16341	0.02541
3850.87764	0.02464
3849.59187	0.02395
3848.30610	0.02364
3847.02033	0.02391
3845.73456	0.02467
3844.44879	0.02540
3843.16302	0.02556
3841.87725	0.02517
3840.59149	0.02486
3839.30572	0.02503
3838.01995	0.02537
3836.73418	0.02542
3835.44841	0.02523
3834.16264	0.02526
3832.87687	0.02572
3831.59110	0.02646
3830.30534	0.02722
3829.01957	0.02764
3827.73380	0.02735
3826.44803	0.02628
3825.16226	0.02499
3823.87649	0.02425
3822.59072	0.02425
3821.30495	0.02436
3820.01918	0.02409
3818.73342	0.02366
3817.44765	0.02346
3816.16188	0.02344
3814.87611	0.02347
3813.59034	0.02366
3812.30457	0.02402
3811.01880	0.02426
3809.73303	0.02433
3808.44726	0.02442
3807.16150	0.02461
3805.87573	0.02489
3804.58996	0.02547
3803.30419	0.02637
3802.01842	0.02702
3800.73265	0.02693
3799.44688	0.02643
3798.16111	0.02618
3796.87535	0.02614
3795.58958	0.02584
3794.30381	0.02515
3793.01804	0.02436
3791.73227	0.02379
3790.44650	0.02351
3789.16073	0.02349
3787.87496	0.02360
3786.58919	0.02372
3785.30343	0.02373
3784.01766	0.02364
3782.73189	0.02364
3781.44612	0.02390
3780.16035	0.02434
3778.87458	0.02473
3777.58881	0.02488
3776.30304	0.02473
3775.01728	0.02431
3773.73151	0.02382
3772.44574	0.02361
3771.15997	0.02379
3769.87420	0.02411
3768.58843	0.02425
3767.30266	0.02421
3766.01689	0.02408
3764.73112	0.02386
3763.44536	0.02357
3762.15959	0.02327
3760.87382	0.02299
3759.58805	0.02269
3758.30228	0.02243
3757.01651	0.02234
3755.73074	0.02254
3754.44497	0.02305
3753.15921	0.02368
3751.87344	0.02410
3750.58767	0.02410
3749.30190	0.02366
3748.01613	0.02311
3746.73036	0.02303
3745.44459	0.02332
3744.15882	0.02315
3742.87305	0.02232
3741.58729	0.02165
3740.30152	0.02162
3739.01575	0.02193
3737.72998	0.02224
3736.44421	0.02255
3735.15844	0.02300
3733.87267	0.02352
3732.58690	0.02369
3731.30114	0.02325
3730.01537	0.02254
3728.72960	0.02226
3727.44383	0.02259
3726.15806	0.02316
3724.87229	0.02369
3723.58652	0.02418
3722.30075	0.02461
3721.01498	0.02485
3719.72922	0.02485
3718.44345	0.02471
3717.15768	0.02445
3715.87191	0.02412
3714.58614	0.02391
3713.30037	0.02402
3712.01460	0.02446
3710.72883	0.02491
3709.44307	0.02490
3708.15730	0.02417
3706.87153	0.02286
3705.58576	0.02159
3704.29999	0.02089
3703.01422	0.02104
3701.72845	0.02200
3700.44268	0.02326
3699.15691	0.02410
3697.87115	0.02430
3696.58538	0.02421
3695.29961	0.02408
3694.01384	0.02394
3692.72807	0.02391
3691.44230	0.02389
3690.15653	0.02386
3688.87076	0.02412
3687.58500	0.02477
3686.29923	0.02553
3685.01346	0.02609
3683.72769	0.02602
3682.44192	0.02519
3681.15615	0.02420
3679.87038	0.02363
3678.58461	0.02351
3677.29884	0.02349
3676.01308	0.02293
3674.72731	0.02183
3673.44154	0.02116
3672.15577	0.02174
3670.87000	0.02308
3669.58423	0.02382
3668.29846	0.02342
3667.01269	0.02249
3665.72693	0.02189
3664.44116	0.02199
3663.15539	0.02262
3661.86962	0.02332
3660.58385	0.02361
3659.29808	0.02340
3658.01231	0.02299
3656.72654	0.02282
3655.44077	0.02306
3654.15501	0.02375
3652.86924	0.02489
3651.58347	0.02633
3650.29770	0.02767
3649.01193	0.02848
3647.72616	0.02849
3646.44039	0.02771
3645.15462	0.02653
3643.86886	0.02563
3642.58309	0.02540
3641.29732	0.02569
3640.01155	0.02606
3638.72578	0.02628
3637.44001	0.02652
3636.15424	0.02698
3634.86847	0.02746
3633.58270	0.02769
3632.29694	0.02769
3631.01117	0.02775
3629.72540	0.02799
3628.43963	0.02818
3627.15386	0.02823
3625.86809	0.02838
3624.58232	0.02884
3623.29655	0.02953
3622.01079	0.03020
3620.72502	0.03048
3619.43925	0.03024
3618.15348	0.02969
3616.86771	0.02937
3615.58194	0.02953
3614.29617	0.02998
3613.01040	0.03040
3611.72463	0.03066
3610.43887	0.03078
3609.15310	0.03063
3607.86733	0.03003
3606.58156	0.02918
3605.29579	0.02847
3604.01002	0.02807
3602.72425	0.02783
3601.43848	0.02782
3600.15272	0.02823
3598.86695	0.02907
3597.58118	0.02997
3596.29541	0.03057
3595.00964	0.03072
3593.72387	0.03061
3592.43810	0.03075
3591.15233	0.03147
3589.86656	0.03230
3588.58080	0.03254
3587.29503	0.03208
3586.00926	0.03143
3584.72349	0.03118
3583.43772	0.03157
3582.15195	0.03225
3580.86618	0.03271
3579.58041	0.03285
3578.29464	0.03269
3577.00888	0.03214
3575.72311	0.03126
3574.43734	0.03037
3573.15157	0.02993
3571.86580	0.03016
3570.58003	0.03092
3569.29426	0.03199
3568.00849	0.03311
3566.72273	0.03393
3565.43696	0.03412
3564.15119	0.03367
3562.86542	0.03298
3561.57965	0.03253
3560.29388	0.03262
3559.00811	0.03316
3557.72234	0.03384
3556.43657	0.03442
3555.15081	0.03475
3553.86504	0.03481
3552.57927	0.03459
3551.29350	0.03424
3550.00773	0.03412
3548.72196	0.03458
3547.43619	0.03545
3546.15042	0.03614
3544.86466	0.03617
3543.57889	0.03566
3542.29312	0.03513
3541.00735	0.03487
3539.72158	0.03474
3538.43581	0.03455
3537.15004	0.03445
3535.86427	0.03471
3534.57850	0.03535
3533.29274	0.03602
3532.00697	0.03627
3530.72120	0.03603
3529.43543	0.03558
3528.14966	0.03528
3526.86389	0.03527
3525.57812	0.03550
3524.29235	0.03591
3523.00659	0.03641
3521.72082	0.03680
3520.43505	0.03688
3519.14928	0.03658
3517.86351	0.03605
3516.57774	0.03559
3515.29197	0.03549
3514.00620	0.03578
3512.72043	0.03614
3511.43467	0.03628
3510.14890	0.03621
3508.86313	0.03627
3507.57736	0.03665
3506.29159	0.03715
3505.00582	0.03734
3503.72005	0.03707
3502.43428	0.03659
3501.14852	0.03634
3499.86275	0.03653
3498.57698	0.03703
3497.29121	0.03758
3496.00544	0.03808
3494.71967	0.03861
3493.43390	0.03914
3492.14813	0.03946
3490.86236	0.03941
3489.57660	0.03907
3488.29083	0.03870
3487.00506	0.03852
3485.71929	0.03853
3484.43352	0.03859
3483.14775	0.03848
3481.86198	0.03818
3480.57621	0.03798
3479.29045	0.03816
3478.00468	0.03873
3476.71891	0.03937
3475.43314	0.03981
3474.14737	0.04006
3472.86160	0.04026
3471.57583	0.04047
3470.29006	0.04057
3469.00429	0.04043
3467.71853	0.04008
3466.43276	0.03963
3465.14699	0.03924
3463.86122	0.03908
3462.57545	0.03925
3461.28968	0.03970
3460.00391	0.04026
3458.71814	0.04075
3457.43238	0.04106
3456.14661	0.04124
3454.86084	0.04141
3453.57507	0.04168
3452.28930	0.04205
3451.00353	0.04240
3449.71776	0.04263
3448.43199	0.04274
3447.14622	0.04276
3445.86046	0.04268
3444.57469	0.04245
3443.28892	0.04214
3442.00315	0.04178
3440.71738	0.04138
3439.43161	0.04092
3438.14584	0.04047
3436.86007	0.04026
3435.57431	0.04054
3434.28854	0.04128
3433.00277	0.04222
3431.71700	0.04296
3430.43123	0.04332
3429.14546	0.04329
3427.85969	0.04298
3426.57392	0.04255
3425.28815	0.04219
3424.00239	0.04209
3422.71662	0.04225
3421.43085	0.04245
3420.14508	0.04253
3418.85931	0.04251
3417.57354	0.04253
3416.28777	0.04263
3415.00200	0.04273
3413.71624	0.04285
3412.43047	0.04306
3411.14470	0.04341
3409.85893	0.04376
3408.57316	0.04396
3407.28739	0.04401
3406.00162	0.04398
3404.71585	0.04387
3403.43008	0.04364
3402.14432	0.04332
3400.85855	0.04309
3399.57278	0.04311
3398.28701	0.04334
3397.00124	0.04358
3395.71547	0.04362
3394.42970	0.04344
3393.14393	0.04327
3391.85817	0.04335
3390.57240	0.04369
3389.28663	0.04406
3388.00086	0.04421
3386.71509	0.04410
3385.42932	0.04387
3384.14355	0.04371
3382.85778	0.04379
3381.57201	0.04407
3380.28625	0.04435
3379.00048	0.04445
3377.71471	0.04436
3376.42894	0.04429
3375.14317	0.04436
3373.85740	0.04456
3372.57163	0.04481
3371.28586	0.04511
3370.00010	0.04548
3368.71433	0.04583
3367.42856	0.04601
3366.14279	0.04585
3364.85702	0.04532
3363.57125	0.04469
3362.28548	0.04437
3360.99971	0.04452
3359.71394	0.04485
3358.42818	0.04483
3357.14241	0.04432
3355.85664	0.04367
3354.57087	0.04346
3353.28510	0.04391
3351.99933	0.04469
3350.71356	0.04519
3349.42779	0.04513
3348.14202	0.04468
3346.85626	0.04417
3345.57049	0.04384
3344.28472	0.04379
3342.99895	0.04398
3341.71318	0.04424
3340.42741	0.04436
3339.14164	0.04434
3337.85587	0.04443
3336.57011	0.04477
3335.28434	0.04523
3333.99857	0.04546
3332.71280	0.04532
3331.42703	0.04492
3330.14126	0.04450
3328.85549	0.04421
3327.56972	0.04414
3326.28395	0.04432
3324.99819	0.04463
3323.71242	0.04482
3322.42665	0.04471
3321.14088	0.04435
3319.85511	0.04393
3318.56934	0.04367
3317.28357	0.04367
3315.99780	0.04382
3314.71204	0.04400
3313.42627	0.04419
3312.14050	0.04442
3310.85473	0.04472
3309.56896	0.04497
3308.28319	0.04499
3306.99742	0.04477
3305.71165	0.04448
3304.42588	0.04431
3303.14012	0.04430
3301.85435	0.04435
3300.56858	0.04443
3299.28281	0.04464
3297.99704	0.04506
3296.71127	0.04550
3295.42550	0.04561
3294.13973	0.04528
3292.85397	0.04472
3291.56820	0.04427
3290.28243	0.04408
3288.99666	0.04411
3287.71089	0.04422
3286.42512	0.04423
3285.13935	0.04402
3283.85358	0.04357
3282.56781	0.04305
3281.28205	0.04273
3279.99628	0.04279
3278.71051	0.04319
3277.42474	0.04375
3276.13897	0.04424
3274.85320	0.04447
3273.56743	0.04433
3272.28166	0.04382
3270.99590	0.04314
3269.71013	0.04269
3268.42436	0.04279
3267.13859	0.04338
3265.85282	0.04406
3264.56705	0.04444
3263.28128	0.04444
3261.99551	0.04421
3260.70974	0.04397
3259.42398	0.04383
3258.13821	0.04376
3256.85244	0.04363
3255.56667	0.04331
3254.28090	0.04286
3252.99513	0.04247
3251.70936	0.04228
3250.42359	0.04228
3249.13783	0.04241
3247.85206	0.04261
3246.56629	0.04279
3245.28052	0.04277
3243.99475	0.04249
3242.70898	0.04208
3241.42321	0.04179
3240.13744	0.04178
3238.85167	0.04196
3237.56591	0.04212
3236.28014	0.04201
3234.99437	0.04154
3233.70860	0.04084
3232.42283	0.04024
3231.13706	0.03996
3229.85129	0.03994
3228.56552	0.03994
3227.27976	0.03992
3225.99399	0.04008
3224.70822	0.04059
3223.42245	0.04128
3222.13668	0.04178
3220.85091	0.04184
3219.56514	0.04156
3218.27937	0.04120
3216.99360	0.04097
3215.70784	0.04096
3214.42207	0.04113
3213.13630	0.04143
3211.85053	0.04183
3210.56476	0.04229
3209.27899	0.04271
3207.99322	0.04294
3206.70745	0.04292
3205.42169	0.04263
3204.13592	0.04217
3202.85015	0.04167
3201.56438	0.04130
3200.27861	0.04115
3198.99284	0.04115
3197.70707	0.04112
3196.42130	0.04088
3195.13553	0.04046
3193.84977	0.04004
3192.56400	0.03973
3191.27823	0.03955
3189.99246	0.03949
3188.70669	0.03957
3187.42092	0.03973
3186.13515	0.03986
3184.84938	0.03983
3183.56362	0.03968
3182.27785	0.03959
3180.99208	0.03969
3179.70631	0.03982
3178.42054	0.03971
3177.13477	0.03926
3175.84900	0.03874
3174.56323	0.03855
3173.27746	0.03876
3171.99170	0.03905
3170.70593	0.03902
3169.42016	0.03868
3168.13439	0.03837
3166.84862	0.03842
3165.56285	0.03873
3164.27708	0.03894
3162.99131	0.03879
3161.70555	0.03846
3160.41978	0.03831
3159.13401	0.03854
3157.84824	0.03898
3156.56247	0.03927
3155.27670	0.03917
3153.99093	0.03875
3152.70516	0.03828
3151.41939	0.03794
3150.13363	0.03771
3148.84786	0.03753
3147.56209	0.03739
3146.27632	0.03729
3144.99055	0.03720
3143.70478	0.03714
3142.41901	0.03714
3141.13324	0.03720
3139.84748	0.03721
3138.56171	0.03705
3137.27594	0.03670
3135.99017	0.03618
3134.70440	0.03564
3133.41863	0.03533
3132.13286	0.03541
3130.84709	0.03578
3129.56132	0.03617
3128.27556	0.03631
3126.98979	0.03610
3125.70402	0.03563
3124.41825	0.03515
3123.13248	0.03494
3121.84671	0.03511
3120.56094	0.03552
3119.27517	0.03589
3117.98940	0.03602
3116.70364	0.03592
3115.41787	0.03573
3114.13210	0.03561
3112.84633	0.03559
3111.56056	0.03563
3110.27479	0.03568
3108.98902	0.03577
3107.70325	0.03589
3106.41749	0.03607
3105.13172	0.03625
3103.84595	0.03633
3102.56018	0.03614
3101.27441	0.03569
3099.98864	0.03518
3098.70287	0.03480
3097.41710	0.03459
3096.13133	0.03447
3094.84557	0.03441
3093.55980	0.03452
3092.27403	0.03487
3090.98826	0.03536
3089.70249	0.03579
3088.41672	0.03594
3087.13095	0.03570
3085.84518	0.03512
3084.55942	0.03445
3083.27365	0.03393
3081.98788	0.03371
3080.70211	0.03381
3079.41634	0.03417
3078.13057	0.03466
3076.84480	0.03513
3075.55903	0.03542
3074.27326	0.03548
3072.98750	0.03527
3071.70173	0.03488
3070.41596	0.03450
3069.13019	0.03435
3067.84442	0.03449
3066.55865	0.03479
3065.27288	0.03500
3063.98711	0.03496
3062.70135	0.03465
3061.41558	0.03419
3060.12981	0.03371
3058.84404	0.03337
3057.55827	0.03323
3056.27250	0.03332
3054.98673	0.03358
3053.70096	0.03384
3052.41519	0.03394
3051.12943	0.03382
3049.84366	0.03361
3048.55789	0.03350
3047.27212	0.03357
3045.98635	0.03372
3044.70058	0.03382
3043.41481	0.03382
3042.12904	0.03372
3040.84328	0.03355
3039.55751	0.03339
3038.27174	0.03326
3036.98597	0.03318
3035.70020	0.03313
3034.41443	0.03308
3033.12866	0.03307
3031.84289	0.03310
3030.55712	0.03316
3029.27136	0.03320
3027.98559	0.03320
3026.69982	0.03310
3025.41405	0.03278
3024.12828	0.03219
3022.84251	0.03153
3021.55674	0.03113
3020.27097	0.03120
3018.98521	0.03157
3017.69944	0.03189
3016.41367	0.03191
3015.12790	0.03170
3013.84213	0.03151
3012.55636	0.03149
3011.27059	0.03162
3009.98482	0.03180
3008.69905	0.03198
3007.41329	0.03214
3006.12752	0.03222
3004.84175	0.03219
3003.55598	0.03204
3002.27021	0.03178
3000.98444	0.03149
2999.69867	0.03124
2998.41290	0.03108
2997.12714	0.03096
2995.84137	0.03085
2994.55560	0.03079
2993.26983	0.03093
2991.98406	0.03127
2990.69829	0.03165
2989.41252	0.03188
2988.12675	0.03189
2986.84098	0.03174
2985.55522	0.03152
2984.26945	0.03131
2982.98368	0.03123
2981.69791	0.03141
2980.41214	0.03191
2979.12637	0.03253
2977.84060	0.03302
2976.55483	0.03331
2975.26907	0.03356
2973.98330	0.03392
2972.69753	0.03430
2971.41176	0.03454
2970.12599	0.03462
2968.84022	0.03472
2967.55445	0.03501
2966.26868	0.03547
2964.98291	0.03593
2963.69715	0.03618
2962.41138	0.03621
2961.12561	0.03619
2959.83984	0.03627
2958.55407	0.03646
2957.26830	0.03667
2955.98253	0.03681
2954.69676	0.03690
2953.41100	0.03696
2952.12523	0.03700
2950.83946	0.03702
2949.55369	0.03699
2948.26792	0.03694
2946.98215	0.03697
2945.69638	0.03713
2944.41061	0.03742
2943.12484	0.03771
2941.83908	0.03790
2940.55331	0.03799
2939.26754	0.03802
2937.98177	0.03802
2936.69600	0.03799
2935.41023	0.03796
2934.12446	0.03806
2932.83869	0.03834
2931.55293	0.03869
2930.26716	0.03899
2928.98139	0.03913
2927.69562	0.03918
2926.40985	0.03931
2925.12408	0.03966
2923.83831	0.04014
2922.55254	0.04052
2921.26677	0.04061
2919.98101	0.04049
2918.69524	0.04031
2917.40947	0.04010
2916.12370	0.03981
2914.83793	0.03938
2913.55216	0.03887
2912.26639	0.03830
2910.98062	0.03766
2909.69486	0.03699
2908.40909	0.03637
2907.12332	0.03592
2905.83755	0.03563
2904.55178	0.03547
2903.26601	0.03542
2901.98024	0.03544
2900.69447	0.03547
2899.40870	0.03544
2898.12294	0.03538
2896.83717	0.03531
2895.55140	0.03517
2894.26563	0.03493
2892.97986	0.03464
2891.69409	0.03443
2890.40832	0.03429
2889.12255	0.03412
2887.83678	0.03386
2886.55102	0.03357
2885.26525	0.03343
2883.97948	0.03350
2882.69371	0.03374
2881.40794	0.03402
2880.12217	0.03425
2878.83640	0.03434
2877.55063	0.03423
2876.26487	0.03400
2874.97910	0.03373
2873.69333	0.03346
2872.40756	0.03317
2871.12179	0.03294
2869.83602	0.03287
2868.55025	0.03299
2867.26448	0.03310
2865.97871	0.03305
2864.69295	0.03285
2863.40718	0.03267
2862.12141	0.03258
2860.83564	0.03260
2859.54987	0.03268
2858.26410	0.03289
2856.97833	0.03322
2855.69256	0.03354
2854.40680	0.03366
2853.12103	0.03355
2851.83526	0.03335
2850.54949	0.03313
2849.26372	0.03288
2847.97795	0.03255
2846.69218	0.03218
2845.40641	0.03180
2844.12064	0.03140
2842.83488	0.03093
2841.54911	0.03036
2840.26334	0.02978
2838.97757	0.02932
2837.69180	0.02904
2836.40603	0.02887
2835.12026	0.02872
2833.83449	0.02853
2832.54873	0.02831
2831.26296	0.02811
2829.97719	0.02795
2828.69142	0.02782
2827.40565	0.02768
2826.11988	0.02750
2824.83411	0.02729
2823.54834	0.02712
2822.26257	0.02704
2820.97681	0.02704
2819.69104	0.02710
2818.40527	0.02717
2817.11950	0.02720
2815.83373	0.02711
2814.54796	0.02693
2813.26219	0.02676
2811.97642	0.02671
2810.69066	0.02682
2809.40489	0.02705
2808.11912	0.02721
2806.83335	0.02716
2805.54758	0.02688
2804.26181	0.02654
2802.97604	0.02630
2801.69027	0.02618
2800.40450	0.02613
2799.11874	0.02611
2797.83297	0.02612
2796.54720	0.02611
2795.26143	0.02605
2793.97566	0.02593
2792.68989	0.02579
2791.40412	0.02570
2790.11835	0.02566
2788.83259	0.02560
2787.54682	0.02552
2786.26105	0.02545
2784.97528	0.02548
2783.68951	0.02561
2782.40374	0.02581
2781.11797	0.02599
2779.83220	0.02607
2778.54643	0.02605
2777.26067	0.02599
2775.97490	0.02588
2774.68913	0.02569
2773.40336	0.02542
2772.11759	0.02519
2770.83182	0.02503
2769.54605	0.02491
2768.26028	0.02478
2766.97452	0.02469
2765.68875	0.02469
2764.40298	0.02479
2763.11721	0.02495
2761.83144	0.02509
2760.54567	0.02518
2759.25990	0.02514
2757.97413	0.02495
2756.68836	0.02467
2755.40260	0.02439
2754.11683	0.02424
2752.83106	0.02430
2751.54529	0.02451
2750.25952	0.02475
2748.97375	0.02485
2747.68798	0.02480
2746.40221	0.02467
2745.11645	0.02457
2743.83068	0.02450
2742.54491	0.02442
2741.25914	0.02434
2739.97337	0.02429
2738.68760	0.02432
2737.40183	0.02440
2736.11606	0.02446
2734.83029	0.02446
2733.54453	0.02442
2732.25876	0.02433
2730.97299	0.02425
2729.68722	0.02423
2728.40145	0.02429
2727.11568	0.02440
2725.82991	0.02439
2724.54414	0.02417
2723.25838	0.02381
2721.97261	0.02348
2720.68684	0.02330
2719.40107	0.02322
2718.11530	0.02316
2716.82953	0.02309
2715.54376	0.02301
2714.25799	0.02296
2712.97222	0.02295
2711.68646	0.02301
2710.40069	0.02312
2709.11492	0.02321
2707.82915	0.02322
2706.54338	0.02319
2705.25761	0.02320
2703.97184	0.02328
2702.68607	0.02335
2701.40031	0.02337
2700.11454	0.02339
2698.82877	0.02344
2697.54300	0.02345
2696.25723	0.02331
2694.97146	0.02304
2693.68569	0.02281
2692.39992	0.02276
2691.11415	0.02284
2689.82839	0.02286
2688.54262	0.02276
2687.25685	0.02263
2685.97108	0.02261
2684.68531	0.02270
2683.39954	0.02278
2682.11377	0.02276
2680.82800	0.02271
2679.54224	0.02269
2678.25647	0.02272
2676.97070	0.02277
2675.68493	0.02285
2674.39916	0.02295
2673.11339	0.02295
2671.82762	0.02278
2670.54185	0.02248
2669.25608	0.02222
2667.97032	0.02214
2666.68455	0.02226
2665.39878	0.02247
2664.11301	0.02268
2662.82724	0.02281
2661.54147	0.02287
2660.25570	0.02285
2658.96993	0.02274
2657.68417	0.02256
2656.39840	0.02238
2655.11263	0.02232
2653.82686	0.02240
2652.54109	0.02252
2651.25532	0.02251
2649.96955	0.02236
2648.68378	0.02215
2647.39801	0.02195
2646.11225	0.02183
2644.82648	0.02183
2643.54071	0.02198
2642.25494	0.02220
2640.96917	0.02229
2639.68340	0.02214
2638.39763	0.02181
2637.11186	0.02150
2635.82609	0.02136
2634.54033	0.02136
2633.25456	0.02137
2631.96879	0.02129
2630.68302	0.02111
2629.39725	0.02090
2628.11148	0.02080
2626.82571	0.02087
2625.53994	0.02102
2624.25418	0.02111
2622.96841	0.02104
2621.68264	0.02085
2620.39687	0.02063
2619.11110	0.02040
2617.82533	0.02018
2616.53956	0.02003
2615.25379	0.02001
2613.96802	0.02009
2612.68226	0.02014
2611.39649	0.02002
2610.11072	0.01979
2608.82495	0.01964
2607.53918	0.01969
2606.25341	0.01982
2604.96764	0.01978
2603.68187	0.01950
2602.39611	0.01919
2601.11034	0.01908
2599.82457	0.01919
2598.53880	0.01930
2597.25303	0.01927
2595.96726	0.01916
2594.68149	0.01912
2593.39572	0.01925
2592.10995	0.01949
2590.82419	0.01974
2589.53842	0.01988
2588.25265	0.01983
2586.96688	0.01959
2585.68111	0.01922
2584.39534	0.01884
2583.10957	0.01857
2581.82380	0.01840
2580.53804	0.01831
2579.25227	0.01832
2577.96650	0.01841
2576.68073	0.01851
2575.39496	0.01852
2574.10919	0.01846
2572.82342	0.01840
2571.53765	0.01836
2570.25188	0.01828
2568.96612	0.01816
2567.68035	0.01805
2566.39458	0.01806
2565.10881	0.01818
2563.82304	0.01826
2562.53727	0.01817
2561.25150	0.01799
2559.96573	0.01798
2558.67997	0.01816
2557.39420	0.01839
2556.10843	0.01855
2554.82266	0.01868
2553.53689	0.01878
2552.25112	0.01871
2550.96535	0.01843
2549.67958	0.01804
2548.39381	0.01769
2547.10805	0.01741
2545.82228	0.01724
2544.53651	0.01724
2543.25074	0.01739
2541.96497	0.01749
2540.67920	0.01740
2539.39343	0.01722
2538.10766	0.01717
2536.82190	0.01727
2535.53613	0.01730
2534.25036	0.01714
2532.96459	0.01697
2531.67882	0.01703
2530.39305	0.01732
2529.10728	0.01761
2527.82151	0.01767
2526.53574	0.01743
2525.24998	0.01699
2523.96421	0.01653
2522.67844	0.01624
2521.39267	0.01617
2520.10690	0.01623
2518.82113	0.01638
2517.53536	0.01664
2516.24959	0.01695
2514.96383	0.01723
2513.67806	0.01740
2512.39229	0.01747
2511.10652	0.01754
2509.82075	0.01764
2508.53498	0.01765
2507.24921	0.01740
2505.96344	0.01692
2504.67767	0.01650
2503.39191	0.01643
2502.10614	0.01668
2500.82037	0.01696
2499.53460	0.01706
2498.24883	0.01701
2496.96306	0.01699
2495.67729	0.01703
2494.39152	0.01702
2493.10576	0.01685
2491.81999	0.01655
2490.53422	0.01625
2489.24845	0.01606
2487.96268	0.01608
2486.67691	0.01632
2485.39114	0.01671
2484.10537	0.01706
2482.81960	0.01716
2481.53384	0.01701
2480.24807	0.01681
2478.96230	0.01680
2477.67653	0.01696
2476.39076	0.01708
2475.10499	0.01703
2473.81922	0.01687
2472.53345	0.01676
2471.24769	0.01676
2469.96192	0.01678
2468.67615	0.01669
2467.39038	0.01640
2466.10461	0.01605
2464.81884	0.01588
2463.53307	0.01599
2462.24730	0.01621
2460.96153	0.01629
2459.67577	0.01625
2458.39000	0.01632
2457.10423	0.01663
2455.81846	0.01700
2454.53269	0.01717
2453.24692	0.01709
2451.96115	0.01686
2450.67538	0.01657
2449.38962	0.01635
2448.10385	0.01635
2446.81808	0.01659
2445.53231	0.01684
2444.24654	0.01681
2442.96077	0.01653
2441.67500	0.01622
2440.38923	0.01597
2439.10346	0.01570
2437.81770	0.01534
2436.53193	0.01503
2435.24616	0.01491
2433.96039	0.01499
2432.67462	0.01526
2431.38885	0.01568
2430.10308	0.01615
2428.81731	0.01651
2427.53155	0.01661
2426.24578	0.01644
2424.96001	0.01610
2423.67424	0.01577
2422.38847	0.01555
2421.10270	0.01546
2419.81693	0.01540
2418.53116	0.01536
2417.24539	0.01535
2415.95963	0.01536
2414.67386	0.01528
2413.38809	0.01507
2412.10232	0.01489
2410.81655	0.01495
2409.53078	0.01530
2408.24501	0.01570
2406.95924	0.01584
2405.67347	0.01565
2404.38771	0.01530
2403.10194	0.01494
2401.81617	0.01466
2400.53040	0.01450
2399.24463	0.01431
2397.95886	0.01440
2396.67309	0.01469
2395.38732	0.01493
2394.10156	0.01500
2392.81579	0.01488
2391.53002	0.01468
2390.24425	0.01450
2388.95848	0.01441
2387.67271	0.01440
2386.38694	0.01443
2385.10117	0.01458
2383.81540	0.01495
2382.52964	0.01556
2381.24387	0.01632
2379.95810	0.01705
2378.67233	0.01765
2377.38656	0.01819
2376.10079	0.01881
2374.81502	0.01932
2373.52925	0.01975
2372.24349	0.02001
2370.95772	0.02034
2369.67195	0.02056
2368.38618	0.02083
2367.10041	0.02123
2365.81464	0.02191
2364.52887	0.02217
2363.24310	0.02202
2361.95733	0.02186
2360.67157	0.02234
2359.38580	0.02273
2358.10003	0.02290
2356.81426	0.02287
2355.52849	0.02262
2354.24272	0.02219
2352.95695	0.02170
2351.67118	0.02183
2350.38542	0.02238
2349.09965	0.02229
2347.81388	0.02135
2346.52811	0.02127
2345.24234	0.02187
2343.95657	0.02145
2342.67080	0.01994
2341.38503	0.02005
2340.09926	0.02194
2338.81350	0.02192
2337.52773	0.01990
2336.24196	0.02063
2334.95619	0.02347
2333.67042	0.02347
2332.38465	0.02163
2331.09888	0.02349
2329.81311	0.02558
2328.52735	0.02401
2327.24158	0.02492
2325.95581	0.02677
2324.67004	0.02450
2323.38427	0.02255
2322.09850	0.02231
2320.81273	0.01963
2319.52696	0.01849
2318.24119	0.01863
2316.95543	0.01709
2315.66966	0.01661
2314.38389	0.01656
2313.09812	0.01556
2311.81235	0.01550
2310.52658	0.01520
2309.24081	0.01501
2307.95504	0.01547
2306.66928	0.01548
2305.38351	0.01570
2304.09774	0.01583
2302.81197	0.01575
2301.52620	0.01598
2300.24043	0.01619
2298.95466	0.01658
2297.66889	0.01686
2296.38312	0.01695
2295.09736	0.01696
2293.81159	0.01681
2292.52582	0.01666
2291.24005	0.01647
2289.95428	0.01636
2288.66851	0.01626
2287.38274	0.01604
2286.09697	0.01562
2284.81121	0.01506
2283.52544	0.01456
2282.23967	0.01417
2280.95390	0.01376
2279.66813	0.01319
2278.38236	0.01258
2277.09659	0.01219
2275.81082	0.01222
2274.52505	0.01256
2273.23929	0.01295
2271.95352	0.01321
2270.66775	0.01331
2269.38198	0.01332
2268.09621	0.01326
2266.81044	0.01320
2265.52467	0.01307
2264.23890	0.01270
2262.95314	0.01217
2261.66737	0.01190
2260.38160	0.01214
2259.09583	0.01273
2257.81006	0.01328
2256.52429	0.01336
2255.23852	0.01300
2253.95275	0.01272
2252.66698	0.01296
2251.38122	0.01355
2250.09545	0.01357
2248.80968	0.01245
2247.52391	0.01212
2246.23814	0.01189
2244.95237	0.01187
2243.66660	0.01201
2242.38083	0.01229
2241.09507	0.01267
2239.80930	0.01284
2238.52353	0.01240
2237.23776	0.01133
2235.95199	0.01017
2234.66622	0.00950
2233.38045	0.00947
2232.09468	0.00997
2230.80891	0.01087
2229.52315	0.01197
2228.23738	0.01286
2226.95161	0.01312
2225.66584	0.01276
2224.38007	0.01212
2223.09430	0.01150
2221.80853	0.01090
2220.52276	0.01029
2219.23700	0.00970
2217.95123	0.00919
2216.66546	0.00873
2215.37969	0.00829
2214.09392	0.00794
2212.80815	0.00778
2211.52238	0.00781
2210.23661	0.00791
2208.95084	0.00784
2207.66508	0.00748
2206.37931	0.00701
2205.09354	0.00685
2203.80777	0.00733
2202.52200	0.00835
2201.23623	0.00940
2199.95046	0.00987
2198.66469	0.00955
2197.37893	0.00867
2196.09316	0.00773
2194.80739	0.00721
2193.52162	0.00738
2192.23585	0.00805
2190.95008	0.00863
2189.66431	0.00854
2188.37854	0.00782
2187.09277	0.00726
2185.80701	0.00749
2184.52124	0.00826
2183.23547	0.00861
2181.94970	0.00799
2180.66393	0.00683
2179.37816	0.00597
2178.09239	0.00579
2176.80662	0.00612
2175.52085	0.00649
2174.23509	0.00651
2172.94932	0.00601
2171.66355	0.00524
2170.37778	0.00468
2169.09201	0.00463
2167.80624	0.00501
2166.52047	0.00548
2165.23470	0.00580
2163.94894	0.00595
2162.66317	0.00592
2161.37740	0.00548
2160.09163	0.00457
2158.80586	0.00376
2157.52009	0.00375
2156.23432	0.00435
2154.94855	0.00478
2153.66278	0.00484
2152.37702	0.00500
2151.09125	0.00539
2149.80548	0.00544
2148.51971	0.00480
2147.23394	0.00380
2145.94817	0.00300
2144.66240	0.00274
2143.37663	0.00310
2142.09087	0.00398
2140.80510	0.00501
2139.51933	0.00574
2138.23356	0.00605
2136.94779	0.00611
2135.66202	0.00605
2134.37625	0.00585
2133.09048	0.00555
2131.80471	0.00543
2130.51895	0.00566
2129.23318	0.00610
2127.94741	0.00641
2126.66164	0.00644
2125.37587	0.00635
2124.09010	0.00635
2122.80433	0.00659
2121.51856	0.00713
2120.23280	0.00782
2118.94703	0.00842
2117.66126	0.00876
2116.37549	0.00886
2115.08972	0.00877
2113.80395	0.00850
2112.51818	0.00814
2111.23241	0.00786
2109.94664	0.00765
2108.66088	0.00736
2107.37511	0.00704
2106.08934	0.00694
2104.80357	0.00719
2103.51780	0.00754
2102.23203	0.00757
2100.94626	0.00708
2099.66049	0.00578
2098.37473	0.00488
2097.08896	0.00459
2095.80319	0.00475
2094.51742	0.00525
2093.23165	0.00601
2091.94588	0.00690
2090.66011	0.00776
2089.37434	0.00849
2088.08857	0.00897
2086.80281	0.00899
2085.51704	0.00844
2084.23127	0.00753
2082.94550	0.00672
2081.65973	0.00634
2080.37396	0.00632
2079.08819	0.00638
2077.80242	0.00634
2076.51666	0.00625
2075.23089	0.00628
2073.94512	0.00645
2072.65935	0.00666
2071.37358	0.00677
2070.08781	0.00661
2068.80204	0.00612
2067.51627	0.00541
2066.23050	0.00475
2064.94474	0.00448
2063.65897	0.00473
2062.37320	0.00532
2061.08743	0.00593
2059.80166	0.00630
2058.51589	0.00639
2057.23012	0.00621
2055.94435	0.00581
2054.65859	0.00533
2053.37282	0.00499
2052.08705	0.00486
2050.80128	0.00478
2049.51551	0.00447
2048.22974	0.00381
2046.94397	0.00291
2045.65820	0.00201
2044.37243	0.00134
2043.08667	0.00091
2041.80090	0.00066
2040.51513	0.00064
2039.22936	0.00098
2037.94359	0.00148
2036.65782	0.00153
2035.37205	0.00074
2034.08628	-0.00048
2032.80052	-0.00131
2031.51475	-0.00132
2030.22898	-0.00072
2028.94321	0.00013
2027.65744	0.00101
2026.37167	0.00186
2025.08590	0.00254
2023.80013	0.00286
2022.51436	0.00275
2021.22860	0.00235
2019.94283	0.00201
2018.65706	0.00198
2017.37129	0.00220
2016.08552	0.00232
2014.79975	0.00206
2013.51398	0.00143
2012.22821	0.00065
2010.94245	-0.00010
2009.65668	-0.00068
2008.37091	-0.00087
2007.08514	-0.00043
2005.79937	0.00059
2004.51360	0.00177
2003.22783	0.00261
2001.94206	0.00295
2000.65629	0.00300
1999.37053	0.00311
1998.08476	0.00343
1996.79899	0.00386
1995.51322	0.00430
1994.22745	0.00483
1992.94168	0.00562
1991.65591	0.00653
1990.37014	0.00709
1989.08438	0.00686
1987.79861	0.00589
1986.51284	0.00475
1985.22707	0.00416
1983.94130	0.00438
1982.65553	0.00502
1981.36976	0.00557
1980.08399	0.00584
1978.79822	0.00588
1977.51246	0.00559
1976.22669	0.00482
1974.94092	0.00382
1973.65515	0.00318
1972.36938	0.00322
1971.08361	0.00362
1969.79784	0.00384
1968.51207	0.00365
1967.22631	0.00321
1965.94054	0.00284
1964.65477	0.00276
1963.36900	0.00302
1962.08323	0.00344
1960.79746	0.00373
1959.51169	0.00381
1958.22592	0.00389
1956.94015	0.00416
1955.65439	0.00457
1954.36862	0.00489
1953.08285	0.00513
1951.79708	0.00543
1950.51131	0.00581
1949.22554	0.00620
1947.93977	0.00658
1946.65400	0.00698
1945.36823	0.00731
1944.08247	0.00738
1942.79670	0.00718
1941.51093	0.00692
1940.22516	0.00682
1938.93939	0.00682
1937.65362	0.00665
1936.36785	0.00618
1935.08208	0.00569
1933.79632	0.00563
1932.51055	0.00622
1931.22478	0.00715
1929.93901	0.00786
1928.65324	0.00800
1927.36747	0.00771
1926.08170	0.00739
1924.79593	0.00725
1923.51016	0.00723
1922.22440	0.00710
1920.93863	0.00683
1919.65286	0.00661
1918.36709	0.00662
1917.08132	0.00691
1915.79555	0.00738
1914.50978	0.00785
1913.22401	0.00818
1911.93825	0.00833
1910.65248	0.00841
1909.36671	0.00850
1908.08094	0.00860
1906.79517	0.00866
1905.50940	0.00864
1904.22363	0.00855
1902.93786	0.00844
1901.65209	0.00838
1900.36633	0.00840
1899.08056	0.00849
1897.79479	0.00855
1896.50902	0.00848
1895.22325	0.00827
1893.93748	0.00808
1892.65171	0.00806
1891.36594	0.00827
1890.08018	0.00862
1888.79441	0.00899
1887.50864	0.00927
1886.22287	0.00942
1884.93710	0.00943
1883.65133	0.00935
1882.36556	0.00926
1881.07979	0.00916
1879.79402	0.00898
1878.50826	0.00869
1877.22249	0.00837
1875.93672	0.00815
1874.65095	0.00811
1873.36518	0.00823
1872.07941	0.00839
1870.79364	0.00852
1869.50787	0.00861
1868.22211	0.00871
1866.93634	0.00882
1865.65057	0.00897
1864.36480	0.00913
1863.07903	0.00928
1861.79326	0.00932
1860.50749	0.00917
1859.22172	0.00886
1857.93595	0.00857
1856.65019	0.00848
1855.36442	0.00861
1854.07865	0.00879
1852.79288	0.00885
1851.50711	0.00881
1850.22134	0.00877
1848.93557	0.00875
1847.64980	0.00868
1846.36404	0.00858
1845.07827	0.00850
1843.79250	0.00845
1842.50673	0.00840
1841.22096	0.00841
1839.93519	0.00853
1838.64942	0.00876
1837.36365	0.00900
1836.07788	0.00914
1834.79212	0.00914
1833.50635	0.00904
1832.22058	0.00896
1830.93481	0.00896
1829.64904	0.00905
1828.36327	0.00916
1827.07750	0.00924
1825.79173	0.00924
1824.50597	0.00916
1823.22020	0.00904
1821.93443	0.00890
1820.64866	0.00871
1819.36289	0.00847
1818.07712	0.00832
1816.79135	0.00838
1815.50558	0.00864
1814.21981	0.00893
1812.93405	0.00915
1811.64828	0.00925
1810.36251	0.00933
1809.07674	0.00943
1807.79097	0.00957
1806.50520	0.00971
1805.21943	0.00981
1803.93366	0.00989
1802.64790	0.00993
1801.36213	0.00991
1800.07636	0.00983
1798.79059	0.00974
1797.50482	0.00969
1796.21905	0.00967
1794.93328	0.00965
1793.64751	0.00964
1792.36174	0.00961
1791.07598	0.00959
1789.79021	0.00959
1788.50444	0.00964
1787.21867	0.00971
1785.93290	0.00977
1784.64713	0.00980
1783.36136	0.00979
1782.07559	0.00977
1780.78983	0.00977
1779.50406	0.00975
1778.21829	0.00969
1776.93252	0.00961
1775.64675	0.00958
1774.36098	0.00969
1773.07521	0.00986
1771.78944	0.00997
1770.50367	0.01003
1769.21791	0.01011
1767.93214	0.01020
1766.64637	0.01022
1765.36060	0.01016
1764.07483	0.01008
1762.78906	0.01000
1761.50329	0.00991
1760.21752	0.00988
1758.93176	0.01002
1757.64599	0.01025
1756.36022	0.01042
1755.07445	0.01045
1753.78868	0.01045
1752.50291	0.01048
1751.21714	0.01051
1749.93137	0.01049
1748.64560	0.01047
1747.35984	0.01050
1746.07407	0.01058
1744.78830	0.01067
1743.50253	0.01075
1742.21676	0.01082
1740.93099	0.01089
1739.64522	0.01092
1738.35945	0.01090
1737.07369	0.01094
1735.78792	0.01115
1734.50215	0.01140
1733.21638	0.01149
1731.93061	0.01149
1730.64484	0.01157
1729.35907	0.01173
1728.07330	0.01187
1726.78753	0.01193
1725.50177	0.01195
1724.21600	0.01193
1722.93023	0.01186
1721.64446	0.01181
1720.35869	0.01187
1719.07292	0.01210
1717.78715	0.01237
1716.50138	0.01258
1715.21561	0.01280
1713.92985	0.01309
1712.64408	0.01340
1711.35831	0.01366
1710.07254	0.01385
1708.78677	0.01403
1707.50100	0.01428
1706.21523	0.01459
1704.92946	0.01482
1703.64370	0.01498
1702.35793	0.01520
1701.07216	0.01550
1699.78639	0.01572
1698.50062	0.01596
1697.21485	0.01643
1695.92908	0.01703
1694.64331	0.01748
1693.35754	0.01780
1692.07178	0.01816
1690.78601	0.01853
1689.50024	0.01877
1688.21447	0.01895
1686.92870	0.01927
1685.64293	0.01977
1684.35716	0.02023
1683.07139	0.02051
1681.78563	0.02076
1680.49986	0.02112
1679.21409	0.02154
1677.92832	0.02196
1676.64255	0.02243
1675.35678	0.02287
1674.07101	0.02319
1672.78524	0.02347
1671.49947	0.02381
1670.21371	0.02423
1668.92794	0.02463
1667.64217	0.02495
1666.35640	0.02522
1665.07063	0.02553
1663.78486	0.02587
1662.49909	0.02621
1661.21332	0.02654
1659.92756	0.02687
1658.64179	0.02716
1657.35602	0.02731
1656.07025	0.02742
1654.78448	0.02764
1653.49871	0.02788
1652.21294	0.02795
1650.92717	0.02789
1649.64140	0.02799
1648.35564	0.02829
1647.06987	0.02856
1645.78410	0.02860
1644.49833	0.02850
1643.21256	0.02844
1641.92679	0.02851
1640.64102	0.02860
1639.35525	0.02860
1638.06949	0.02854
1636.78372	0.02847
1635.49795	0.02836
1634.21218	0.02817
1632.92641	0.02797
1631.64064	0.02783
1630.35487	0.02772
1629.06910	0.02761
1627.78333	0.02749
1626.49757	0.02736
1625.21180	0.02722
1623.92603	0.02703
1622.64026	0.02675
1621.35449	0.02641
1620.06872	0.02615
1618.78295	0.02609
1617.49718	0.02614
1616.21142	0.02611
1614.92565	0.02598
1613.63988	0.02586
1612.35411	0.02584
1611.06834	0.02586
1609.78257	0.02585
1608.49680	0.02578
1607.21103	0.02566
1605.92526	0.02552
1604.63950	0.02541
1603.35373	0.02540
1602.06796	0.02548
1600.78219	0.02558
1599.49642	0.02565
1598.21065	0.02568
1596.92488	0.02571
1595.63911	0.02575
1594.35335	0.02578
1593.06758	0.02581
1591.78181	0.02584
1590.49604	0.02588
1589.21027	0.02593
1587.92450	0.02599
1586.63873	0.02606
1585.35296	0.02615
1584.06719	0.02624
1582.78143	0.02635
1581.49566	0.02645
1580.20989	0.02657
1578.92412	0.02676
1577.63835	0.02703
1576.35258	0.02726
1575.06681	0.02731
1573.78104	0.02729
1572.49528	0.02739
1571.20951	0.02763
1569.92374	0.02787
1568.63797	0.02801
1567.35220	0.02810
1566.06643	0.02818
1564.78066	0.02825
1563.49489	0.02828
1562.20912	0.02836
1560.92336	0.02856
1559.63759	0.02874
1558.35182	0.02876
1557.06605	0.02870
1555.78028	0.02877
1554.49451	0.02897
1553.20874	0.02915
1551.92297	0.02922
1550.63721	0.02923
1549.35144	0.02919
1548.06567	0.02913
1546.77990	0.02910
1545.49413	0.02908
1544.20836	0.02902
1542.92259	0.02893
1541.63682	0.02891
1540.35105	0.02890
1539.06529	0.02876
1537.77952	0.02849
1536.49375	0.02825
1535.20798	0.02818
1533.92221	0.02818
1532.63644	0.02814
1531.35067	0.02811
1530.06490	0.02817
1528.77914	0.02830
1527.49337	0.02841
1526.20760	0.02845
1524.92183	0.02847
1523.63606	0.02858
1522.35029	0.02882
1521.06452	0.02905
1519.77875	0.02922
1518.49298	0.02943
1517.20722	0.02974
1515.92145	0.03008
1514.63568	0.03042
1513.34991	0.03079
1512.06414	0.03117
1510.77837	0.03153
1509.49260	0.03191
1508.20683	0.03235
1506.92107	0.03277
1505.63530	0.03303
1504.34953	0.03321
1503.06376	0.03349
1501.77799	0.03389
1500.49222	0.03430
1499.20645	0.03463
1497.92068	0.03488
1496.63491	0.03509
1495.34915	0.03525
1494.06338	0.03546
1492.77761	0.03577
1491.49184	0.03612
1490.20607	0.03637
1488.92030	0.03654
1487.63453	0.03676
1486.34876	0.03708
1485.06299	0.03750
1483.77723	0.03794
1482.49146	0.03837
1481.20569	0.03877
1479.91992	0.03919
1478.63415	0.03967
1477.34838	0.04020
1476.06261	0.04073
1474.77684	0.04122
1473.49108	0.04170
1472.20531	0.04214
1470.91954	0.04254
1469.63377	0.04291
1468.34800	0.04323
1467.06223	0.04352
1465.77646	0.04377
1464.49069	0.04401
1463.20492	0.04429
1461.91916	0.04459
1460.63339	0.04492
1459.34762	0.04532
1458.06185	0.04575
1456.77608	0.04607
1455.49031	0.04620
1454.20454	0.04630
1452.91877	0.04649
1451.63301	0.04676
1450.34724	0.04703
1449.06147	0.04721
1447.77570	0.04730
1446.48993	0.04728
1445.20416	0.04721
1443.91839	0.04709
1442.63262	0.04690
1441.34685	0.04665
1440.06109	0.04641
1438.77532	0.04624
1437.48955	0.04617
1436.20378	0.04611
1434.91801	0.04604
1433.63224	0.04604
1432.34647	0.04615
1431.06070	0.04633
1429.77494	0.04660
1428.48917	0.04698
1427.20340	0.04749
1425.91763	0.04808
1424.63186	0.04866
1423.34609	0.04915
1422.06032	0.04961
1420.77455	0.05010
1419.48878	0.05055
1418.20302	0.05089
1416.91725	0.05111
1415.63148	0.05131
1414.34571	0.05147
1413.05994	0.05154
1411.77417	0.05149
1410.48840	0.05131
1409.20263	0.05106
1407.91687	0.05076
1406.63110	0.05042
1405.34533	0.05001
1404.05956	0.04946
1402.77379	0.04879
1401.48802	0.04803
1400.20225	0.04722
1398.91648	0.04637
1397.63071	0.04551
1396.34495	0.04467
1395.05918	0.04378
1393.77341	0.04278
1392.48764	0.04170
1391.20187	0.04066
1389.91610	0.03978
1388.63033	0.03901
1387.34456	0.03824
1386.05880	0.03741
1384.77303	0.03653
1383.48726	0.03570
1382.20149	0.03493
1380.91572	0.03421
1379.62995	0.03351
1378.34418	0.03279
1377.05841	0.03204
1375.77264	0.03126
1374.48688	0.03044
1373.20111	0.02959
1371.91534	0.02874
1370.62957	0.02796
1369.34380	0.02726
1368.05803	0.02659
1366.77226	0.02593
1365.48649	0.02530
1364.20073	0.02471
1362.91496	0.02416
1361.62919	0.02364
1360.34342	0.02316
1359.05765	0.02274
1357.77188	0.02237
1356.48611	0.02202
1355.20034	0.02168
1353.91457	0.02137
1352.62881	0.02106
1351.34304	0.02074
1350.05727	0.02044
1348.77150	0.02016
1347.48573	0.01993
1346.19996	0.01970
1344.91419	0.01947
1343.62842	0.01924
1342.34266	0.01904
1341.05689	0.01888
1339.77112	0.01872
1338.48535	0.01855
1337.19958	0.01838
1335.91381	0.01823
1334.62804	0.01809
1333.34227	0.01794
1332.05650	0.01779
1330.77074	0.01766
1329.48497	0.01757
1328.19920	0.01750
1326.91343	0.01741
1325.62766	0.01723
1324.34189	0.01701
1323.05612	0.01682
1321.77035	0.01670
1320.48459	0.01664
1319.19882	0.01657
1317.91305	0.01645
1316.62728	0.01631
1315.34151	0.01619
1314.05574	0.01609
1312.76997	0.01600
1311.48420	0.01589
1310.19843	0.01574
1308.91267	0.01559
1307.62690	0.01546
1306.34113	0.01538
1305.05536	0.01536
1303.76959	0.01536
1302.48382	0.01533
1301.19805	0.01525
1299.91228	0.01513
1298.62652	0.01500
1297.34075	0.01485
1296.05498	0.01469
1294.76921	0.01456
1293.48344	0.01450
1292.19767	0.01452
1290.91190	0.01456
1289.62613	0.01459
1288.34036	0.01459
1287.05460	0.01456
1285.76883	0.01452
1284.48306	0.01446
1283.19729	0.01444
1281.91152	0.01448
1280.62575	0.01456
1279.33998	0.01462
1278.05421	0.01460
1276.76845	0.01452
1275.48268	0.01444
1274.19691	0.01441
1272.91114	0.01443
1271.62537	0.01448
1270.33960	0.01454
1269.05383	0.01457
1267.76806	0.01459
1266.48229	0.01458
1265.19653	0.01453
1263.91076	0.01446
1262.62499	0.01438
1261.33922	0.01431
1260.05345	0.01429
1258.76768	0.01432
1257.48191	0.01439
1256.19614	0.01449
1254.91037	0.01460
1253.62461	0.01471
1252.33884	0.01480
1251.05307	0.01487
1249.76730	0.01492
1248.48153	0.01495
1247.19576	0.01499
1245.90999	0.01504
1244.62422	0.01511
1243.33846	0.01518
1242.05269	0.01524
1240.76692	0.01530
1239.48115	0.01538
1238.19538	0.01548
1236.90961	0.01560
1235.62384	0.01569
1234.33807	0.01575
1233.05230	0.01579
1231.76654	0.01581
1230.48077	0.01584
1229.19500	0.01588
1227.90923	0.01593
1226.62346	0.01597
1225.33769	0.01599
1224.05192	0.01602
1222.76615	0.01608
1221.48039	0.01617
1220.19462	0.01631
1218.90885	0.01646
1217.62308	0.01660
1216.33731	0.01672
1215.05154	0.01682
1213.76577	0.01693
1212.48000	0.01708
1211.19423	0.01728
1209.90847	0.01748
1208.62270	0.01766
1207.33693	0.01782
1206.05116	0.01797
1204.76539	0.01811
1203.47962	0.01825
1202.19385	0.01838
1200.90808	0.01855
1199.62232	0.01882
1198.33655	0.01905
1197.05078	0.01930
1195.76501	0.01954
1194.47924	0.01972
1193.19347	0.01987
1191.90770	0.01999
1190.62193	0.02012
1189.33616	0.02025
1188.05040	0.02040
1186.76463	0.02056
1185.47886	0.02073
1184.19309	0.02093
1182.90732	0.02119
1181.62155	0.02147
1180.33578	0.02174
1179.05001	0.02199
1177.76425	0.02226
1176.47848	0.02260
1175.19271	0.02302
1173.90694	0.02350
1172.62117	0.02399
1171.33540	0.02444
1170.04963	0.02483
1168.76386	0.02517
1167.47809	0.02552
1166.19233	0.02588
1164.90656	0.02624
1163.62079	0.02656
1162.33502	0.02681
1161.04925	0.02699
1159.76348	0.02711
1158.47771	0.02719
1157.19194	0.02728
1155.90618	0.02743
1154.62041	0.02765
1153.33464	0.02792
1152.04887	0.02826
1150.76310	0.02866
1149.47733	0.02913
1148.19156	0.02963
1146.90579	0.03009
1145.62002	0.03050
1144.33426	0.03093
1143.04849	0.03144
1141.76272	0.03202
1140.47695	0.03264
1139.19118	0.03323
1137.90541	0.03382
1136.61964	0.03448
1135.33387	0.03525
1134.04811	0.03612
1132.76234	0.03706
1131.47657	0.03807
1130.19080	0.03916
1128.90503	0.04033
1127.61926	0.04156
1126.33349	0.04283
1125.04772	0.04415
1123.76195	0.04552
1122.47619	0.04695
1121.19042	0.04844
1119.90465	0.04998
1118.61888	0.05158
1117.33311	0.05326
1116.04734	0.05505
1114.76157	0.05696
1113.47580	0.05892
1112.19004	0.06083
1110.90427	0.06261
1109.61850	0.06429
1108.33273	0.06598
1107.04696	0.06772
1105.76119	0.06949
1104.47542	0.07128
1103.18965	0.07305
1101.90388	0.07479
1100.61812	0.07644
1099.33235	0.07800
1098.04658	0.07951
1096.76081	0.08101
1095.47504	0.08251
1094.18927	0.08395
1092.90350	0.08530
1091.61773	0.08657
1090.33197	0.08778
1089.04620	0.08891
1087.76043	0.08994
1086.47466	0.09089
1085.18889	0.09181
1083.90312	0.09282
1082.61735	0.09394
1081.33158	0.09516
1080.04581	0.09644
1078.76005	0.09773
1077.47428	0.09902
1076.18851	0.10034
1074.90274	0.10172
1073.61697	0.10314
1072.33120	0.10462
1071.04543	0.10622
1069.75966	0.10798
1068.47390	0.10987
1067.18813	0.11176
1065.90236	0.11357
1064.61659	0.11529
1063.33082	0.11700
1062.04505	0.11875
1060.75928	0.12054
1059.47351	0.12232
1058.18774	0.12405
1056.90198	0.12572
1055.61621	0.12733
1054.33044	0.12891
1053.04467	0.13045
1051.75890	0.13200
1050.47313	0.13354
1049.18736	0.13508
1047.90159	0.13665
1046.61583	0.13826
1045.33006	0.13991
1044.04429	0.14154
1042.75852	0.14313
1041.47275	0.14467
1040.18698	0.14616
1038.90121	0.14760
1037.61544	0.14900
1036.32967	0.15034
1035.04391	0.15164
1033.75814	0.15287
1032.47237	0.15401
1031.18660	0.15502
1029.90083	0.15589
1028.61506	0.15661
1027.32929	0.15717
1026.04352	0.15754
1024.75775	0.15778
1023.47199	0.15793
1022.18622	0.15802
1020.90045	0.15801
1019.61468	0.15778
1018.32891	0.15728
1017.04314	0.15655
1015.75737	0.15573
1014.47160	0.15488
1013.18584	0.15396
1011.90007	0.15287
1010.61430	0.15152
1009.32853	0.14987
1008.04276	0.14797
1006.75699	0.14589
1005.47122	0.14374
1004.18545	0.14153
1002.89968	0.13922
1001.61392	0.13674
1000.32815	0.13411
999.04238	0.13142
997.75661	0.12874
996.47084	0.12611
995.18507	0.12353
993.89930	0.12094
992.61353	0.11830
991.32777	0.11564
990.04200	0.11303
988.75623	0.11051
987.47046	0.10801
986.18469	0.10548
984.89892	0.10296
983.61315	0.10049
982.32738	0.09811
981.04161	0.09585
979.75585	0.09372
978.47008	0.09172
977.18431	0.08982
975.89854	0.08800
974.61277	0.08630
973.32700	0.08475
972.04123	0.08340
970.75546	0.08228
969.46970	0.08141
968.18393	0.08079
966.89816	0.08043
965.61239	0.08031
964.32662	0.08040
963.04085	0.08057
961.75508	0.08065
960.46931	0.08049
959.18354	0.08002
957.89778	0.07926
956.61201	0.07828
955.32624	0.07716
954.04047	0.07595
952.75470	0.07466
951.46893	0.07332
950.18316	0.07200
948.89739	0.07074
947.61163	0.06952
946.32586	0.06833
945.04009	0.06715
943.75432	0.06601
942.46855	0.06489
941.18278	0.06379
939.89701	0.06271
938.61124	0.06167
937.32547	0.06069
936.03971	0.05977
934.75394	0.05891
933.46817	0.05811
932.18240	0.05737
930.89663	0.05669
929.61086	0.05604
928.32509	0.05538
927.03932	0.05474
925.75356	0.05411
924.46779	0.05350
923.18202	0.05292
921.89625	0.05236
920.61048	0.05180
919.32471	0.05123
918.03894	0.05067
916.75317	0.05017
915.46740	0.04972
914.18164	0.04931
912.89587	0.04890
911.61010	0.04843
910.32433	0.04790
909.03856	0.04738
907.75279	0.04697
906.46702	0.04669
905.18125	0.04646
903.89549	0.04612
902.60972	0.04564
901.32395	0.04503
900.03818	0.04439
898.75241	0.04375
897.46664	0.04313
896.18087	0.04259
894.89510	0.04217
893.60933	0.04188
892.32357	0.04171
891.03780	0.04166
889.75203	0.04166
888.46626	0.04161
887.18049	0.04151
885.89472	0.04146
884.60895	0.04169
883.32318	0.04233
882.03742	0.04335
880.75165	0.04455
879.46588	0.04566
878.18011	0.04649
876.89434	0.04706
875.60857	0.04750
874.32280	0.04788
873.03703	0.04812
871.75126	0.04812
870.46550	0.04781
869.17973	0.04719
867.89396	0.04628
866.60819	0.04514
865.32242	0.04386
864.03665	0.04261
862.75088	0.04147
861.46511	0.04043
860.17935	0.03938
858.89358	0.03832
857.60781	0.03737
856.32204	0.03664
855.03627	0.03614
853.75050	0.03577
852.46473	0.03541
851.17896	0.03499
849.89319	0.03452
848.60743	0.03402
847.32166	0.03357
846.03589	0.03321
844.75012	0.03289
843.46435	0.03257
842.17858	0.03220
840.89281	0.03183
839.60704	0.03151
838.32128	0.03125
837.03551	0.03106
835.74974	0.03091
834.46397	0.03072
833.17820	0.03046
831.89243	0.03018
830.60666	0.02993
829.32089	0.02970
828.03512	0.02943
826.74936	0.02916
825.46359	0.02901
824.17782	0.02898
822.89205	0.02897
821.60628	0.02889
820.32051	0.02877
819.03474	0.02866
817.74897	0.02855
816.46321	0.02843
815.17744	0.02832
813.89167	0.02829
812.60590	0.02837
811.32013	0.02856
810.03436	0.02884
808.74859	0.02921
807.46282	0.02969
806.17705	0.03025
804.89129	0.03078
803.60552	0.03124
802.31975	0.03167
801.03398	0.03214
799.74821	0.03265
798.46244	0.03314
797.17667	0.03355
795.89090	0.03383
794.60513	0.03400
793.31937	0.03407
792.03360	0.03406
790.74783	0.03400
789.46206	0.03391
788.17629	0.03383
786.89052	0.03380
785.60475	0.03386
784.31898	0.03401
783.03322	0.03423
781.74745	0.03449
780.46168	0.03475
779.17591	0.03494
777.89014	0.03505
776.60437	0.03507
775.31860	0.03500
774.03283	0.03485
772.74706	0.03463
771.46130	0.03440
770.17553	0.03422
768.88976	0.03407
767.60399	0.03392
766.31822	0.03371
765.03245	0.03346
763.74668	0.03320
762.46091	0.03299
761.17515	0.03285
759.88938	0.03277
758.60361	0.03269
757.31784	0.03260
756.03207	0.03250
754.74630	0.03239
753.46053	0.03227
752.17476	0.03212
750.88899	0.03188
749.60323	0.03159
748.31746	0.03132
747.03169	0.03115
745.74592	0.03104
744.46015	0.03093
743.17438	0.03078
741.88861	0.03059
740.60284	0.03041
739.31708	0.03029
738.03131	0.03026
736.74554	0.03029
735.45977	0.03034
734.17400	0.03037
732.88823	0.03033
731.60246	0.03019
730.31669	0.02999
729.03092	0.02977
727.74516	0.02959
726.45939	0.02943
725.17362	0.02929
723.88785	0.02951
722.60208	0.02908
721.31631	0.02833
720.03054	0.02773
718.74477	0.02740
717.45901	0.02734
716.17324	0.02750
714.88747	0.02775
713.60170	0.02799
712.31593	0.02814
711.03016	0.02822
709.74439	0.02825
708.45862	0.02826
707.17285	0.02826
705.88709	0.02826
704.60132	0.02824
703.31555	0.02820
702.02978	0.02816
700.74401	0.02816
699.45824	0.02818
698.17247	0.02820
696.88670	0.02820
695.60094	0.02820
694.31517	0.02821
693.02940	0.02818
691.74363	0.02806
690.45786	0.02781
689.17209	0.02752
687.88632	0.02727
686.60055	0.02710
685.31478	0.02700
684.02902	0.02695
682.74325	0.02690
681.45748	0.02682
680.17171	0.02670
678.88594	0.02657
677.60017	0.02648
676.31440	0.02641
675.02863	0.02633
673.74287	0.02625
672.45710	0.02624
671.17133	0.02638
669.88556	0.02655
668.59979	0.02626
667.31402	0.02595
666.02825	0.02614
664.74248	0.02580
663.45671	0.02550
662.17095	0.02538
660.88518	0.02533
659.59941	0.02527
658.31364	0.02521
657.02787	0.02516
655.74210	0.02516
654.45633	0.02521
653.17056	0.02531
651.88480	0.02545
650.59903	0.02561
649.31326	0.02575
648.02749	0.02582
646.74172	0.02580
645.45595	0.02569
644.17018	0.02556
642.88441	0.02544
641.59864	0.02541
640.31288	0.02548
639.02711	0.02565
637.74134	0.02589
636.45557	0.02617
635.16980	0.02647
633.88403	0.02677
632.59826	0.02708
631.31249	0.02726
630.02673	0.02696
628.74096	0.02638
627.45519	0.02677
626.16942	0.02597
624.88365	0.02442
623.59788	0.02316
622.31211	0.02290
621.02634	0.02412
619.74057	0.02684
618.45481	0.03050
617.16904	0.03421
615.88327	0.03699
614.59750	0.03820
613.31173	0.03806
612.02596	0.03788
610.74019	0.03933
609.45442	0.04308
608.16866	0.04816
606.88289	0.05294
605.59712	0.05633
604.31135	0.05808
603.02558	0.05851
601.73981	0.05821
600.45404	0.05756
599.16827	0.05661
597.88250	0.05534
596.59674	0.05389
595.31097	0.05251
594.02520	0.05140
592.73943	0.05062
591.45366	0.05014
590.16789	0.04996
588.88212	0.05007
587.59635	0.05042
586.31059	0.05094
585.02482	0.05161
583.73905	0.05244
582.45328	0.05347
581.16751	0.05471
579.88174	0.05613
578.59597	0.05764
577.31020	0.05913
576.02443	0.06054
574.73867	0.06189
573.45290	0.06322
572.16713	0.06451
570.88136	0.06575
569.59559	0.06695
568.30982	0.06820
567.02405	0.06953
565.73828	0.07087
564.45251	0.07201
563.16675	0.07274
561.88098	0.07286
560.59521	0.07226
559.30944	0.07090
558.02367	0.06888
556.73790	0.06643
555.45213	0.06386
554.16636	0.06136
552.88060	0.05901
551.59483	0.05678
550.30906	0.05471
549.02329	0.05289
547.73752	0.05135
546.45175	0.05008
545.16598	0.04896
543.88021	0.04794
542.59444	0.04703
541.30868	0.04628
540.02291	0.04571
538.73714	0.04522
537.45137	0.04470
536.16560	0.04405
534.87983	0.04334
533.59406	0.04271
532.30829	0.04224
531.02253	0.04189
529.73676	0.04154
528.45099	0.04111
527.16522	0.04065
525.87945	0.04023
524.59368	0.03989
523.30791	0.03960
522.02214	0.03930
520.73637	0.03896
519.45061	0.03860
518.16484	0.03822
516.87907	0.03782
515.59330	0.03738
514.30753	0.03690
513.02176	0.03644
511.73599	0.03604
510.45022	0.03576
509.16446	0.03564
507.87869	0.03563
506.59292	0.03563
505.30715	0.03556
504.02138	0.03536
502.73561	0.03509
501.44984	0.03485
500.16407	0.03472
498.87830	0.03477
497.59254	0.03493
496.30677	0.03510
495.02100	0.03513
493.73523	0.03501
492.44946	0.03483
491.16369	0.03471
489.87792	0.03471
488.59215	0.03484
487.30639	0.03509
486.02062	0.03546
484.73485	0.03587
483.44908	0.03628
482.16331	0.03665
480.87754	0.03701
479.59177	0.03740
478.30600	0.03781
477.02023	0.03825
475.73447	0.03873
474.44870	0.03925
473.16293	0.03980
471.87716	0.04026
470.59139	0.04054
469.30562	0.04064
468.01985	0.04067
466.73408	0.04073
465.44832	0.04080
464.16255	0.04082
462.87678	0.04072
461.59101	0.04052
460.30524	0.04027
459.01947	0.04006
457.73370	0.03990
456.44793	0.03973
455.16216	0.03953
453.87640	0.03934
452.59063	0.03921
451.30486	0.03913
450.01909	0.03906
448.73332	0.03895
447.44755	0.03881
446.16178	0.03868
444.87601	0.03858
443.59025	0.03850
442.30448	0.03843
441.01871	0.03835
439.73294	0.03825
438.44717	0.03815
437.16140	0.03807
435.87563	0.03803
434.58986	0.03801
433.30409	0.03800
432.01833	0.03799
430.73256	0.03795
429.44679	0.03788
428.16102	0.03776
426.87525	0.03761
425.58948	0.03742
424.30371	0.03723
423.01794	0.03705
421.73218	0.03691
420.44641	0.03677
419.16064	0.03659
417.87487	0.03632
416.58910	0.03596
415.30333	0.03557
414.01756	0.03519
412.73179	0.03480
411.44602	0.03436
410.16026	0.03386
408.87449	0.03333
407.58872	0.03284
406.30295	0.03246
405.01718	0.03224
403.73141	0.03222
402.44564	0.03245
401.15987	0.03289
399.87411	0.03345
