3997.45528	0.04136
3996.16951	0.04168
3994.88374	0.04171
3993.59798	0.04125
3992.31221	0.04016
3991.02644	0.03872
3989.74067	0.03769
3988.45490	0.03771
3987.16913	0.03863
3985.88336	0.03967
3984.59759	0.04012
3983.31183	0.04003
3982.02606	0.03996
3980.74029	0.04038
3979.45452	0.04114
3978.16875	0.04173
3976.88298	0.04182
3975.59721	0.04145
3974.31144	0.04088
3973.02567	0.04029
3971.73991	0.03977
3970.45414	0.03939
3969.16837	0.03920
3967.88260	0.03924
3966.59683	0.03949
3965.31106	0.03978
3964.02529	0.03984
3962.73952	0.03968
3961.45376	0.03958
3960.16799	0.03969
3958.88222	0.03973
3957.59645	0.03943
3956.31068	0.03900
3955.02491	0.03903
3953.73914	0.03979
3952.45337	0.04092
3951.16760	0.04183
3949.88184	0.04228
3948.59607	0.04248
3947.31030	0.04263
3946.02453	0.04259
3944.73876	0.04215
3943.45299	0.04151
3942.16722	0.04126
3940.88145	0.04169
3939.59569	0.04241
3938.30992	0.04275
3937.02415	0.04232
3935.73838	0.04124
3934.45261	0.03987
3933.16684	0.03857
3931.88107	0.03767
3930.59530	0.03733
3929.30953	0.03750
3928.02377	0.03799
3926.73800	0.03856
3925.45223	0.03910
3924.16646	0.03960
3922.88069	0.04000
3921.59492	0.04012
3920.30915	0.03983
3919.02338	0.03914
3917.73762	0.03827
3916.45185	0.03771
3915.16608	0.03791
3913.88031	0.03893
3912.59454	0.04039
3911.30877	0.04165
3910.02300	0.04217
3908.73723	0.04186
3907.45146	0.04105
3906.16570	0.04021
3904.87993	0.03968
3903.59416	0.03943
3902.30839	0.03920
3901.02262	0.03893
3899.73685	0.03890
3898.45108	0.03935
3897.16531	0.03998
3895.87955	0.04016
3894.59378	0.03970
3893.30801	0.03907
3892.02224	0.03892
3890.73647	0.03950
3889.45070	0.04044
3888.16493	0.04103
3886.87916	0.04096
3885.59339	0.04045
3884.30763	0.03970
3883.02186	0.03882
3881.73609	0.03807
3880.45032	0.03786
3879.16455	0.03829
3877.87878	0.03893
3876.59301	0.03941
3875.30724	0.03968
3874.02148	0.03976
3872.73571	0.03946
3871.44994	0.03885
3870.16417	0.03850
3868.87840	0.03877
3867.59263	0.03907
3866.30686	0.03876
3865.02109	0.03810
3863.73532	0.03776
3862.44956	0.03796
3861.16379	0.03851
3859.87802	0.03918
3858.59225	0.03965
3857.30648	0.03957
3856.02071	0.03893
3854.73494	0.03839
3853.44917	0.03870
3852.16341	0.03961
3850.87764	0.04010
3849.59187	0.03963
3848.30610	0.03870
3847.02033	0.03810
3845.73456	0.03811
3844.44879	0.03844
3843.16302	0.03858
3841.87725	0.03822
3840.59149	0.03727
3839.30572	0.03608
3838.01995	0.03527
3836.73418	0.03528
3835.44841	0.03590
3834.16264	0.03669
3832.87687	0.03754
3831.59110	0.03860
3830.30534	0.03975
3829.01957	0.04044
3827.73380	0.04024
3826.44803	0.03937
3825.16226	0.03852
3823.87649	0.03812
3822.59072	0.03813
3821.30495	0.03835
3820.01918	0.03851
3818.73342	0.03823
3817.44765	0.03745
3816.16188	0.03672
3814.87611	0.03654
3813.59034	0.03666
3812.30457	0.03665
3811.01880	0.03639
3809.73303	0.03606
3808.44726	0.03590
3807.16150	0.03618
3805.87573	0.03688
3804.58996	0.03742
3803.30419	0.03737
3802.01842	0.03706
3800.73265	0.03700
3799.44688	0.03715
3798.16111	0.03711
3796.87535	0.03693
3795.58958	0.03677
3794.30381	0.03650
3793.01804	0.03591
3791.73227	0.03520
3790.44650	0.03474
3789.16073	0.03472
3787.87496	0.03503
3786.58919	0.03540
3785.30343	0.03557
3784.01766	0.03554
3782.73189	0.03551
3781.44612	0.03565
3780.16035	0.03597
3778.87458	0.03625
3777.58881	0.03626
3776.30304	0.03605
3775.01728	0.03594
3773.73151	0.03617
3772.44574	0.03670
3771.15997	0.03734
3769.87420	0.03783
3768.58843	0.03788
3767.30266	0.03737
3766.01689	0.03667
3764.73112	0.03626
3763.44536	0.03605
3762.15959	0.03559
3760.87382	0.03476
3759.58805	0.03394
3758.30228	0.03342
3757.01651	0.03322
3755.73074	0.03318
3754.44497	0.03318
3753.15921	0.03333
3751.87344	0.03379
3750.58767	0.03461
3749.30190	0.03568
3748.01613	0.03670
3746.73036	0.03713
3745.44459	0.03673
3744.15882	0.03602
3742.87305	0.03546
3741.58729	0.03499
3740.30152	0.03455
3739.01575	0.03414
3737.72998	0.03372
3736.44421	0.03343
3735.15844	0.03351
3733.87267	0.03388
3732.58690	0.03419
3731.30114	0.03426
3730.01537	0.03416
3728.72960	0.03409
3727.44383	0.03431
3726.15806	0.03496
3724.87229	0.03584
3723.58652	0.03672
3722.30075	0.03745
3721.01498	0.03792
3719.72922	0.03802
3718.44345	0.03774
3717.15768	0.03727
3715.87191	0.03677
3714.58614	0.03633
3713.30037	0.03611
3712.01460	0.03615
3710.72883	0.03630
3709.44307	0.03626
3708.15730	0.03586
3706.87153	0.03519
3705.58576	0.03437
3704.29999	0.03363
3703.01422	0.03312
3701.72845	0.03285
3700.44268	0.03269
3699.15691	0.03258
3697.87115	0.03244
3696.58538	0.03236
3695.29961	0.03263
3694.01384	0.03340
3692.72807	0.03439
3691.44230	0.03530
3690.15653	0.03599
3688.87076	0.03644
3687.58500	0.03691
3686.29923	0.03756
3685.01346	0.03811
3683.72769	0.03833
3682.44192	0.03825
3681.15615	0.03782
3679.87038	0.03705
3678.58461	0.03597
3677.29884	0.03466
3676.01308	0.03378
3674.72731	0.03398
3673.44154	0.03510
3672.15577	0.03642
3670.87000	0.03741
3669.58423	0.03790
3668.29846	0.03774
3667.01269	0.03696
3665.72693	0.03613
3664.44116	0.03575
3663.15539	0.03582
3661.86962	0.03595
3660.58385	0.03587
3659.29808	0.03557
3658.01231	0.03531
3656.72654	0.03534
3655.44077	0.03567
3654.15501	0.03595
3652.86924	0.03590
3651.58347	0.03570
3650.29770	0.03578
3649.01193	0.03633
3647.72616	0.03710
3646.44039	0.03764
3645.15462	0.03772
3643.86886	0.03756
3642.58309	0.03759
3641.29732	0.03791
3640.01155	0.03824
3638.72578	0.03834
3637.44001	0.03836
3636.15424	0.03854
3634.86847	0.03898
3633.58270	0.03949
3632.29694	0.03990
3631.01117	0.04025
3629.72540	0.04081
3628.43963	0.04166
3627.15386	0.04242
3625.86809	0.04269
3624.58232	0.04265
3623.29655	0.04270
3622.01079	0.04283
3620.72502	0.04287
3619.43925	0.04293
3618.15348	0.04331
3616.86771	0.04397
3615.58194	0.04454
3614.29617	0.04476
3613.01040	0.04479
3611.72463	0.04494
3610.43887	0.04532
3609.15310	0.04565
3607.86733	0.04550
3606.58156	0.04464
3605.29579	0.04342
3604.01002	0.04252
3602.72425	0.04240
3601.43848	0.04293
3600.15272	0.04377
3598.86695	0.04478
3597.58118	0.04586
3596.29541	0.04669
3595.00964	0.04709
3593.72387	0.04729
3592.43810	0.04762
3591.15233	0.04809
3589.86656	0.04843
3588.58080	0.04839
3587.29503	0.04804
3586.00926	0.04781
3584.72349	0.04810
3583.43772	0.04883
3582.15195	0.04966
3580.86618	0.05029
3579.58041	0.05053
3578.29464	0.05036
3577.00888	0.04995
3575.72311	0.04951
3574.43734	0.04929
3573.15157	0.04944
3571.86580	0.04989
3570.58003	0.05053
3569.29426	0.05127
3568.00849	0.05199
3566.72273	0.05254
3565.43696	0.05277
3564.15119	0.05277
3562.86542	0.05281
3561.57965	0.05304
3560.29388	0.05343
3559.00811	0.05386
3557.72234	0.05431
3556.43657	0.05476
3555.15081	0.05512
3553.86504	0.05538
3552.57927	0.05563
3551.29350	0.05606
3550.00773	0.05660
3548.72196	0.05698
3547.43619	0.05700
3546.15042	0.05673
3544.86466	0.05648
3543.57889	0.05651
3542.29312	0.05684
3541.00735	0.05716
3539.72158	0.05713
3538.43581	0.05667
3537.15004	0.05608
3535.86427	0.05579
3534.57850	0.05601
3533.29274	0.05667
3532.00697	0.05756
3530.72120	0.05851
3529.43543	0.05929
3528.14966	0.05967
3526.86389	0.05959
3525.57812	0.05921
3524.29235	0.05888
3523.00659	0.05885
3521.72082	0.05912
3520.43505	0.05949
3519.14928	0.05981
3517.86351	0.06011
3516.57774	0.06045
3515.29197	0.06081
3514.00620	0.06111
3512.72043	0.06126
3511.43467	0.06129
3510.14890	0.06121
3508.86313	0.06102
3507.57736	0.06073
3506.29159	0.06048
3505.00582	0.06041
3503.72005	0.06051
3502.43428	0.06060
3501.14852	0.06063
3499.86275	0.06083
3498.57698	0.06139
3497.29121	0.06226
3496.00544	0.06316
3494.71967	0.06383
3493.43390	0.06416
3492.14813	0.06419
3490.86236	0.06402
3489.57660	0.06375
3488.29083	0.06351
3487.00506	0.06342
3485.71929	0.06355
3484.43352	0.06379
3483.14775	0.06390
3481.86198	0.06376
3480.57621	0.06357
3479.29045	0.06371
3478.00468	0.06429
3476.71891	0.06503
3475.43314	0.06555
3474.14737	0.06579
3472.86160	0.06593
3471.57583	0.06609
3470.29006	0.06627
3469.00429	0.06644
3467.71853	0.06659
3466.43276	0.06671
3465.14699	0.06679
3463.86122	0.06688
3462.57545	0.06711
3461.28968	0.06755
3460.00391	0.06814
3458.71814	0.06865
3457.43238	0.06882
3456.14661	0.06854
3454.86084	0.06806
3453.57507	0.06779
3452.28930	0.06799
3451.00353	0.06863
3449.71776	0.06947
3448.43199	0.07024
3447.14622	0.07073
3445.86046	0.07091
3444.57469	0.07090
3443.28892	0.07083
3442.00315	0.07071
3440.71738	0.07044
3439.43161	0.07000
3438.14584	0.06952
3436.86007	0.06916
3435.57431	0.06910
3434.28854	0.06955
3433.00277	0.07052
3431.71700	0.07166
3430.43123	0.07243
3429.14546	0.07249
3427.85969	0.07198
3426.57392	0.07135
3425.28815	0.07102
3424.00239	0.07110
3422.71662	0.07135
3421.43085	0.07138
3420.14508	0.07103
3418.85931	0.07058
3417.57354	0.07048
3416.28777	0.07089
3415.00200	0.07153
3413.71624	0.07202
3412.43047	0.07222
3411.14470	0.07235
3409.85893	0.07261
3408.57316	0.07306
3407.28739	0.07351
3406.00162	0.07378
3404.71585	0.07379
3403.43008	0.07364
3402.14432	0.07353
3400.85855	0.07364
3399.57278	0.07400
3398.28701	0.07437
3397.00124	0.07447
3395.71547	0.07426
3394.42970	0.07394
3393.14393	0.07380
3391.85817	0.07403
3390.57240	0.07449
3389.28663	0.07489
3388.00086	0.07497
3386.71509	0.07477
3385.42932	0.07452
3384.14355	0.07437
3382.85778	0.07432
3381.57201	0.07438
3380.28625	0.07455
3379.00048	0.07483
3377.71471	0.07513
3376.42894	0.07537
3375.14317	0.07553
3373.85740	0.07567
3372.57163	0.07585
3371.28586	0.07607
3370.00010	0.07627
3368.71433	0.07637
3367.42856	0.07635
3366.14279	0.07621
3364.85702	0.07597
3363.57125	0.07566
3362.28548	0.07537
3360.99971	0.07520
3359.71394	0.07508
3358.42818	0.07488
3357.14241	0.07461
3355.85664	0.07452
3354.57087	0.07495
3353.28510	0.07590
3351.99933	0.07691
3350.71356	0.07741
3349.42779	0.07722
3348.14202	0.07662
3346.85626	0.07605
3345.57049	0.07574
3344.28472	0.07561
3342.99895	0.07542
3341.71318	0.07506
3340.42741	0.07470
3339.14164	0.07473
3337.85587	0.07533
3336.57011	0.07619
3335.28434	0.07674
3333.99857	0.07662
3332.71280	0.07598
3331.42703	0.07528
3330.14126	0.07484
3328.85549	0.07463
3327.56972	0.07446
3326.28395	0.07433
3324.99819	0.07433
3323.71242	0.07447
3322.42665	0.07466
3321.14088	0.07482
3319.85511	0.07496
3318.56934	0.07508
3317.28357	0.07517
3315.99780	0.07516
3314.71204	0.07495
3313.42627	0.07451
3312.14050	0.07395
3310.85473	0.07348
3309.56896	0.07329
3308.28319	0.07337
3306.99742	0.07352
3305.71165	0.07359
3304.42588	0.07361
3303.14012	0.07367
3301.85435	0.07387
3300.56858	0.07427
3299.28281	0.07487
3297.99704	0.07552
3296.71127	0.07587
3295.42550	0.07567
3294.13973	0.07504
3292.85397	0.07430
3291.56820	0.07368
3290.28243	0.07328
3288.99666	0.07314
3287.71089	0.07329
3286.42512	0.07359
3285.13935	0.07376
3283.85358	0.07367
3282.56781	0.07339
3281.28205	0.07320
3279.99628	0.07331
3278.71051	0.07374
3277.42474	0.07433
3276.13897	0.07486
3274.85320	0.07510
3273.56743	0.07490
3272.28166	0.07429
3270.99590	0.07351
3269.71013	0.07287
3268.42436	0.07260
3267.13859	0.07275
3265.85282	0.07323
3264.56705	0.07382
3263.28128	0.07422
3261.99551	0.07419
3260.70974	0.07376
3259.42398	0.07307
3258.13821	0.07236
3256.85244	0.07181
3255.56667	0.07160
3254.28090	0.07184
3252.99513	0.07237
3251.70936	0.07284
3250.42359	0.07293
3249.13783	0.07259
3247.85206	0.07205
3246.56629	0.07162
3245.28052	0.07150
3243.99475	0.07170
3242.70898	0.07204
3241.42321	0.07231
3240.13744	0.07240
3238.85167	0.07227
3237.56591	0.07194
3236.28014	0.07138
3234.99437	0.07061
3233.70860	0.06983
3232.42283	0.06934
3231.13706	0.06934
3229.85129	0.06977
3228.56552	0.07038
3227.27976	0.07095
3225.99399	0.07142
3224.70822	0.07177
3223.42245	0.07189
3222.13668	0.07178
3220.85091	0.07157
3219.56514	0.07148
3218.27937	0.07160
3216.99360	0.07180
3215.70784	0.07187
3214.42207	0.07169
3213.13630	0.07135
3211.85053	0.07103
3210.56476	0.07092
3209.27899	0.07104
3207.99322	0.07122
3206.70745	0.07123
3205.42169	0.07109
3204.13592	0.07102
3202.85015	0.07115
3201.56438	0.07131
3200.27861	0.07125
3198.99284	0.07095
3197.70707	0.07059
3196.42130	0.07026
3195.13553	0.06996
3193.84977	0.06975
3192.56400	0.06969
3191.27823	0.06970
3189.99246	0.06955
3188.70669	0.06916
3187.42092	0.06871
3186.13515	0.06844
3184.84938	0.06838
3183.56362	0.06843
3182.27785	0.06846
3180.99208	0.06840
3179.70631	0.06825
3178.42054	0.06805
3177.13477	0.06785
3175.84900	0.06775
3174.56323	0.06780
3173.27746	0.06790
3171.99170	0.06785
3170.70593	0.06752
3169.42016	0.06706
3168.13439	0.06684
3166.84862	0.06709
3165.56285	0.06762
3164.27708	0.06799
3162.99131	0.06794
3161.70555	0.06763
3160.41978	0.06745
3159.13401	0.06763
3157.84824	0.06803
3156.56247	0.06833
3155.27670	0.06832
3153.99093	0.06800
3152.70516	0.06749
3151.41939	0.06692
3150.13363	0.06643
3148.84786	0.06617
3147.56209	0.06622
3146.27632	0.06644
3144.99055	0.06657
3143.70478	0.06653
3142.41901	0.06641
3141.13324	0.06634
3139.84748	0.06632
3138.56171	0.06620
3137.27594	0.06586
3135.99017	0.06536
3134.70440	0.06492
3133.41863	0.06475
3132.13286	0.06489
3130.84709	0.06514
3129.56132	0.06522
3128.27556	0.06497
3126.98979	0.06447
3125.70402	0.06396
3124.41825	0.06366
3123.13248	0.06359
3121.84671	0.06361
3120.56094	0.06356
3119.27517	0.06350
3117.98940	0.06359
3116.70364	0.06384
3115.41787	0.06408
3114.13210	0.06410
3112.84633	0.06384
3111.56056	0.06345
3110.27479	0.06315
3108.98902	0.06311
3107.70325	0.06331
3106.41749	0.06362
3105.13172	0.06388
3103.84595	0.06399
3102.56018	0.06386
3101.27441	0.06351
3099.98864	0.06308
3098.70287	0.06271
3097.41710	0.06246
3096.13133	0.06227
3094.84557	0.06215
3093.55980	0.06211
3092.27403	0.06208
3090.98826	0.06199
3089.70249	0.06185
3088.41672	0.06173
3087.13095	0.06161
3085.84518	0.06139
3084.55942	0.06100
3083.27365	0.06050
3081.98788	0.06008
3080.70211	0.05987
3079.41634	0.05992
3078.13057	0.06011
3076.84480	0.06027
3075.55903	0.06028
3074.27326	0.06020
3072.98750	0.06013
3071.70173	0.06007
3070.41596	0.05996
3069.13019	0.05979
3067.84442	0.05964
3066.55865	0.05958
3065.27288	0.05955
3063.98711	0.05943
3062.70135	0.05915
3061.41558	0.05877
3060.12981	0.05847
3058.84404	0.05840
3057.55827	0.05858
3056.27250	0.05895
3054.98673	0.05938
3053.70096	0.05971
3052.41519	0.05976
3051.12943	0.05946
3049.84366	0.05899
3048.55789	0.05858
3047.27212	0.05836
3045.98635	0.05830
3044.70058	0.05829
3043.41481	0.05819
3042.12904	0.05791
3040.84328	0.05753
3039.55751	0.05724
3038.27174	0.05720
3036.98597	0.05739
3035.70020	0.05760
3034.41443	0.05766
3033.12866	0.05754
3031.84289	0.05732
3030.55712	0.05712
3029.27136	0.05701
3027.98559	0.05698
3026.69982	0.05692
3025.41405	0.05671
3024.12828	0.05633
3022.84251	0.05588
3021.55674	0.05556
3020.27097	0.05549
3018.98521	0.05564
3017.69944	0.05578
3016.41367	0.05568
3015.12790	0.05538
3013.84213	0.05510
3012.55636	0.05500
3011.27059	0.05503
3009.98482	0.05509
3008.69905	0.05510
3007.41329	0.05511
3006.12752	0.05512
3004.84175	0.05511
3003.55598	0.05503
3002.27021	0.05487
3000.98444	0.05472
2999.69867	0.05466
2998.41290	0.05461
2997.12714	0.05454
2995.84137	0.05442
2994.55560	0.05424
2993.26983	0.05414
2991.98406	0.05425
2990.69829	0.05461
2989.41252	0.05508
2988.12675	0.05547
2986.84098	0.05564
2985.55522	0.05558
2984.26945	0.05533
2982.98368	0.05503
2981.69791	0.05491
2980.41214	0.05519
2979.12637	0.05586
2977.84060	0.05670
2976.55483	0.05748
2975.26907	0.05814
2973.98330	0.05870
2972.69753	0.05915
2971.41176	0.05947
2970.12599	0.05974
2968.84022	0.06016
2967.55445	0.06089
2966.26868	0.06193
2964.98291	0.06312
2963.69715	0.06428
2962.41138	0.06531
2961.12561	0.06623
2959.83984	0.06706
2958.55407	0.06776
2957.26830	0.06826
2955.98253	0.06850
2954.69676	0.06847
2953.41100	0.06825
2952.12523	0.06801
2950.83946	0.06787
2949.55369	0.06781
2948.26792	0.06777
2946.98215	0.06778
2945.69638	0.06792
2944.41061	0.06819
2943.12484	0.06842
2941.83908	0.06851
2940.55331	0.06850
2939.26754	0.06857
2937.98177	0.06888
2936.69600	0.06946
2935.41023	0.07023
2934.12446	0.07112
2932.83869	0.07197
2931.55293	0.07264
2930.26716	0.07304
2928.98139	0.07325
2927.69562	0.07345
2926.40985	0.07376
2925.12408	0.07415
2923.83831	0.07448
2922.55254	0.07457
2921.26677	0.07437
2919.98101	0.07392
2918.69524	0.07330
2917.40947	0.07253
2916.12370	0.07162
2914.83793	0.07061
2913.55216	0.06961
2912.26639	0.06866
2910.98062	0.06773
2909.69486	0.06687
2908.40909	0.06613
2907.12332	0.06553
2905.83755	0.06501
2904.55178	0.06455
2903.26601	0.06422
2901.98024	0.06400
2900.69447	0.06372
2899.40870	0.06321
2898.12294	0.06259
2896.83717	0.06208
2895.55140	0.06180
2894.26563	0.06158
2892.97986	0.06121
2891.69409	0.06064
2890.40832	0.05997
2889.12255	0.05936
2887.83678	0.05886
2886.55102	0.05850
2885.26525	0.05825
2883.97948	0.05811
2882.69371	0.05812
2881.40794	0.05832
2880.12217	0.05864
2878.83640	0.05891
2877.55063	0.05906
2876.26487	0.05912
2874.97910	0.05919
2873.69333	0.05930
2872.40756	0.05941
2871.12179	0.05950
2869.83602	0.05955
2868.55025	0.05954
2867.26448	0.05947
2865.97871	0.05933
2864.69295	0.05911
2863.40718	0.05889
2862.12141	0.05875
2860.83564	0.05873
2859.54987	0.05875
2858.26410	0.05875
2856.97833	0.05873
2855.69256	0.05868
2854.40680	0.05851
2853.12103	0.05815
2851.83526	0.05765
2850.54949	0.05710
2849.26372	0.05656
2847.97795	0.05600
2846.69218	0.05541
2845.40641	0.05481
2844.12064	0.05424
2842.83488	0.05366
2841.54911	0.05303
2840.26334	0.05230
2838.97757	0.05149
2837.69180	0.05066
2836.40603	0.04986
2835.12026	0.04916
2833.83449	0.04860
2832.54873	0.04812
2831.26296	0.04765
2829.97719	0.04713
2828.69142	0.04657
2827.40565	0.04601
2826.11988	0.04554
2824.83411	0.04524
2823.54834	0.04512
2822.26257	0.04510
2820.97681	0.04510
2819.69104	0.04513
2818.40527	0.04521
2817.11950	0.04527
2815.83373	0.04515
2814.54796	0.04480
2813.26219	0.04437
2811.97642	0.04404
2810.69066	0.04393
2809.40489	0.04398
2808.11912	0.04404
2806.83335	0.04401
2805.54758	0.04389
2804.26181	0.04372
2802.97604	0.04353
2801.69027	0.04329
2800.40450	0.04294
2799.11874	0.04253
2797.83297	0.04220
2796.54720	0.04205
2795.26143	0.04207
2793.97566	0.04220
2792.68989	0.04238
2791.40412	0.04257
2790.11835	0.04268
2788.83259	0.04261
2787.54682	0.04237
2786.26105	0.04209
2784.97528	0.04187
2783.68951	0.04173
2782.40374	0.04163
2781.11797	0.04155
2779.83220	0.04153
2778.54643	0.04154
2777.26067	0.04149
2775.97490	0.04136
2774.68913	0.04126
2773.40336	0.04125
2772.11759	0.04123
2770.83182	0.04106
2769.54605	0.04075
2768.26028	0.04046
2766.97452	0.04032
2765.68875	0.04029
2764.40298	0.04029
2763.11721	0.04027
2761.83144	0.04027
2760.54567	0.04033
2759.25990	0.04040
2757.97413	0.04038
2756.68836	0.04021
2755.40260	0.03998
2754.11683	0.03986
2752.83106	0.03995
2751.54529	0.04013
2750.25952	0.04017
2748.97375	0.03991
2747.68798	0.03947
2746.40221	0.03913
2745.11645	0.03907
2743.83068	0.03924
2742.54491	0.03943
2741.25914	0.03946
2739.97337	0.03933
2738.68760	0.03919
2737.40183	0.03920
2736.11606	0.03937
2734.83029	0.03956
2733.54453	0.03958
2732.25876	0.03941
2730.97299	0.03916
2729.68722	0.03897
2728.40145	0.03887
2727.11568	0.03881
2725.82991	0.03873
2724.54414	0.03853
2723.25838	0.03822
2721.97261	0.03792
2720.68684	0.03778
2719.40107	0.03782
2718.11530	0.03793
2716.82953	0.03801
2715.54376	0.03800
2714.25799	0.03791
2712.97222	0.03773
2711.68646	0.03754
2710.40069	0.03740
2709.11492	0.03731
2707.82915	0.03722
2706.54338	0.03713
2705.25761	0.03708
2703.97184	0.03706
2702.68607	0.03702
2701.40031	0.03697
2700.11454	0.03699
2698.82877	0.03714
2697.54300	0.03731
2696.25723	0.03731
2694.97146	0.03709
2693.68569	0.03679
2692.39992	0.03657
2691.11415	0.03644
2689.82839	0.03634
2688.54262	0.03616
2687.25685	0.03592
2685.97108	0.03573
2684.68531	0.03566
2683.39954	0.03571
2682.11377	0.03578
2680.82800	0.03584
2679.54224	0.03589
2678.25647	0.03592
2676.97070	0.03589
2675.68493	0.03581
2674.39916	0.03567
2673.11339	0.03549
2671.82762	0.03530
2670.54185	0.03514
2669.25608	0.03511
2667.97032	0.03524
2666.68455	0.03547
2665.39878	0.03563
2664.11301	0.03562
2662.82724	0.03542
2661.54147	0.03513
2660.25570	0.03483
2658.96993	0.03461
2657.68417	0.03447
2656.39840	0.03440
2655.11263	0.03438
2653.82686	0.03435
2652.54109	0.03420
2651.25532	0.03388
2649.96955	0.03348
2648.68378	0.03317
2647.39801	0.03300
2646.11225	0.03291
2644.82648	0.03282
2643.54071	0.03272
2642.25494	0.03258
2640.96917	0.03241
2639.68340	0.03226
2638.39763	0.03222
2637.11186	0.03227
2635.82609	0.03225
2634.54033	0.03204
2633.25456	0.03171
2631.96879	0.03146
2630.68302	0.03140
2629.39725	0.03150
2628.11148	0.03169
2626.82571	0.03188
2625.53994	0.03197
2624.25418	0.03187
2622.96841	0.03159
2621.68264	0.03124
2620.39687	0.03097
2619.11110	0.03076
2617.82533	0.03057
2616.53956	0.03040
2615.25379	0.03033
2613.96802	0.03033
2612.68226	0.03036
2611.39649	0.03037
2610.11072	0.03039
2608.82495	0.03042
2607.53918	0.03043
2606.25341	0.03039
2604.96764	0.03028
2603.68187	0.03015
2602.39611	0.03005
2601.11034	0.02995
2599.82457	0.02968
2598.53880	0.02908
2597.25303	0.02831
2595.96726	0.02776
2594.68149	0.02765
2593.39572	0.02792
2592.10995	0.02825
2590.82419	0.02840
2589.53842	0.02833
2588.25265	0.02822
2586.96688	0.02819
2585.68111	0.02817
2584.39534	0.02800
2583.10957	0.02772
2581.82380	0.02757
2580.53804	0.02763
2579.25227	0.02774
2577.96650	0.02773
2576.68073	0.02759
2575.39496	0.02744
2574.10919	0.02736
2572.82342	0.02732
2571.53765	0.02728
2570.25188	0.02727
2568.96612	0.02732
2567.68035	0.02743
2566.39458	0.02755
2565.10881	0.02761
2563.82304	0.02752
2562.53727	0.02718
2561.25150	0.02668
2559.96573	0.02632
2558.67997	0.02637
2557.39420	0.02681
2556.10843	0.02734
2554.82266	0.02764
2553.53689	0.02761
2552.25112	0.02739
2550.96535	0.02711
2549.67958	0.02682
2548.39381	0.02656
2547.10805	0.02639
2545.82228	0.02630
2544.53651	0.02625
2543.25074	0.02618
2541.96497	0.02614
2540.67920	0.02622
2539.39343	0.02644
2538.10766	0.02659
2536.82190	0.02644
2535.53613	0.02592
2534.25036	0.02535
2532.96459	0.02517
2531.67882	0.02553
2530.39305	0.02616
2529.10728	0.02668
2527.82151	0.02690
2526.53574	0.02681
2525.24998	0.02647
2523.96421	0.02595
2522.67844	0.02537
2521.39267	0.02492
2520.10690	0.02482
2518.82113	0.02512
2517.53536	0.02565
2516.24959	0.02609
2514.96383	0.02625
2513.67806	0.02618
2512.39229	0.02603
2511.10652	0.02588
2509.82075	0.02575
2508.53498	0.02559
2507.24921	0.02541
2505.96344	0.02531
2504.67767	0.02540
2503.39191	0.02559
2502.10614	0.02560
2500.82037	0.02526
2499.53460	0.02471
2498.24883	0.02433
2496.96306	0.02431
2495.67729	0.02455
2494.39152	0.02475
2493.10576	0.02474
2491.81999	0.02462
2490.53422	0.02453
2489.24845	0.02454
2487.96268	0.02468
2486.67691	0.02496
2485.39114	0.02537
2484.10537	0.02571
2482.81960	0.02572
2481.53384	0.02533
2480.24807	0.02472
2478.96230	0.02417
2477.67653	0.02389
2476.39076	0.02388
2475.10499	0.02403
2473.81922	0.02418
2472.53345	0.02430
2471.24769	0.02444
2469.96192	0.02459
2468.67615	0.02469
2467.39038	0.02469
2466.10461	0.02462
2464.81884	0.02458
2463.53307	0.02461
2462.24730	0.02462
2460.96153	0.02449
2459.67577	0.02433
2458.39000	0.02439
2457.10423	0.02474
2455.81846	0.02513
2454.53269	0.02524
2453.24692	0.02504
2451.96115	0.02465
2450.67538	0.02425
2449.38962	0.02403
2448.10385	0.02421
2446.81808	0.02480
2445.53231	0.02539
2444.24654	0.02552
2442.96077	0.02507
2441.67500	0.02432
2440.38923	0.02369
2439.10346	0.02340
2437.81770	0.02342
2436.53193	0.02353
2435.24616	0.02353
2433.96039	0.02347
2432.67462	0.02357
2431.38885	0.02390
2430.10308	0.02428
2428.81731	0.02440
2427.53155	0.02416
2426.24578	0.02369
2424.96001	0.02322
2423.67424	0.02295
2422.38847	0.02296
2421.10270	0.02317
2419.81693	0.02342
2418.53116	0.02360
2417.24539	0.02368
2415.95963	0.02364
2414.67386	0.02348
2413.38809	0.02323
2412.10232	0.02304
2410.81655	0.02307
2409.53078	0.02332
2408.24501	0.02360
2406.95924	0.02368
2405.67347	0.02353
2404.38771	0.02330
2403.10194	0.02319
2401.81617	0.02322
2400.53040	0.02330
2399.24463	0.02324
2397.95886	0.02332
2396.67309	0.02338
2395.38732	0.02332
2394.10156	0.02317
2392.81579	0.02299
2391.53002	0.02288
2390.24425	0.02289
2388.95848	0.02300
2387.67271	0.02314
2386.38694	0.02323
2385.10117	0.02326
2383.81540	0.02327
2382.52964	0.02331
2381.24387	0.02341
2379.95810	0.02355
2378.67233	0.02368
2377.38656	0.02377
2376.10079	0.02382
2374.81502	0.02399
2373.52925	0.02414
2372.24349	0.02424
2370.95772	0.02409
2369.67195	0.02408
2368.38618	0.02431
2367.10041	0.02475
2365.81464	0.02508
2364.52887	0.02562
2363.24310	0.02618
2361.95733	0.02660
2360.67157	0.02665
2359.38580	0.02697
2358.10003	0.02738
2356.81426	0.02763
2355.52849	0.02769
2354.24272	0.02759
2352.95695	0.02741
2351.67118	0.02670
2350.38542	0.02563
2349.09965	0.02509
2347.81388	0.02541
2346.52811	0.02530
2345.24234	0.02469
2343.95657	0.02470
2342.67080	0.02565
2341.38503	0.02571
2340.09926	0.02465
2338.81350	0.02498
2337.52773	0.02673
2336.24196	0.02668
2334.95619	0.02531
2333.67042	0.02603
2332.38465	0.02815
2331.09888	0.02738
2329.81311	0.02626
2328.52735	0.02785
2327.24158	0.02730
2325.95581	0.02550
2324.67004	0.02615
2323.38427	0.02583
2322.09850	0.02398
2320.81273	0.02443
2319.52696	0.02417
2318.24119	0.02335
2316.95543	0.02397
2315.66966	0.02357
2314.38389	0.02272
2313.09812	0.02272
2311.81235	0.02223
2310.52658	0.02226
2309.24081	0.02245
2307.95504	0.02227
2306.66928	0.02251
2305.38351	0.02237
2304.09774	0.02206
2302.81197	0.02182
2301.52620	0.02151
2300.24043	0.02149
2298.95466	0.02141
2297.66889	0.02132
2296.38312	0.02133
2295.09736	0.02146
2293.81159	0.02171
2292.52582	0.02179
2291.24005	0.02169
2289.95428	0.02146
2288.66851	0.02118
2287.38274	0.02086
2286.09697	0.02052
2284.81121	0.02030
2283.52544	0.02025
2282.23967	0.02021
2280.95390	0.01998
2279.66813	0.01960
2278.38236	0.01931
2277.09659	0.01932
2275.81082	0.01958
2274.52505	0.01991
2273.23929	0.02010
2271.95352	0.01999
2270.66775	0.01956
2269.38198	0.01899
2268.09621	0.01849
2266.81044	0.01809
2265.52467	0.01770
2264.23890	0.01735
2262.95314	0.01706
2261.66737	0.01684
2260.38160	0.01674
2259.09583	0.01676
2257.81006	0.01679
2256.52429	0.01684
2255.23852	0.01697
2253.95275	0.01710
2252.66698	0.01710
2251.38122	0.01689
2250.09545	0.01631
2248.80968	0.01536
2247.52391	0.01511
2246.23814	0.01516
2244.95237	0.01535
2243.66660	0.01566
2242.38083	0.01619
2241.09507	0.01694
2239.80930	0.01754
2238.52353	0.01758
2237.23776	0.01699
2235.95199	0.01611
2234.66622	0.01534
2233.38045	0.01486
2232.09468	0.01469
2230.80891	0.01487
2229.52315	0.01541
2228.23738	0.01605
2226.95161	0.01640
2225.66584	0.01629
2224.38007	0.01584
2223.09430	0.01528
2221.80853	0.01478
2220.52276	0.01453
2219.23700	0.01462
2217.95123	0.01487
2216.66546	0.01482
2215.37969	0.01429
2214.09392	0.01364
2212.80815	0.01339
2211.52238	0.01368
2210.23661	0.01419
2208.95084	0.01453
2207.66508	0.01457
2206.37931	0.01439
2205.09354	0.01411
2203.80777	0.01374
2202.52200	0.01321
2201.23623	0.01263
2199.95046	0.01231
2198.66469	0.01246
2197.37893	0.01283
2196.09316	0.01283
2194.80739	0.01209
2193.52162	0.01080
2192.23585	0.00963
2190.95008	0.00917
2189.66431	0.00948
2188.37854	0.01002
2187.09277	0.01030
2185.80701	0.01036
2184.52124	0.01056
2183.23547	0.01096
2181.94970	0.01117
2180.66393	0.01100
2179.37816	0.01072
2178.09239	0.01071
2176.80662	0.01094
2175.52085	0.01093
2174.23509	0.01016
2172.94932	0.00861
2171.66355	0.00698
2170.37778	0.00611
2169.09201	0.00630
2167.80624	0.00727
2166.52047	0.00862
2165.23470	0.01004
2163.94894	0.01098
2162.66317	0.01066
2161.37740	0.00896
2160.09163	0.00698
2158.80586	0.00607
2157.52009	0.00645
2156.23432	0.00715
2154.94855	0.00722
2153.66278	0.00657
2152.37702	0.00573
2151.09125	0.00520
2149.80548	0.00510
2148.51971	0.00533
2147.23394	0.00585
2145.94817	0.00669
2144.66240	0.00770
2143.37663	0.00860
2142.09087	0.00926
2140.80510	0.00975
2139.51933	0.01018
2138.23356	0.01051
2136.94779	0.01059
2135.66202	0.01031
2134.37625	0.00979
2133.09048	0.00939
2131.80471	0.00940
2130.51895	0.00979
2129.23318	0.01028
2127.94741	0.01069
2126.66164	0.01107
2125.37587	0.01142
2124.09010	0.01164
2122.80433	0.01172
2121.51856	0.01177
2120.23280	0.01190
2118.94703	0.01202
2117.66126	0.01202
2116.37549	0.01189
2115.08972	0.01171
2113.80395	0.01159
2112.51818	0.01166
2111.23241	0.01194
2109.94664	0.01219
2108.66088	0.01220
2107.37511	0.01203
2106.08934	0.01189
2104.80357	0.01181
2103.51780	0.01154
2102.23203	0.01091
2100.94626	0.01000
2099.66049	0.00864
2098.37473	0.00789
2097.08896	0.00790
2095.80319	0.00843
2094.51742	0.00926
2093.23165	0.01015
2091.94588	0.01083
2090.66011	0.01107
2089.37434	0.01097
2088.08857	0.01079
2086.80281	0.01068
2085.51704	0.01046
2084.23127	0.00989
2082.94550	0.00903
2081.65973	0.00823
2080.37396	0.00778
2079.08819	0.00761
2077.80242	0.00747
2076.51666	0.00730
2075.23089	0.00727
2073.94512	0.00759
2072.65935	0.00821
2071.37358	0.00890
2070.08781	0.00937
2068.80204	0.00940
2067.51627	0.00904
2066.23050	0.00858
2064.94474	0.00833
2063.65897	0.00832
2062.37320	0.00836
2061.08743	0.00830
2059.80166	0.00816
2058.51589	0.00803
2057.23012	0.00785
2055.94435	0.00749
2054.65859	0.00697
2053.37282	0.00639
2052.08705	0.00586
2050.80128	0.00546
2049.51551	0.00517
2048.22974	0.00484
2046.94397	0.00421
2045.65820	0.00314
2044.37243	0.00163
2043.08667	-0.00010
2041.80090	-0.00162
2040.51513	-0.00232
2039.22936	-0.00191
2037.94359	-0.00089
2036.65782	-0.00016
2035.37205	-0.00018
2034.08628	-0.00054
2032.80052	-0.00060
2031.51475	-0.00026
2030.22898	0.00008
2028.94321	0.00019
2027.65744	0.00032
2026.37167	0.00075
2025.08590	0.00132
2023.80013	0.00170
2022.51436	0.00194
2021.22860	0.00247
2019.94283	0.00352
2018.65706	0.00466
2017.37129	0.00513
2016.08552	0.00454
2014.79975	0.00312
2013.51398	0.00152
2012.22821	0.00033
2010.94245	-0.00018
2009.65668	-0.00003
2008.37091	0.00085
2007.08514	0.00263
2005.79937	0.00511
2004.51360	0.00745
2003.22783	0.00857
2001.94206	0.00815
2000.65629	0.00688
1999.37053	0.00583
1998.08476	0.00566
1996.79899	0.00637
1995.51322	0.00755
1994.22745	0.00877
1992.94168	0.00969
1991.65591	0.01010
1990.37014	0.00995
1989.08438	0.00942
1987.79861	0.00876
1986.51284	0.00814
1985.22707	0.00761
1983.94130	0.00722
1982.65553	0.00699
1981.36976	0.00689
1980.08399	0.00682
1978.79822	0.00677
1977.51246	0.00673
1976.22669	0.00660
1974.94092	0.00650
1973.65515	0.00684
1972.36938	0.00780
1971.08361	0.00892
1969.79784	0.00938
1968.51207	0.00885
1967.22631	0.00777
1965.94054	0.00687
1964.65477	0.00664
1963.36900	0.00713
1962.08323	0.00801
1960.79746	0.00880
1959.51169	0.00926
1958.22592	0.00949
1956.94015	0.00972
1955.65439	0.01004
1954.36862	0.01036
1953.08285	0.01065
1951.79708	0.01092
1950.51131	0.01105
1949.22554	0.01101
1947.93977	0.01098
1946.65400	0.01126
1945.36823	0.01178
1944.08247	0.01218
1942.79670	0.01212
1941.51093	0.01166
1940.22516	0.01099
1938.93939	0.01024
1937.65362	0.00942
1936.36785	0.00863
1935.08208	0.00821
1933.79632	0.00854
1932.51055	0.00964
1931.22478	0.01098
1929.93901	0.01182
1928.65324	0.01180
1927.36747	0.01123
1926.08170	0.01074
1924.79593	0.01076
1923.51016	0.01122
1922.22440	0.01174
1920.93863	0.01194
1919.65286	0.01169
1918.36709	0.01121
1917.08132	0.01078
1915.79555	0.01057
1914.50978	0.01057
1913.22401	0.01076
1911.93825	0.01106
1910.65248	0.01139
1909.36671	0.01167
1908.08094	0.01191
1906.79517	0.01218
1905.50940	0.01249
1904.22363	0.01270
1902.93786	0.01263
1901.65209	0.01229
1900.36633	0.01189
1899.08056	0.01167
1897.79479	0.01168
1896.50902	0.01173
1895.22325	0.01172
1893.93748	0.01170
1892.65171	0.01182
1891.36594	0.01212
1890.08018	0.01253
1888.79441	0.01286
1887.50864	0.01300
1886.22287	0.01296
1884.93710	0.01285
1883.65133	0.01277
1882.36556	0.01270
1881.07979	0.01257
1879.79402	0.01236
1878.50826	0.01215
1877.22249	0.01202
1875.93672	0.01203
1874.65095	0.01217
1873.36518	0.01234
1872.07941	0.01246
1870.79364	0.01250
1869.50787	0.01253
1868.22211	0.01260
1866.93634	0.01274
1865.65057	0.01297
1864.36480	0.01333
1863.07903	0.01371
1861.79326	0.01393
1860.50749	0.01379
1859.22172	0.01339
1857.93595	0.01300
1856.65019	0.01283
1855.36442	0.01288
1854.07865	0.01298
1852.79288	0.01306
1851.50711	0.01317
1850.22134	0.01334
1848.93557	0.01349
1847.64980	0.01352
1846.36404	0.01336
1845.07827	0.01311
1843.79250	0.01295
1842.50673	0.01292
1841.22096	0.01296
1839.93519	0.01296
1838.64942	0.01293
1837.36365	0.01291
1836.07788	0.01295
1834.79212	0.01305
1833.50635	0.01321
1832.22058	0.01334
1830.93481	0.01338
1829.64904	0.01332
1828.36327	0.01321
1827.07750	0.01304
1825.79173	0.01288
1824.50597	0.01278
1823.22020	0.01271
1821.93443	0.01261
1820.64866	0.01247
1819.36289	0.01241
1818.07712	0.01258
1816.79135	0.01295
1815.50558	0.01339
1814.21981	0.01372
1812.93405	0.01387
1811.64828	0.01394
1810.36251	0.01400
1809.07674	0.01407
1807.79097	0.01414
1806.50520	0.01418
1805.21943	0.01421
1803.93366	0.01419
1802.64790	0.01408
1801.36213	0.01389
1800.07636	0.01371
1798.79059	0.01363
1797.50482	0.01368
1796.21905	0.01376
1794.93328	0.01377
1793.64751	0.01368
1792.36174	0.01364
1791.07598	0.01373
1789.79021	0.01391
1788.50444	0.01403
1787.21867	0.01405
1785.93290	0.01402
1784.64713	0.01402
1783.36136	0.01408
1782.07559	0.01416
1780.78983	0.01423
1779.50406	0.01428
1778.21829	0.01429
1776.93252	0.01426
1775.64675	0.01422
1774.36098	0.01423
1773.07521	0.01437
1771.78944	0.01466
1770.50367	0.01498
1769.21791	0.01515
1767.93214	0.01518
1766.64637	0.01520
1765.36060	0.01519
1764.07483	0.01506
1762.78906	0.01490
1761.50329	0.01487
1760.21752	0.01501
1758.93176	0.01519
1757.64599	0.01528
1756.36022	0.01530
1755.07445	0.01533
1753.78868	0.01538
1752.50291	0.01544
1751.21714	0.01554
1749.93137	0.01566
1748.64560	0.01568
1747.35984	0.01559
1746.07407	0.01546
1744.78830	0.01543
1743.50253	0.01550
1742.21676	0.01561
1740.93099	0.01574
1739.64522	0.01591
1738.35945	0.01612
1737.07369	0.01622
1735.78792	0.01614
1734.50215	0.01609
1733.21638	0.01631
1731.93061	0.01672
1730.64484	0.01705
1729.35907	0.01720
1728.07330	0.01726
1726.78753	0.01733
1725.50177	0.01742
1724.21600	0.01754
1722.93023	0.01767
1721.64446	0.01776
1720.35869	0.01776
1719.07292	0.01773
1717.78715	0.01789
1716.50138	0.01832
1715.21561	0.01887
1713.92985	0.01937
1712.64408	0.01977
1711.35831	0.02011
1710.07254	0.02040
1708.78677	0.02065
1707.50100	0.02089
1706.21523	0.02115
1704.92946	0.02145
1703.64370	0.02169
1702.35793	0.02175
1701.07216	0.02177
1699.78639	0.02203
1698.50062	0.02248
1697.21485	0.02285
1695.92908	0.02318
1694.64331	0.02366
1693.35754	0.02416
1692.07178	0.02442
1690.78601	0.02449
1689.50024	0.02459
1688.21447	0.02476
1686.92870	0.02488
1685.64293	0.02501
1684.35716	0.02536
1683.07139	0.02598
1681.78563	0.02656
1680.49986	0.02692
1679.21409	0.02712
1677.92832	0.02729
1676.64255	0.02745
1675.35678	0.02772
1674.07101	0.02811
1672.78524	0.02847
1671.49947	0.02867
1670.21371	0.02877
1668.92794	0.02896
1667.64217	0.02928
1666.35640	0.02962
1665.07063	0.02989
1663.78486	0.03012
1662.49909	0.03042
1661.21332	0.03077
1659.92756	0.03107
1658.64179	0.03128
1657.35602	0.03140
1656.07025	0.03131
1654.78448	0.03103
1653.49871	0.03090
1652.21294	0.03126
1650.92717	0.03192
1649.64140	0.03238
1648.35564	0.03247
1647.06987	0.03244
1645.78410	0.03251
1644.49833	0.03266
1643.21256	0.03277
1641.92679	0.03283
1640.64102	0.03291
1639.35525	0.03301
1638.06949	0.03306
1636.78372	0.03308
1635.49795	0.03320
1634.21218	0.03345
1632.92641	0.03366
1631.64064	0.03368
1630.35487	0.03363
1629.06910	0.03369
1627.78333	0.03390
1626.49757	0.03418
1625.21180	0.03437
1623.92603	0.03446
1622.64026	0.03455
1621.35449	0.03468
1620.06872	0.03476
1618.78295	0.03475
1617.49718	0.03476
1616.21142	0.03499
1614.92565	0.03538
1613.63988	0.03572
1612.35411	0.03593
1611.06834	0.03612
1609.78257	0.03635
1608.49680	0.03656
1607.21103	0.03672
1605.92526	0.03686
1604.63950	0.03701
1603.35373	0.03719
1602.06796	0.03740
1600.78219	0.03758
1599.49642	0.03774
1598.21065	0.03791
1596.92488	0.03811
1595.63911	0.03832
1594.35335	0.03851
1593.06758	0.03866
1591.78181	0.03880
1590.49604	0.03892
1589.21027	0.03904
1587.92450	0.03918
1586.63873	0.03936
1585.35296	0.03958
1584.06719	0.03979
1582.78143	0.03996
1581.49566	0.04010
1580.20989	0.04024
1578.92412	0.04034
1577.63835	0.04040
1576.35258	0.04058
1575.06681	0.04100
1573.78104	0.04150
1572.49528	0.04180
1571.20951	0.04191
1569.92374	0.04202
1568.63797	0.04228
1567.35220	0.04259
1566.06643	0.04284
1564.78066	0.04303
1563.49489	0.04319
1562.20912	0.04324
1560.92336	0.04316
1559.63759	0.04315
1558.35182	0.04342
1557.06605	0.04386
1555.78028	0.04419
1554.49451	0.04436
1553.20874	0.04450
1551.92297	0.04467
1550.63721	0.04482
1549.35144	0.04498
1548.06567	0.04515
1546.77990	0.04527
1545.49413	0.04531
1544.20836	0.04529
1542.92259	0.04522
1541.63682	0.04508
1540.35105	0.04498
1539.06529	0.04508
1537.77952	0.04537
1536.49375	0.04560
1535.20798	0.04569
1533.92221	0.04577
1532.63644	0.04603
1531.35067	0.04645
1530.06490	0.04689
1528.77914	0.04731
1527.49337	0.04775
1526.20760	0.04825
1524.92183	0.04882
1523.63606	0.04941
1522.35029	0.05006
1521.06452	0.05092
1519.77875	0.05200
1518.49298	0.05316
1517.20722	0.05430
1515.92145	0.05547
1514.63568	0.05670
1513.34991	0.05797
1512.06414	0.05930
1510.77837	0.06068
1509.49260	0.06198
1508.20683	0.06314
1506.92107	0.06430
1505.63530	0.06561
1504.34953	0.06699
1503.06376	0.06823
1501.77799	0.06924
1500.49222	0.07012
1499.20645	0.07091
1497.92068	0.07161
1496.63491	0.07229
1495.34915	0.07304
1494.06338	0.07383
1492.77761	0.07457
1491.49184	0.07527
1490.20607	0.07602
1488.92030	0.07687
1487.63453	0.07783
1486.34876	0.07891
1485.06299	0.08009
1483.77723	0.08132
1482.49146	0.08256
1481.20569	0.08378
1479.91992	0.08498
1478.63415	0.08613
1477.34838	0.08722
1476.06261	0.08825
1474.77684	0.08918
1473.49108	0.09002
1472.20531	0.09083
1470.91954	0.09159
1469.63377	0.09222
1468.34800	0.09263
1467.06223	0.09288
1465.77646	0.09309
1464.49069	0.09341
1463.20492	0.09385
1461.91916	0.09433
1460.63339	0.09474
1459.34762	0.09504
1458.06185	0.09532
1456.77608	0.09575
1455.49031	0.09633
1454.20454	0.09684
1452.91877	0.09717
1451.63301	0.09740
1450.34724	0.09761
1449.06147	0.09782
1447.77570	0.09800
1446.48993	0.09811
1445.20416	0.09806
1443.91839	0.09779
1442.63262	0.09734
1441.34685	0.09684
1440.06109	0.09641
1438.77532	0.09611
1437.48955	0.09603
1436.20378	0.09629
1434.91801	0.09688
1433.63224	0.09770
1432.34647	0.09866
1431.06070	0.09979
1429.77494	0.10113
1428.48917	0.10264
1427.20340	0.10425
1425.91763	0.10590
1424.63186	0.10758
1423.34609	0.10920
1422.06032	0.11067
1420.77455	0.11193
1419.48878	0.11308
1418.20302	0.11418
1416.91725	0.11514
1415.63148	0.11576
1414.34571	0.11601
1413.05994	0.11593
1411.77417	0.11559
1410.48840	0.11502
1409.20263	0.11424
1407.91687	0.11324
1406.63110	0.11200
1405.34533	0.11049
1404.05956	0.10877
1402.77379	0.10686
1401.48802	0.10477
1400.20225	0.10253
1398.91648	0.10018
1397.63071	0.09778
1396.34495	0.09530
1395.05918	0.09276
1393.77341	0.09023
1392.48764	0.08776
1391.20187	0.08534
1389.91610	0.08297
1388.63033	0.08063
1387.34456	0.07836
1386.05880	0.07619
1384.77303	0.07410
1383.48726	0.07209
1382.20149	0.07013
1380.91572	0.06821
1379.62995	0.06625
1378.34418	0.06423
1377.05841	0.06211
1375.77264	0.05988
1374.48688	0.05759
1373.20111	0.05531
1371.91534	0.05308
1370.62957	0.05096
1369.34380	0.04900
1368.05803	0.04723
1366.77226	0.04560
1365.48649	0.04406
1364.20073	0.04257
1362.91496	0.04118
1361.62919	0.03993
1360.34342	0.03882
1359.05765	0.03780
1357.77188	0.03682
1356.48611	0.03589
1355.20034	0.03500
1353.91457	0.03418
1352.62881	0.03341
1351.34304	0.03267
1350.05727	0.03196
1348.77150	0.03130
1347.48573	0.03071
1346.19996	0.03019
1344.91419	0.02971
1343.62842	0.02925
1342.34266	0.02880
1341.05689	0.02834
1339.77112	0.02789
1338.48535	0.02746
1337.19958	0.02707
1335.91381	0.02672
1334.62804	0.02641
1333.34227	0.02610
1332.05650	0.02579
1330.77074	0.02549
1329.48497	0.02522
1328.19920	0.02497
1326.91343	0.02471
1325.62766	0.02444
1324.34189	0.02416
1323.05612	0.02391
1321.77035	0.02373
1320.48459	0.02360
1319.19882	0.02347
1317.91305	0.02329
1316.62728	0.02307
1315.34151	0.02284
1314.05574	0.02265
1312.76997	0.02249
1311.48420	0.02234
1310.19843	0.02217
1308.91267	0.02197
1307.62690	0.02178
1306.34113	0.02163
1305.05536	0.02151
1303.76959	0.02143
1302.48382	0.02135
1301.19805	0.02124
1299.91228	0.02107
1298.62652	0.02086
1297.34075	0.02063
1296.05498	0.02042
1294.76921	0.02029
1293.48344	0.02024
1292.19767	0.02025
1290.91190	0.02025
1289.62613	0.02019
1288.34036	0.02008
1287.05460	0.01993
1285.76883	0.01975
1284.48306	0.01959
1283.19729	0.01947
1281.91152	0.01942
1280.62575	0.01939
1279.33998	0.01930
1278.05421	0.01915
1276.76845	0.01898
1275.48268	0.01886
1274.19691	0.01880
1272.91114	0.01876
1271.62537	0.01871
1270.33960	0.01865
1269.05383	0.01861
1267.76806	0.01860
1266.48229	0.01857
1265.19653	0.01848
1263.91076	0.01834
1262.62499	0.01816
1261.33922	0.01801
1260.05345	0.01790
1258.76768	0.01783
1257.48191	0.01776
1256.19614	0.01770
1254.91037	0.01764
1253.62461	0.01761
1252.33884	0.01759
1251.05307	0.01756
1249.76730	0.01752
1248.48153	0.01744
1247.19576	0.01732
1245.90999	0.01718
1244.62422	0.01706
1243.33846	0.01696
1242.05269	0.01688
1240.76692	0.01679
1239.48115	0.01671
1238.19538	0.01665
1236.90961	0.01663
1235.62384	0.01663
1234.33807	0.01661
1233.05230	0.01659
1231.76654	0.01656
1230.48077	0.01652
1229.19500	0.01648
1227.90923	0.01642
1226.62346	0.01634
1225.33769	0.01625
1224.05192	0.01617
1222.76615	0.01612
1221.48039	0.01611
1220.19462	0.01611
1218.90885	0.01610
1217.62308	0.01606
1216.33731	0.01603
1215.05154	0.01602
1213.76577	0.01603
1212.48000	0.01603
1211.19423	0.01600
1209.90847	0.01595
1208.62270	0.01589
1207.33693	0.01584
1206.05116	0.01580
1204.76539	0.01576
1203.47962	0.01574
1202.19385	0.01574
1200.90808	0.01580
1199.62232	0.01588
1198.33655	0.01591
1197.05078	0.01594
1195.76501	0.01597
1194.47924	0.01594
1193.19347	0.01587
1191.90770	0.01578
1190.62193	0.01574
1189.33616	0.01577
1188.05040	0.01584
1186.76463	0.01590
1185.47886	0.01593
1184.19309	0.01594
1182.90732	0.01598
1181.62155	0.01607
1180.33578	0.01621
1179.05001	0.01635
1177.76425	0.01646
1176.47848	0.01654
1175.19271	0.01663
1173.90694	0.01679
1172.62117	0.01704
1171.33540	0.01734
1170.04963	0.01763
1168.76386	0.01786
1167.47809	0.01804
1166.19233	0.01820
1164.90656	0.01837
1163.62079	0.01860
1162.33502	0.01889
1161.04925	0.01922
1159.76348	0.01956
1158.47771	0.01987
1157.19194	0.02017
1155.90618	0.02050
1154.62041	0.02093
1153.33464	0.02144
1152.04887	0.02199
1150.76310	0.02255
1149.47733	0.02316
1148.19156	0.02387
1146.90579	0.02468
1145.62002	0.02555
1144.33426	0.02650
1143.04849	0.02752
1141.76272	0.02863
1140.47695	0.02983
1139.19118	0.03113
1137.90541	0.03255
1136.61964	0.03412
1135.33387	0.03589
1134.04811	0.03790
1132.76234	0.04012
1131.47657	0.04251
1130.19080	0.04511
1128.90503	0.04801
1127.61926	0.05128
1126.33349	0.05486
1125.04772	0.05865
1123.76195	0.06252
1122.47619	0.06646
1121.19042	0.07049
1119.90465	0.07459
1118.61888	0.07871
1117.33311	0.08279
1116.04734	0.08680
1114.76157	0.09076
1113.47580	0.09466
1112.19004	0.09843
1110.90427	0.10209
1109.61850	0.10568
1108.33273	0.10920
1107.04696	0.11263
1105.76119	0.11596
1104.47542	0.11921
1103.18965	0.12242
1101.90388	0.12557
1100.61812	0.12862
1099.33235	0.13151
1098.04658	0.13427
1096.76081	0.13695
1095.47504	0.13958
1094.18927	0.14216
1092.90350	0.14461
1091.61773	0.14690
1090.33197	0.14909
1089.04620	0.15124
1087.76043	0.15340
1086.47466	0.15560
1085.18889	0.15782
1083.90312	0.16011
1082.61735	0.16254
1081.33158	0.16521
1080.04581	0.16810
1078.76005	0.17111
1077.47428	0.17419
1076.18851	0.17736
1074.90274	0.18068
1073.61697	0.18414
1072.33120	0.18771
1071.04543	0.19138
1069.75966	0.19517
1068.47390	0.19908
1067.18813	0.20305
1065.90236	0.20702
1064.61659	0.21101
1063.33082	0.21505
1062.04505	0.21921
1060.75928	0.22344
1059.47351	0.22768
1058.18774	0.23185
1056.90198	0.23594
1055.61621	0.23993
1054.33044	0.24386
1053.04467	0.24777
1051.75890	0.25174
1050.47313	0.25587
1049.18736	0.26022
1047.90159	0.26481
1046.61583	0.26963
1045.33006	0.27463
1044.04429	0.27972
1042.75852	0.28486
1041.47275	0.29009
1040.18698	0.29544
1038.90121	0.30087
1037.61544	0.30626
1036.32967	0.31157
1035.04391	0.31681
1033.75814	0.32193
1032.47237	0.32682
1031.18660	0.33134
1029.90083	0.33544
1028.61506	0.33906
1027.32929	0.34217
1026.04352	0.34476
1024.75775	0.34683
1023.47199	0.34841
1022.18622	0.34949
1020.90045	0.34995
1019.61468	0.34965
1018.32891	0.34856
1017.04314	0.34670
1015.75737	0.34411
1014.47160	0.34076
1013.18584	0.33668
1011.90007	0.33191
1010.61430	0.32653
1009.32853	0.32053
1008.04276	0.31383
1006.75699	0.30637
1005.47122	0.29815
1004.18545	0.28928
1002.89968	0.27990
1001.61392	0.27015
1000.32815	0.26011
999.04238	0.24980
997.75661	0.23928
996.47084	0.22864
995.18507	0.21803
993.89930	0.20759
992.61353	0.19742
991.32777	0.18758
990.04200	0.17811
988.75623	0.16905
987.47046	0.16043
986.18469	0.15232
984.89892	0.14479
983.61315	0.13789
982.32738	0.13159
981.04161	0.12582
979.75585	0.12054
978.47008	0.11574
977.18431	0.11141
975.89854	0.10761
974.61277	0.10444
973.32700	0.10201
972.04123	0.10033
970.75546	0.09932
969.46970	0.09892
968.18393	0.09910
966.89816	0.09986
965.61239	0.10107
964.32662	0.10248
963.04085	0.10374
961.75508	0.10447
960.46931	0.10440
959.18354	0.10342
957.89778	0.10158
956.61201	0.09907
955.32624	0.09613
954.04047	0.09293
952.75470	0.08963
951.46893	0.08635
950.18316	0.08324
948.89739	0.08036
947.61163	0.07765
946.32586	0.07503
945.04009	0.07251
943.75432	0.07010
942.46855	0.06779
941.18278	0.06554
939.89701	0.06338
938.61124	0.06136
937.32547	0.05955
936.03971	0.05796
934.75394	0.05655
933.46817	0.05528
932.18240	0.05410
930.89663	0.05301
929.61086	0.05203
928.32509	0.05119
927.03932	0.05045
925.75356	0.04976
924.46779	0.04907
923.18202	0.04839
921.89625	0.04775
920.61048	0.04713
919.32471	0.04652
918.03894	0.04592
916.75317	0.04535
915.46740	0.04481
914.18164	0.04434
912.89587	0.04394
911.61010	0.04361
910.32433	0.04331
909.03856	0.04304
907.75279	0.04278
906.46702	0.04256
905.18125	0.04236
903.89549	0.04219
902.60972	0.04203
901.32395	0.04187
900.03818	0.04168
898.75241	0.04141
897.46664	0.04108
896.18087	0.04076
894.89510	0.04061
893.60933	0.04070
892.32357	0.04100
891.03780	0.04147
889.75203	0.04204
888.46626	0.04270
887.18049	0.04355
885.89472	0.04482
884.60895	0.04680
883.32318	0.04963
882.03742	0.05306
880.75165	0.05654
879.46588	0.05948
878.18011	0.06169
876.89434	0.06344
875.60857	0.06516
874.32280	0.06694
873.03703	0.06841
871.75126	0.06901
870.46550	0.06845
869.17973	0.06683
867.89396	0.06448
866.60819	0.06179
865.32242	0.05901
864.03665	0.05635
862.75088	0.05388
861.46511	0.05160
860.17935	0.04950
858.89358	0.04760
857.60781	0.04599
856.32204	0.04471
855.03627	0.04371
853.75050	0.04292
852.46473	0.04229
851.17896	0.04178
849.89319	0.04138
848.60743	0.04101
847.32166	0.04065
846.03589	0.04026
844.75012	0.03985
843.46435	0.03943
842.17858	0.03905
840.89281	0.03877
839.60704	0.03858
838.32128	0.03840
837.03551	0.03820
835.74974	0.03797
834.46397	0.03773
833.17820	0.03746
831.89243	0.03721
830.60666	0.03702
829.32089	0.03693
828.03512	0.03690
826.74936	0.03685
825.46359	0.03678
824.17782	0.03670
822.89205	0.03664
821.60628	0.03661
820.32051	0.03661
819.03474	0.03663
817.74897	0.03665
816.46321	0.03668
815.17744	0.03672
813.89167	0.03673
812.60590	0.03666
811.32013	0.03651
810.03436	0.03634
808.74859	0.03623
807.46282	0.03623
806.17705	0.03627
804.89129	0.03627
803.60552	0.03620
802.31975	0.03611
801.03398	0.03601
799.74821	0.03592
798.46244	0.03581
797.17667	0.03571
795.89090	0.03563
794.60513	0.03556
793.31937	0.03549
792.03360	0.03545
790.74783	0.03549
789.46206	0.03555
788.17629	0.03559
786.89052	0.03561
785.60475	0.03562
784.31898	0.03561
783.03322	0.03557
781.74745	0.03552
780.46168	0.03551
779.17591	0.03553
777.89014	0.03551
776.60437	0.03544
775.31860	0.03533
774.03283	0.03529
772.74706	0.03534
771.46130	0.03546
770.17553	0.03560
768.88976	0.03572
767.60399	0.03580
766.31822	0.03583
765.03245	0.03581
763.74668	0.03580
762.46091	0.03590
761.17515	0.03616
759.88938	0.03647
758.60361	0.03666
757.31784	0.03669
756.03207	0.03661
754.74630	0.03649
753.46053	0.03634
752.17476	0.03612
750.88899	0.03587
749.60323	0.03565
748.31746	0.03551
747.03169	0.03548
745.74592	0.03557
744.46015	0.03572
743.17438	0.03586
741.88861	0.03594
740.60284	0.03596
739.31708	0.03594
738.03131	0.03592
736.74554	0.03593
735.45977	0.03595
734.17400	0.03594
732.88823	0.03592
731.60246	0.03590
730.31669	0.03589
729.03092	0.03587
727.74516	0.03584
726.45939	0.03580
725.17362	0.03576
723.88785	0.03576
722.60208	0.03563
721.31631	0.03546
720.03054	0.03541
718.74477	0.03547
717.45901	0.03561
716.17324	0.03573
714.88747	0.03577
713.60170	0.03577
712.31593	0.03575
711.03016	0.03574
709.74439	0.03574
708.45862	0.03573
707.17285	0.03571
705.88709	0.03565
704.60132	0.03555
703.31555	0.03543
702.02978	0.03534
700.74401	0.03526
699.45824	0.03519
698.17247	0.03510
696.88670	0.03501
695.60094	0.03497
694.31517	0.03499
693.02940	0.03503
691.74363	0.03504
690.45786	0.03497
689.17209	0.03486
687.88632	0.03476
686.60055	0.03472
685.31478	0.03472
684.02902	0.03472
682.74325	0.03470
681.45748	0.03468
680.17171	0.03472
678.88594	0.03480
677.60017	0.03487
676.31440	0.03488
675.02863	0.03488
673.74287	0.03492
672.45710	0.03497
671.17133	0.03490
669.88556	0.03477
668.59979	0.03507
667.31402	0.03525
666.02825	0.03481
664.74248	0.03480
663.45671	0.03473
662.17095	0.03454
660.88518	0.03439
659.59941	0.03428
658.31364	0.03415
657.02787	0.03400
655.74210	0.03387
654.45633	0.03379
653.17056	0.03377
651.88480	0.03380
650.59903	0.03389
649.31326	0.03402
648.02749	0.03414
646.74172	0.03425
645.45595	0.03435
644.17018	0.03447
642.88441	0.03461
641.59864	0.03479
640.31288	0.03505
639.02711	0.03540
637.74134	0.03587
636.45557	0.03645
635.16980	0.03712
633.88403	0.03781
632.59826	0.03850
631.31249	0.03914
630.02673	0.03944
628.74096	0.03929
627.45519	0.04003
626.16942	0.03996
624.88365	0.03983
623.59788	0.04079
622.31211	0.04320
621.02634	0.04685
619.74057	0.05136
618.45481	0.05661
617.16904	0.06238
615.88327	0.06790
614.59750	0.07207
613.31173	0.07440
612.02596	0.07587
610.74019	0.07872
609.45442	0.08475
608.16866	0.09340
606.88289	0.10226
605.59712	0.10919
604.31135	0.11352
603.02558	0.11561
601.73981	0.11598
600.45404	0.11496
599.16827	0.11277
597.88250	0.10975
596.59674	0.10636
595.31097	0.10300
594.02520	0.09994
592.73943	0.09738
591.45366	0.09551
590.16789	0.09444
588.88212	0.09422
587.59635	0.09479
586.31059	0.09603
585.02482	0.09779
583.73905	0.10001
582.45328	0.10266
581.16751	0.10568
579.88174	0.10892
578.59597	0.11222
577.31020	0.11541
576.02443	0.11846
574.73867	0.12143
573.45290	0.12444
572.16713	0.12760
570.88136	0.13106
569.59559	0.13500
568.30982	0.13962
567.02405	0.14489
565.73828	0.15049
564.45251	0.15576
563.16675	0.15986
561.88098	0.16200
560.59521	0.16155
559.30944	0.15826
558.02367	0.15240
556.73790	0.14470
555.45213	0.13607
554.16636	0.12729
552.88060	0.11875
551.59483	0.11059
550.30906	0.10300
549.02329	0.09623
547.73752	0.09047
546.45175	0.08563
545.16598	0.08137
543.88021	0.07738
542.59444	0.07356
541.30868	0.07003
540.02291	0.06693
538.73714	0.06427
537.45137	0.06190
536.16560	0.05965
534.87983	0.05752
533.59406	0.05563
532.30829	0.05406
531.02253	0.05271
529.73676	0.05138
528.45099	0.04996
527.16522	0.04850
525.87945	0.04713
524.59368	0.04589
523.30791	0.04474
522.02214	0.04365
520.73637	0.04261
519.45061	0.04161
518.16484	0.04068
516.87907	0.03984
515.59330	0.03905
514.30753	0.03826
513.02176	0.03746
511.73599	0.03675
510.45022	0.03621
509.16446	0.03584
507.87869	0.03552
506.59292	0.03516
505.30715	0.03471
504.02138	0.03419
502.73561	0.03371
501.44984	0.03332
500.16407	0.03302
498.87830	0.03275
497.59254	0.03251
496.30677	0.03227
495.02100	0.03203
493.73523	0.03176
492.44946	0.03148
491.16369	0.03121
489.87792	0.03096
488.59215	0.03076
487.30639	0.03065
486.02062	0.03069
484.73485	0.03085
483.44908	0.03104
482.16331	0.03121
480.87754	0.03136
479.59177	0.03149
478.30600	0.03162
477.02023	0.03173
475.73447	0.03182
474.44870	0.03198
473.16293	0.03225
471.87716	0.03258
470.59139	0.03283
469.30562	0.03288
468.01985	0.03273
466.73408	0.03245
465.44832	0.03212
464.16255	0.03174
462.87678	0.03132
461.59101	0.03089
460.30524	0.03048
459.01947	0.03014
457.73370	0.02990
456.44793	0.02973
455.16216	0.02957
453.87640	0.02936
452.59063	0.02911
451.30486	0.02886
450.01909	0.02863
448.73332	0.02850
447.44755	0.02846
446.16178	0.02847
444.87601	0.02845
443.59025	0.02839
442.30448	0.02830
441.01871	0.02820
439.73294	0.02811
438.44717	0.02804
437.16140	0.02802
435.87563	0.02805
434.58986	0.02807
433.30409	0.02804
432.01833	0.02798
430.73256	0.02794
429.44679	0.02791
428.16102	0.02787
426.87525	0.02780
425.58948	0.02770
424.30371	0.02762
423.01794	0.02757
421.73218	0.02755
420.44641	0.02754
419.16064	0.02755
417.87487	0.02759
416.58910	0.02761
415.30333	0.02762
414.01756	0.02764
412.73179	0.02770
411.44602	0.02781
410.16026	0.02791
408.87449	0.02798
407.58872	0.02805
406.30295	0.02813
405.01718	0.02825
403.73141	0.02843
402.44564	0.02864
401.15987	0.02884
399.87411	0.02902
