3997.45528	0.04550
3996.16951	0.04626
3994.88374	0.04677
3993.59798	0.04678
3992.31221	0.04620
3991.02644	0.04519
3989.74067	0.04415
3988.45490	0.04350
3987.16913	0.04345
3985.88336	0.04390
3984.59759	0.04452
3983.31183	0.04499
3982.02606	0.04522
3980.74029	0.04534
3979.45452	0.04563
3978.16875	0.04620
3976.88298	0.04683
3975.59721	0.04712
3974.31144	0.04692
3973.02567	0.04642
3971.73991	0.04600
3970.45414	0.04586
3969.16837	0.04597
3967.88260	0.04617
3966.59683	0.04633
3965.31106	0.04649
3964.02529	0.04674
3962.73952	0.04695
3961.45376	0.04679
3960.16799	0.04620
3958.88222	0.04554
3957.59645	0.04526
3956.31068	0.04544
3955.02491	0.04581
3953.73914	0.04612
3952.45337	0.04629
3951.16760	0.04643
3949.88184	0.04667
3948.59607	0.04702
3947.31030	0.04735
3946.02453	0.04752
3944.73876	0.04750
3943.45299	0.04730
3942.16722	0.04692
3940.88145	0.04643
3939.59569	0.04591
3938.30992	0.04535
3937.02415	0.04478
3935.73838	0.04441
3934.45261	0.04451
3933.16684	0.04512
3931.88107	0.04600
3930.59530	0.04686
3929.30953	0.04750
3928.02377	0.04789
3926.73800	0.04803
3925.45223	0.04789
3924.16646	0.04739
3922.88069	0.04661
3921.59492	0.04592
3920.30915	0.04575
3919.02338	0.04623
3917.73762	0.04691
3916.45185	0.04717
3915.16608	0.04679
3913.88031	0.04615
3912.59454	0.04582
3911.30877	0.04600
3910.02300	0.04641
3908.73723	0.04673
3907.45146	0.04690
3906.16570	0.04701
3904.87993	0.04705
3903.59416	0.04685
3902.30839	0.04638
3901.02262	0.04588
3899.73685	0.04564
3898.45108	0.04570
3897.16531	0.04579
3895.87955	0.04580
3894.59378	0.04596
3893.30801	0.04653
3892.02224	0.04724
3890.73647	0.04743
3889.45070	0.04686
3888.16493	0.04613
3886.87916	0.04597
3885.59339	0.04640
3884.30763	0.04686
3883.02186	0.04690
3881.73609	0.04660
3880.45032	0.04618
3879.16455	0.04579
3877.87878	0.04550
3876.59301	0.04540
3875.30724	0.04548
3874.02148	0.04561
3872.73571	0.04570
3871.44994	0.04569
3870.16417	0.04547
3868.87840	0.04506
3867.59263	0.04471
3866.30686	0.04458
3865.02109	0.04444
3863.73532	0.04408
3862.44956	0.04359
3861.16379	0.04327
3859.87802	0.04325
3858.59225	0.04353
3857.30648	0.04411
3856.02071	0.04499
3854.73494	0.04580
3853.44917	0.04595
3852.16341	0.04522
3850.87764	0.04414
3849.59187	0.04342
3848.30610	0.04339
3847.02033	0.04404
3845.73456	0.04511
3844.44879	0.04623
3843.16302	0.04694
3841.87725	0.04687
3840.59149	0.04613
3839.30572	0.04516
3838.01995	0.04436
3836.73418	0.04388
3835.44841	0.04377
3834.16264	0.04405
3832.87687	0.04461
3831.59110	0.04523
3830.30534	0.04573
3829.01957	0.04597
3827.73380	0.04587
3826.44803	0.04550
3825.16226	0.04505
3823.87649	0.04473
3822.59072	0.04446
3821.30495	0.04402
3820.01918	0.04355
3818.73342	0.04355
3817.44765	0.04411
3816.16188	0.04459
3814.87611	0.04446
3813.59034	0.04400
3812.30457	0.04374
3811.01880	0.04390
3809.73303	0.04435
3808.44726	0.04482
3807.16150	0.04499
3805.87573	0.04486
3804.58996	0.04498
3803.30419	0.04572
3802.01842	0.04654
3800.73265	0.04660
3799.44688	0.04586
3798.16111	0.04501
3796.87535	0.04445
3795.58958	0.04410
3794.30381	0.04380
3793.01804	0.04362
3791.73227	0.04362
3790.44650	0.04369
3789.16073	0.04359
3787.87496	0.04321
3786.58919	0.04266
3785.30343	0.04221
3784.01766	0.04207
3782.73189	0.04223
3781.44612	0.04253
3780.16035	0.04272
3778.87458	0.04263
3777.58881	0.04230
3776.30304	0.04199
3775.01728	0.04191
3773.73151	0.04208
3772.44574	0.04235
3771.15997	0.04253
3769.87420	0.04249
3768.58843	0.04229
3767.30266	0.04222
3766.01689	0.04252
3764.73112	0.04311
3763.44536	0.04365
3762.15959	0.04383
3760.87382	0.04359
3759.58805	0.04307
3758.30228	0.04252
3757.01651	0.04213
3755.73074	0.04197
3754.44497	0.04204
3753.15921	0.04224
3751.87344	0.04247
3750.58767	0.04272
3749.30190	0.04299
3748.01613	0.04321
3746.73036	0.04340
3745.44459	0.04341
3744.15882	0.04301
3742.87305	0.04245
3741.58729	0.04232
3740.30152	0.04268
3739.01575	0.04296
3737.72998	0.04276
3736.44421	0.04227
3735.15844	0.04197
3733.87267	0.04205
3732.58690	0.04222
3731.30114	0.04211
3730.01537	0.04177
3728.72960	0.04151
3727.44383	0.04143
3726.15806	0.04139
3724.87229	0.04126
3723.58652	0.04107
3722.30075	0.04082
3721.01498	0.04055
3719.72922	0.04040
3718.44345	0.04050
3717.15768	0.04083
3715.87191	0.04122
3714.58614	0.04149
3713.30037	0.04157
3712.01460	0.04154
3710.72883	0.04159
3709.44307	0.04178
3708.15730	0.04188
3706.87153	0.04154
3705.58576	0.04069
3704.29999	0.03985
3703.01422	0.03971
3701.72845	0.04049
3700.44268	0.04173
3699.15691	0.04275
3697.87115	0.04314
3696.58538	0.04292
3695.29961	0.04234
3694.01384	0.04168
3692.72807	0.04117
3691.44230	0.04102
3690.15653	0.04125
3688.87076	0.04153
3687.58500	0.04146
3686.29923	0.04106
3685.01346	0.04072
3683.72769	0.04079
3682.44192	0.04131
3681.15615	0.04203
3679.87038	0.04279
3678.58461	0.04356
3677.29884	0.04422
3676.01308	0.04437
3674.72731	0.04371
3673.44154	0.04260
3672.15577	0.04176
3670.87000	0.04143
3669.58423	0.04124
3668.29846	0.04093
3667.01269	0.04064
3665.72693	0.04065
3664.44116	0.04096
3663.15539	0.04125
3661.86962	0.04125
3660.58385	0.04101
3659.29808	0.04086
3658.01231	0.04101
3656.72654	0.04133
3655.44077	0.04166
3654.15501	0.04203
3652.86924	0.04247
3651.58347	0.04280
3650.29770	0.04271
3649.01193	0.04221
3647.72616	0.04170
3646.44039	0.04157
3645.15462	0.04193
3643.86886	0.04261
3642.58309	0.04331
3641.29732	0.04375
3640.01155	0.04382
3638.72578	0.04363
3637.44001	0.04347
3636.15424	0.04355
3634.86847	0.04386
3633.58270	0.04417
3632.29694	0.04429
3631.01117	0.04424
3629.72540	0.04424
3628.43963	0.04454
3627.15386	0.04529
3625.86809	0.04631
3624.58232	0.04710
3623.29655	0.04724
3622.01079	0.04680
3620.72502	0.04621
3619.43925	0.04586
3618.15348	0.04596
3616.86771	0.04651
3615.58194	0.04728
3614.29617	0.04794
3613.01040	0.04823
3611.72463	0.04821
3610.43887	0.04809
3609.15310	0.04798
3607.86733	0.04787
3606.58156	0.04777
3605.29579	0.04776
3604.01002	0.04797
3602.72425	0.04845
3601.43848	0.04913
3600.15272	0.04985
3598.86695	0.05047
3597.58118	0.05089
3596.29541	0.05100
3595.00964	0.05078
3593.72387	0.05038
3592.43810	0.05018
3591.15233	0.05047
3589.86656	0.05121
3588.58080	0.05193
3587.29503	0.05215
3586.00926	0.05180
3584.72349	0.05123
3583.43772	0.05093
3582.15195	0.05113
3580.86618	0.05162
3579.58041	0.05198
3578.29464	0.05201
3577.00888	0.05199
3575.72311	0.05224
3574.43734	0.05277
3573.15157	0.05326
3571.86580	0.05349
3570.58003	0.05356
3569.29426	0.05360
3568.00849	0.05359
3566.72273	0.05350
3565.43696	0.05348
3564.15119	0.05370
3562.86542	0.05408
3561.57965	0.05428
3560.29388	0.05413
3559.00811	0.05382
3557.72234	0.05369
3556.43657	0.05391
3555.15081	0.05434
3553.86504	0.05479
3552.57927	0.05515
3551.29350	0.05544
3550.00773	0.05568
3548.72196	0.05596
3547.43619	0.05648
3546.15042	0.05731
3544.86466	0.05821
3543.57889	0.05879
3542.29312	0.05890
3541.00735	0.05873
3539.72158	0.05858
3538.43581	0.05855
3537.15004	0.05856
3535.86427	0.05855
3534.57850	0.05863
3533.29274	0.05900
3532.00697	0.05968
3530.72120	0.06039
3529.43543	0.06076
3528.14966	0.06068
3526.86389	0.06044
3525.57812	0.06043
3524.29235	0.06071
3523.00659	0.06103
3521.72082	0.06114
3520.43505	0.06112
3519.14928	0.06120
3517.86351	0.06147
3516.57774	0.06184
3515.29197	0.06222
3514.00620	0.06260
3512.72043	0.06293
3511.43467	0.06302
3510.14890	0.06276
3508.86313	0.06233
3507.57736	0.06215
3506.29159	0.06245
3505.00582	0.06308
3503.72005	0.06370
3502.43428	0.06415
3501.14852	0.06454
3499.86275	0.06496
3498.57698	0.06532
3497.29121	0.06541
3496.00544	0.06515
3494.71967	0.06470
3493.43390	0.06436
3492.14813	0.06434
3490.86236	0.06456
3489.57660	0.06480
3488.29083	0.06493
3487.00506	0.06497
3485.71929	0.06500
3484.43352	0.06509
3483.14775	0.06528
3481.86198	0.06564
3480.57621	0.06620
3479.29045	0.06685
3478.00468	0.06745
3476.71891	0.06792
3475.43314	0.06828
3474.14737	0.06854
3472.86160	0.06870
3471.57583	0.06883
3470.29006	0.06895
3469.00429	0.06904
3467.71853	0.06905
3466.43276	0.06905
3465.14699	0.06912
3463.86122	0.06932
3462.57545	0.06955
3461.28968	0.06966
3460.00391	0.06956
3458.71814	0.06927
3457.43238	0.06896
3456.14661	0.06886
3454.86084	0.06904
3453.57507	0.06937
3452.28930	0.06966
3451.00353	0.06982
3449.71776	0.06995
3448.43199	0.07011
3447.14622	0.07023
3445.86046	0.07019
3444.57469	0.07003
3443.28892	0.06982
3442.00315	0.06963
3440.71738	0.06953
3439.43161	0.06963
3438.14584	0.07007
3436.86007	0.07083
3435.57431	0.07170
3434.28854	0.07238
3433.00277	0.07272
3431.71700	0.07276
3430.43123	0.07263
3429.14546	0.07253
3427.85969	0.07259
3426.57392	0.07286
3425.28815	0.07319
3424.00239	0.07340
3422.71662	0.07339
3421.43085	0.07325
3420.14508	0.07313
3418.85931	0.07318
3417.57354	0.07341
3416.28777	0.07372
3415.00200	0.07396
3413.71624	0.07391
3412.43047	0.07345
3411.14470	0.07270
3409.85893	0.07212
3408.57316	0.07218
3407.28739	0.07293
3406.00162	0.07388
3404.71585	0.07449
3403.43008	0.07461
3402.14432	0.07455
3400.85855	0.07470
3399.57278	0.07510
3398.28701	0.07539
3397.00124	0.07526
3395.71547	0.07474
3394.42970	0.07423
3393.14393	0.07403
3391.85817	0.07411
3390.57240	0.07423
3389.28663	0.07425
3388.00086	0.07420
3386.71509	0.07409
3385.42932	0.07385
3384.14355	0.07353
3382.85778	0.07331
3381.57201	0.07333
3380.28625	0.07350
3379.00048	0.07372
3377.71471	0.07403
3376.42894	0.07461
3375.14317	0.07542
3373.85740	0.07613
3372.57163	0.07643
3371.28586	0.07627
3370.00010	0.07596
3368.71433	0.07589
3367.42856	0.07624
3366.14279	0.07677
3364.85702	0.07700
3363.57125	0.07663
3362.28548	0.07581
3360.99971	0.07499
3359.71394	0.07459
3358.42818	0.07477
3357.14241	0.07537
3355.85664	0.07611
3354.57087	0.07669
3353.28510	0.07691
3351.99933	0.07680
3350.71356	0.07653
3349.42779	0.07628
3348.14202	0.07608
3346.85626	0.07587
3345.57049	0.07559
3344.28472	0.07529
3342.99895	0.07507
3341.71318	0.07503
3340.42741	0.07511
3339.14164	0.07524
3337.85587	0.07539
3336.57011	0.07557
3335.28434	0.07573
3333.99857	0.07569
3332.71280	0.07538
3331.42703	0.07497
3330.14126	0.07478
3328.85549	0.07497
3327.56972	0.07537
3326.28395	0.07567
3324.99819	0.07569
3323.71242	0.07559
3322.42665	0.07560
3321.14088	0.07577
3319.85511	0.07593
3318.56934	0.07590
3317.28357	0.07572
3315.99780	0.07562
3314.71204	0.07573
3313.42627	0.07607
3312.14050	0.07653
3310.85473	0.07696
3309.56896	0.07718
3308.28319	0.07706
3306.99742	0.07665
3305.71165	0.07613
3304.42588	0.07570
3303.14012	0.07546
3301.85435	0.07539
3300.56858	0.07544
3299.28281	0.07548
3297.99704	0.07539
3296.71127	0.07514
3295.42550	0.07487
3294.13973	0.07477
3292.85397	0.07486
3291.56820	0.07495
3290.28243	0.07488
3288.99666	0.07471
3287.71089	0.07461
3286.42512	0.07466
3285.13935	0.07480
3283.85358	0.07497
3282.56781	0.07516
3281.28205	0.07535
3279.99628	0.07547
3278.71051	0.07552
3277.42474	0.07549
3276.13897	0.07543
3274.85320	0.07533
3273.56743	0.07528
3272.28166	0.07532
3270.99590	0.07548
3269.71013	0.07563
3268.42436	0.07563
3267.13859	0.07546
3265.85282	0.07528
3264.56705	0.07530
3263.28128	0.07553
3261.99551	0.07578
3260.70974	0.07585
3259.42398	0.07572
3258.13821	0.07548
3256.85244	0.07519
3255.56667	0.07488
3254.28090	0.07454
3252.99513	0.07420
3251.70936	0.07394
3250.42359	0.07383
3249.13783	0.07384
3247.85206	0.07382
3246.56629	0.07359
3245.28052	0.07315
3243.99475	0.07276
3242.70898	0.07277
3241.42321	0.07323
3240.13744	0.07380
3238.85167	0.07410
3237.56591	0.07412
3236.28014	0.07408
3234.99437	0.07408
3233.70860	0.07395
3232.42283	0.07364
3231.13706	0.07333
3229.85129	0.07322
3228.56552	0.07328
3227.27976	0.07328
3225.99399	0.07309
3224.70822	0.07280
3223.42245	0.07266
3222.13668	0.07281
3220.85091	0.07310
3219.56514	0.07321
3218.27937	0.07292
3216.99360	0.07239
3215.70784	0.07202
3214.42207	0.07207
3213.13630	0.07237
3211.85053	0.07261
3210.56476	0.07260
3209.27899	0.07254
3207.99322	0.07270
3206.70745	0.07305
3205.42169	0.07318
3204.13592	0.07267
3202.85015	0.07158
3201.56438	0.07046
3200.27861	0.06989
3198.99284	0.07005
3197.70707	0.07064
3196.42130	0.07123
3195.13553	0.07162
3193.84977	0.07188
3192.56400	0.07208
3191.27823	0.07216
3189.99246	0.07198
3188.70669	0.07161
3187.42092	0.07125
3186.13515	0.07108
3184.84938	0.07102
3183.56362	0.07092
3182.27785	0.07078
3180.99208	0.07072
3179.70631	0.07078
3178.42054	0.07079
3177.13477	0.07059
3175.84900	0.07023
3174.56323	0.06984
3173.27746	0.06956
3171.99170	0.06942
3170.70593	0.06942
3169.42016	0.06954
3168.13439	0.06964
3166.84862	0.06959
3165.56285	0.06938
3164.27708	0.06917
3162.99131	0.06911
3161.70555	0.06918
3160.41978	0.06930
3159.13401	0.06948
3157.84824	0.06983
3156.56247	0.07026
3155.27670	0.07047
3153.99093	0.07022
3152.70516	0.06954
3151.41939	0.06879
3150.13363	0.06840
3148.84786	0.06850
3147.56209	0.06886
3146.27632	0.06918
3144.99055	0.06923
3143.70478	0.06900
3142.41901	0.06858
3141.13324	0.06816
3139.84748	0.06796
3138.56171	0.06801
3137.27594	0.06816
3135.99017	0.06818
3134.70440	0.06801
3133.41863	0.06773
3132.13286	0.06751
3130.84709	0.06744
3129.56132	0.06747
3128.27556	0.06748
3126.98979	0.06735
3125.70402	0.06712
3124.41825	0.06692
3123.13248	0.06691
3121.84671	0.06709
3120.56094	0.06724
3119.27517	0.06711
3117.98940	0.06667
3116.70364	0.06617
3115.41787	0.06588
3114.13210	0.06595
3112.84633	0.06627
3111.56056	0.06664
3110.27479	0.06689
3108.98902	0.06688
3107.70325	0.06651
3106.41749	0.06581
3105.13172	0.06510
3103.84595	0.06477
3102.56018	0.06498
3101.27441	0.06551
3099.98864	0.06599
3098.70287	0.06623
3097.41710	0.06629
3096.13133	0.06627
3094.84557	0.06616
3093.55980	0.06589
3092.27403	0.06540
3090.98826	0.06476
3089.70249	0.06421
3088.41672	0.06403
3087.13095	0.06429
3085.84518	0.06475
3084.55942	0.06506
3083.27365	0.06505
3081.98788	0.06479
3080.70211	0.06445
3079.41634	0.06413
3078.13057	0.06390
3076.84480	0.06381
3075.55903	0.06382
3074.27326	0.06383
3072.98750	0.06377
3071.70173	0.06370
3070.41596	0.06370
3069.13019	0.06377
3067.84442	0.06386
3066.55865	0.06394
3065.27288	0.06400
3063.98711	0.06403
3062.70135	0.06394
3061.41558	0.06364
3060.12981	0.06315
3058.84404	0.06269
3057.55827	0.06256
3056.27250	0.06286
3054.98673	0.06332
3053.70096	0.06356
3052.41519	0.06338
3051.12943	0.06291
3049.84366	0.06236
3048.55789	0.06191
3047.27212	0.06168
3045.98635	0.06168
3044.70058	0.06183
3043.41481	0.06193
3042.12904	0.06183
3040.84328	0.06158
3039.55751	0.06139
3038.27174	0.06147
3036.98597	0.06185
3035.70020	0.06229
3034.41443	0.06243
3033.12866	0.06216
3031.84289	0.06165
3030.55712	0.06125
3029.27136	0.06115
3027.98559	0.06126
3026.69982	0.06135
3025.41405	0.06126
3024.12828	0.06098
3022.84251	0.06061
3021.55674	0.06031
3020.27097	0.06023
3018.98521	0.06035
3017.69944	0.06048
3016.41367	0.06040
3015.12790	0.06008
3013.84213	0.05965
3012.55636	0.05933
3011.27059	0.05919
3009.98482	0.05915
3008.69905	0.05911
3007.41329	0.05898
3006.12752	0.05884
3004.84175	0.05875
3003.55598	0.05868
3002.27021	0.05859
3000.98444	0.05847
2999.69867	0.05842
2998.41290	0.05850
2997.12714	0.05867
2995.84137	0.05880
2994.55560	0.05875
2993.26983	0.05854
2991.98406	0.05830
2990.69829	0.05813
2989.41252	0.05804
2988.12675	0.05799
2986.84098	0.05799
2985.55522	0.05804
2984.26945	0.05811
2982.98368	0.05812
2981.69791	0.05816
2980.41214	0.05835
2979.12637	0.05877
2977.84060	0.05930
2976.55483	0.05981
2975.26907	0.06028
2973.98330	0.06082
2972.69753	0.06150
2971.41176	0.06224
2970.12599	0.06295
2968.84022	0.06365
2967.55445	0.06445
2966.26868	0.06545
2964.98291	0.06661
2963.69715	0.06769
2962.41138	0.06848
2961.12561	0.06899
2959.83984	0.06947
2958.55407	0.07012
2957.26830	0.07095
2955.98253	0.07186
2954.69676	0.07271
2953.41100	0.07336
2952.12523	0.07364
2950.83946	0.07350
2949.55369	0.07311
2948.26792	0.07274
2946.98215	0.07253
2945.69638	0.07244
2944.41061	0.07235
2943.12484	0.07228
2941.83908	0.07232
2940.55331	0.07247
2939.26754	0.07270
2937.98177	0.07307
2936.69600	0.07361
2935.41023	0.07415
2934.12446	0.07441
2932.83869	0.07429
2931.55293	0.07404
2930.26716	0.07394
2928.98139	0.07405
2927.69562	0.07422
2926.40985	0.07426
2925.12408	0.07403
2923.83831	0.07347
2922.55254	0.07257
2921.26677	0.07134
2919.98101	0.06990
2918.69524	0.06850
2917.40947	0.06742
2916.12370	0.06691
2914.83793	0.06707
2913.55216	0.06781
2912.26639	0.06886
2910.98062	0.06994
2909.69486	0.07077
2908.40909	0.07119
2907.12332	0.07124
2905.83755	0.07108
2904.55178	0.07080
2903.26601	0.07041
2901.98024	0.06998
2900.69447	0.06966
2899.40870	0.06951
2898.12294	0.06942
2896.83717	0.06923
2895.55140	0.06890
2894.26563	0.06846
2892.97986	0.06797
2891.69409	0.06750
2890.40832	0.06709
2889.12255	0.06670
2887.83678	0.06628
2886.55102	0.06576
2885.26525	0.06521
2883.97948	0.06482
2882.69371	0.06475
2881.40794	0.06491
2880.12217	0.06509
2878.83640	0.06517
2877.55063	0.06524
2876.26487	0.06543
2874.97910	0.06575
2873.69333	0.06610
2872.40756	0.06641
2871.12179	0.06664
2869.83602	0.06675
2868.55025	0.06676
2867.26448	0.06672
2865.97871	0.06668
2864.69295	0.06660
2863.40718	0.06643
2862.12141	0.06623
2860.83564	0.06615
2859.54987	0.06615
2858.26410	0.06587
2856.97833	0.06499
2855.69256	0.06360
2854.40680	0.06211
2853.12103	0.06080
2851.83526	0.05970
2850.54949	0.05882
2849.26372	0.05835
2847.97795	0.05842
2846.69218	0.05893
2845.40641	0.05961
2844.12064	0.06020
2842.83488	0.06058
2841.54911	0.06067
2840.26334	0.06042
2838.97757	0.05984
2837.69180	0.05909
2836.40603	0.05840
2835.12026	0.05790
2833.83449	0.05755
2832.54873	0.05714
2831.26296	0.05657
2829.97719	0.05594
2828.69142	0.05540
2827.40565	0.05505
2826.11988	0.05485
2824.83411	0.05473
2823.54834	0.05460
2822.26257	0.05441
2820.97681	0.05411
2819.69104	0.05375
2818.40527	0.05340
2817.11950	0.05309
2815.83373	0.05283
2814.54796	0.05261
2813.26219	0.05246
2811.97642	0.05239
2810.69066	0.05237
2809.40489	0.05231
2808.11912	0.05213
2806.83335	0.05184
2805.54758	0.05156
2804.26181	0.05136
2802.97604	0.05126
2801.69027	0.05123
2800.40450	0.05124
2799.11874	0.05122
2797.83297	0.05106
2796.54720	0.05076
2795.26143	0.05046
2793.97566	0.05034
2792.68989	0.05043
2791.40412	0.05062
2790.11835	0.05071
2788.83259	0.05059
2787.54682	0.05028
2786.26105	0.04990
2784.97528	0.04955
2783.68951	0.04928
2782.40374	0.04916
2781.11797	0.04925
2779.83220	0.04950
2778.54643	0.04979
2777.26067	0.04997
2775.97490	0.04995
2774.68913	0.04970
2773.40336	0.04928
2772.11759	0.04882
2770.83182	0.04846
2769.54605	0.04823
2768.26028	0.04809
2766.97452	0.04798
2765.68875	0.04795
2764.40298	0.04803
2763.11721	0.04811
2761.83144	0.04806
2760.54567	0.04788
2759.25990	0.04767
2757.97413	0.04755
2756.68836	0.04756
2755.40260	0.04769
2754.11683	0.04783
2752.83106	0.04788
2751.54529	0.04774
2750.25952	0.04745
2748.97375	0.04719
2747.68798	0.04711
2746.40221	0.04719
2745.11645	0.04728
2743.83068	0.04726
2742.54491	0.04712
2741.25914	0.04691
2739.97337	0.04670
2738.68760	0.04647
2737.40183	0.04623
2736.11606	0.04604
2734.83029	0.04597
2733.54453	0.04606
2732.25876	0.04623
2730.97299	0.04636
2729.68722	0.04634
2728.40145	0.04623
2727.11568	0.04615
2725.82991	0.04614
2724.54414	0.04613
2723.25838	0.04608
2721.97261	0.04603
2720.68684	0.04603
2719.40107	0.04605
2718.11530	0.04598
2716.82953	0.04577
2715.54376	0.04549
2714.25799	0.04531
2712.97222	0.04530
2711.68646	0.04539
2710.40069	0.04545
2709.11492	0.04541
2707.82915	0.04526
2706.54338	0.04506
2705.25761	0.04489
2703.97184	0.04482
2702.68607	0.04482
2701.40031	0.04483
2700.11454	0.04485
2698.82877	0.04490
2697.54300	0.04496
2696.25723	0.04495
2694.97146	0.04483
2693.68569	0.04470
2692.39992	0.04470
2691.11415	0.04483
2689.82839	0.04501
2688.54262	0.04511
2687.25685	0.04507
2685.97108	0.04482
2684.68531	0.04437
2683.39954	0.04384
2682.11377	0.04344
2680.82800	0.04329
2679.54224	0.04335
2678.25647	0.04346
2676.97070	0.04355
2675.68493	0.04364
2674.39916	0.04375
2673.11339	0.04386
2671.82762	0.04387
2670.54185	0.04378
2669.25608	0.04365
2667.97032	0.04359
2666.68455	0.04363
2665.39878	0.04372
2664.11301	0.04379
2662.82724	0.04377
2661.54147	0.04368
2660.25570	0.04357
2658.96993	0.04349
2657.68417	0.04342
2656.39840	0.04337
2655.11263	0.04331
2653.82686	0.04321
2652.54109	0.04296
2651.25532	0.04253
2649.96955	0.04204
2648.68378	0.04171
2647.39801	0.04161
2646.11225	0.04166
2644.82648	0.04178
2643.54071	0.04193
2642.25494	0.04201
2640.96917	0.04185
2639.68340	0.04143
2638.39763	0.04089
2637.11186	0.04045
2635.82609	0.04020
2634.54033	0.04012
2633.25456	0.04012
2631.96879	0.04013
2630.68302	0.04007
2629.39725	0.03989
2628.11148	0.03958
2626.82571	0.03920
2625.53994	0.03887
2624.25418	0.03871
2622.96841	0.03870
2621.68264	0.03878
2620.39687	0.03881
2619.11110	0.03867
2617.82533	0.03836
2616.53956	0.03801
2615.25379	0.03776
2613.96802	0.03763
2612.68226	0.03753
2611.39649	0.03739
2610.11072	0.03724
2608.82495	0.03718
2607.53918	0.03727
2606.25341	0.03749
2604.96764	0.03777
2603.68187	0.03793
2602.39611	0.03784
2601.11034	0.03752
2599.82457	0.03713
2598.53880	0.03688
2597.25303	0.03688
2595.96726	0.03702
2594.68149	0.03713
2593.39572	0.03709
2592.10995	0.03701
2590.82419	0.03697
2589.53842	0.03688
2588.25265	0.03654
2586.96688	0.03598
2585.68111	0.03551
2584.39534	0.03539
2583.10957	0.03557
2581.82380	0.03575
2580.53804	0.03570
2579.25227	0.03544
2577.96650	0.03518
2576.68073	0.03509
2575.39496	0.03519
2574.10919	0.03529
2572.82342	0.03521
2571.53765	0.03495
2570.25188	0.03469
2568.96612	0.03461
2567.68035	0.03480
2566.39458	0.03517
2565.10881	0.03551
2563.82304	0.03555
2562.53727	0.03526
2561.25150	0.03484
2559.96573	0.03456
2558.67997	0.03451
2557.39420	0.03457
2556.10843	0.03459
2554.82266	0.03452
2553.53689	0.03435
2552.25112	0.03409
2550.96535	0.03379
2549.67958	0.03355
2548.39381	0.03340
2547.10805	0.03334
2545.82228	0.03334
2544.53651	0.03334
2543.25074	0.03327
2541.96497	0.03320
2540.67920	0.03330
2539.39343	0.03365
2538.10766	0.03403
2536.82190	0.03412
2535.53613	0.03383
2534.25036	0.03337
2532.96459	0.03301
2531.67882	0.03282
2530.39305	0.03276
2529.10728	0.03286
2527.82151	0.03320
2526.53574	0.03369
2525.24998	0.03405
2523.96421	0.03406
2522.67844	0.03378
2521.39267	0.03347
2520.10690	0.03334
2518.82113	0.03342
2517.53536	0.03356
2516.24959	0.03361
2514.96383	0.03352
2513.67806	0.03338
2512.39229	0.03327
2511.10652	0.03319
2509.82075	0.03316
2508.53498	0.03325
2507.24921	0.03340
2505.96344	0.03342
2504.67767	0.03322
2503.39191	0.03285
2502.10614	0.03245
2500.82037	0.03206
2499.53460	0.03173
2498.24883	0.03154
2496.96306	0.03156
2495.67729	0.03177
2494.39152	0.03213
2493.10576	0.03255
2491.81999	0.03296
2490.53422	0.03327
2489.24845	0.03338
2487.96268	0.03320
2486.67691	0.03274
2485.39114	0.03215
2484.10537	0.03164
2482.81960	0.03136
2481.53384	0.03126
2480.24807	0.03122
2478.96230	0.03116
2477.67653	0.03111
2476.39076	0.03119
2475.10499	0.03141
2473.81922	0.03165
2472.53345	0.03175
2471.24769	0.03178
2469.96192	0.03188
2468.67615	0.03208
2467.39038	0.03223
2466.10461	0.03213
2464.81884	0.03176
2463.53307	0.03135
2462.24730	0.03123
2460.96153	0.03150
2459.67577	0.03189
2458.39000	0.03209
2457.10423	0.03208
2455.81846	0.03211
2454.53269	0.03230
2453.24692	0.03241
2451.96115	0.03213
2450.67538	0.03155
2449.38962	0.03104
2448.10385	0.03081
2446.81808	0.03073
2445.53231	0.03066
2444.24654	0.03060
2442.96077	0.03058
2441.67500	0.03056
2440.38923	0.03046
2439.10346	0.03032
2437.81770	0.03019
2436.53193	0.03006
2435.24616	0.02996
2433.96039	0.02988
2432.67462	0.02979
2431.38885	0.02968
2430.10308	0.02958
2428.81731	0.02954
2427.53155	0.02962
2426.24578	0.02981
2424.96001	0.03002
2423.67424	0.03014
2422.38847	0.03018
2421.10270	0.03027
2419.81693	0.03043
2418.53116	0.03050
2417.24539	0.03035
2415.95963	0.03002
2414.67386	0.02968
2413.38809	0.02946
2412.10232	0.02935
2410.81655	0.02929
2409.53078	0.02920
2408.24501	0.02914
2406.95924	0.02924
2405.67347	0.02957
2404.38771	0.03001
2403.10194	0.03027
2401.81617	0.03022
2400.53040	0.03001
2399.24463	0.02994
2397.95886	0.03012
2396.67309	0.03035
2395.38732	0.03034
2394.10156	0.03011
2392.81579	0.02990
2391.53002	0.02994
2390.24425	0.03018
2388.95848	0.03038
2387.67271	0.03041
2386.38694	0.03030
2385.10117	0.03020
2383.81540	0.03020
2382.52964	0.03029
2381.24387	0.03044
2379.95810	0.03062
2378.67233	0.03084
2377.38656	0.03110
2376.10079	0.03137
2374.81502	0.03162
2373.52925	0.03179
2372.24349	0.03189
2370.95772	0.03195
2369.67195	0.03219
2368.38618	0.03262
2367.10041	0.03310
2365.81464	0.03340
2364.52887	0.03357
2363.24310	0.03361
2361.95733	0.03357
2360.67157	0.03348
2359.38580	0.03351
2358.10003	0.03355
2356.81426	0.03354
2355.52849	0.03347
2354.24272	0.03330
2352.95695	0.03306
2351.67118	0.03266
2350.38542	0.03220
2349.09965	0.03198
2347.81388	0.03216
2346.52811	0.03238
2345.24234	0.03244
2343.95657	0.03244
2342.67080	0.03256
2341.38503	0.03265
2340.09926	0.03267
2338.81350	0.03295
2337.52773	0.03335
2336.24196	0.03336
2334.95619	0.03300
2333.67042	0.03279
2332.38465	0.03286
2331.09888	0.03263
2329.81311	0.03263
2328.52735	0.03356
2327.24158	0.03434
2325.95581	0.03480
2324.67004	0.03530
2323.38427	0.03496
2322.09850	0.03382
2320.81273	0.03299
2319.52696	0.03208
2318.24119	0.03126
2316.95543	0.03092
2315.66966	0.03046
2314.38389	0.03003
2313.09812	0.02988
2311.81235	0.02973
2310.52658	0.02978
2309.24081	0.02991
2307.95504	0.02993
2306.66928	0.02995
2305.38351	0.02971
2304.09774	0.02932
2302.81197	0.02895
2301.52620	0.02863
2300.24043	0.02840
2298.95466	0.02813
2297.66889	0.02793
2296.38312	0.02792
2295.09736	0.02813
2293.81159	0.02847
2292.52582	0.02873
2291.24005	0.02879
2289.95428	0.02853
2288.66851	0.02797
2287.38274	0.02730
2286.09697	0.02682
2284.81121	0.02671
2283.52544	0.02682
2282.23967	0.02680
2280.95390	0.02643
2279.66813	0.02581
2278.38236	0.02520
2277.09659	0.02475
2275.81082	0.02443
2274.52505	0.02423
2273.23929	0.02418
2271.95352	0.02423
2270.66775	0.02419
2269.38198	0.02395
2268.09621	0.02359
2266.81044	0.02331
2265.52467	0.02329
2264.23890	0.02361
2262.95314	0.02412
2261.66737	0.02453
2260.38160	0.02459
2259.09583	0.02429
2257.81006	0.02377
2256.52429	0.02322
2255.23852	0.02268
2253.95275	0.02222
2252.66698	0.02201
2251.38122	0.02216
2250.09545	0.02249
2248.80968	0.02267
2247.52391	0.02280
2246.23814	0.02251
2244.95237	0.02206
2243.66660	0.02192
2242.38083	0.02223
2241.09507	0.02265
2239.80930	0.02267
2238.52353	0.02205
2237.23776	0.02099
2235.95199	0.01993
2234.66622	0.01928
2233.38045	0.01917
2232.09468	0.01934
2230.80891	0.01939
2229.52315	0.01924
2228.23738	0.01923
2226.95161	0.01958
2225.66584	0.01993
2224.38007	0.01970
2223.09430	0.01875
2221.80853	0.01754
2220.52276	0.01656
2219.23700	0.01606
2217.95123	0.01614
2216.66546	0.01689
2215.37969	0.01810
2214.09392	0.01912
2212.80815	0.01929
2211.52238	0.01861
2210.23661	0.01781
2208.95084	0.01763
2207.66508	0.01800
2206.37931	0.01814
2205.09354	0.01748
2203.80777	0.01637
2202.52200	0.01564
2201.23623	0.01558
2199.95046	0.01568
2198.66469	0.01534
2197.37893	0.01455
2196.09316	0.01372
2194.80739	0.01313
2193.52162	0.01298
2192.23585	0.01347
2190.95008	0.01461
2189.66431	0.01586
2188.37854	0.01647
2187.09277	0.01624
2185.80701	0.01552
2184.52124	0.01463
2183.23547	0.01350
2181.94970	0.01221
2180.66393	0.01127
2179.37816	0.01106
2178.09239	0.01131
2176.80662	0.01149
2175.52085	0.01146
2174.23509	0.01142
2172.94932	0.01138
2171.66355	0.01122
2170.37778	0.01104
2169.09201	0.01102
2167.80624	0.01118
2166.52047	0.01128
2165.23470	0.01121
2163.94894	0.01093
2162.66317	0.01024
2161.37740	0.00906
2160.09163	0.00788
2158.80586	0.00740
2157.52009	0.00765
2156.23432	0.00807
2154.94855	0.00832
2153.66278	0.00858
2152.37702	0.00909
2151.09125	0.00979
2149.80548	0.01058
2148.51971	0.01151
2147.23394	0.01268
2145.94817	0.01397
2144.66240	0.01501
2143.37663	0.01537
2142.09087	0.01491
2140.80510	0.01403
2139.51933	0.01338
2138.23356	0.01328
2136.94779	0.01348
2135.66202	0.01368
2134.37625	0.01386
2133.09048	0.01421
2131.80471	0.01472
2130.51895	0.01521
2129.23318	0.01552
2127.94741	0.01558
2126.66164	0.01546
2125.37587	0.01531
2124.09010	0.01527
2122.80433	0.01546
2121.51856	0.01594
2120.23280	0.01660
2118.94703	0.01717
2117.66126	0.01740
2116.37549	0.01726
2115.08972	0.01690
2113.80395	0.01651
2112.51818	0.01615
2111.23241	0.01589
2109.94664	0.01582
2108.66088	0.01598
2107.37511	0.01624
2106.08934	0.01642
2104.80357	0.01649
2103.51780	0.01650
2102.23203	0.01640
2100.94626	0.01590
2099.66049	0.01526
2098.37473	0.01422
2097.08896	0.01332
2095.80319	0.01304
2094.51742	0.01333
2093.23165	0.01394
2091.94588	0.01463
2090.66011	0.01522
2089.37434	0.01553
2088.08857	0.01558
2086.80281	0.01557
2085.51704	0.01562
2084.23127	0.01557
2082.94550	0.01516
2081.65973	0.01436
2080.37396	0.01354
2079.08819	0.01315
2077.80242	0.01337
2076.51666	0.01397
2075.23089	0.01454
2073.94512	0.01483
2072.65935	0.01481
2071.37358	0.01463
2070.08781	0.01443
2068.80204	0.01424
2067.51627	0.01400
2066.23050	0.01373
2064.94474	0.01358
2063.65897	0.01362
2062.37320	0.01376
2061.08743	0.01372
2059.80166	0.01330
2058.51589	0.01250
2057.23012	0.01153
2055.94435	0.01068
2054.65859	0.01018
2053.37282	0.01010
2052.08705	0.01023
2050.80128	0.01005
2049.51551	0.00917
2048.22974	0.00781
2046.94397	0.00683
2045.65820	0.00692
2044.37243	0.00791
2043.08667	0.00897
2041.80090	0.00932
2040.51513	0.00887
2039.22936	0.00806
2037.94359	0.00738
2036.65782	0.00695
2035.37205	0.00661
2034.08628	0.00625
2032.80052	0.00601
2031.51475	0.00616
2030.22898	0.00685
2028.94321	0.00790
2027.65744	0.00882
2026.37167	0.00913
2025.08590	0.00874
2023.80013	0.00794
2022.51436	0.00723
2021.22860	0.00698
2019.94283	0.00716
2018.65706	0.00729
2017.37129	0.00691
2016.08552	0.00607
2014.79975	0.00536
2013.51398	0.00540
2012.22821	0.00623
2010.94245	0.00727
2009.65668	0.00765
2008.37091	0.00699
2007.08514	0.00574
2005.79937	0.00486
2004.51360	0.00502
2003.22783	0.00608
2001.94206	0.00734
2000.65629	0.00822
1999.37053	0.00877
1998.08476	0.00942
1996.79899	0.01049
1995.51322	0.01182
1994.22745	0.01299
1992.94168	0.01369
1991.65591	0.01392
1990.37014	0.01386
1989.08438	0.01362
1987.79861	0.01312
1986.51284	0.01232
1985.22707	0.01144
1983.94130	0.01099
1982.65553	0.01123
1981.36976	0.01186
1980.08399	0.01232
1978.79822	0.01232
1977.51246	0.01203
1976.22669	0.01186
1974.94092	0.01208
1973.65515	0.01249
1972.36938	0.01262
1971.08361	0.01220
1969.79784	0.01145
1968.51207	0.01085
1967.22631	0.01067
1965.94054	0.01089
1964.65477	0.01124
1963.36900	0.01127
1962.08323	0.01073
1960.79746	0.00988
1959.51169	0.00945
1958.22592	0.00990
1956.94015	0.01103
1955.65439	0.01226
1954.36862	0.01320
1953.08285	0.01378
1951.79708	0.01405
1950.51131	0.01403
1949.22554	0.01386
1947.93977	0.01374
1946.65400	0.01376
1945.36823	0.01383
1944.08247	0.01390
1942.79670	0.01405
1941.51093	0.01437
1940.22516	0.01483
1938.93939	0.01528
1937.65362	0.01560
1936.36785	0.01566
1935.08208	0.01538
1933.79632	0.01487
1932.51055	0.01452
1931.22478	0.01475
1929.93901	0.01557
1928.65324	0.01664
1927.36747	0.01743
1926.08170	0.01760
1924.79593	0.01715
1923.51016	0.01639
1922.22440	0.01568
1920.93863	0.01525
1919.65286	0.01506
1918.36709	0.01503
1917.08132	0.01520
1915.79555	0.01565
1914.50978	0.01628
1913.22401	0.01683
1911.93825	0.01709
1910.65248	0.01703
1909.36671	0.01680
1908.08094	0.01656
1906.79517	0.01646
1905.50940	0.01655
1904.22363	0.01681
1902.93786	0.01710
1901.65209	0.01729
1900.36633	0.01733
1899.08056	0.01725
1897.79479	0.01710
1896.50902	0.01695
1895.22325	0.01683
1893.93748	0.01674
1892.65171	0.01664
1891.36594	0.01656
1890.08018	0.01656
1888.79441	0.01670
1887.50864	0.01692
1886.22287	0.01701
1884.93710	0.01685
1883.65133	0.01648
1882.36556	0.01613
1881.07979	0.01600
1879.79402	0.01609
1878.50826	0.01627
1877.22249	0.01642
1875.93672	0.01649
1874.65095	0.01652
1873.36518	0.01656
1872.07941	0.01665
1870.79364	0.01683
1869.50787	0.01704
1868.22211	0.01720
1866.93634	0.01723
1865.65057	0.01722
1864.36480	0.01728
1863.07903	0.01746
1861.79326	0.01771
1860.50749	0.01793
1859.22172	0.01807
1857.93595	0.01809
1856.65019	0.01801
1855.36442	0.01787
1854.07865	0.01776
1852.79288	0.01771
1851.50711	0.01768
1850.22134	0.01761
1848.93557	0.01750
1847.64980	0.01741
1846.36404	0.01739
1845.07827	0.01746
1843.79250	0.01754
1842.50673	0.01763
1841.22096	0.01775
1839.93519	0.01788
1838.64942	0.01791
1837.36365	0.01782
1836.07788	0.01768
1834.79212	0.01763
1833.50635	0.01773
1832.22058	0.01797
1830.93481	0.01823
1829.64904	0.01835
1828.36327	0.01824
1827.07750	0.01803
1825.79173	0.01788
1824.50597	0.01786
1823.22020	0.01793
1821.93443	0.01798
1820.64866	0.01796
1819.36289	0.01786
1818.07712	0.01774
1816.79135	0.01765
1815.50558	0.01763
1814.21981	0.01767
1812.93405	0.01774
1811.64828	0.01783
1810.36251	0.01795
1809.07674	0.01809
1807.79097	0.01821
1806.50520	0.01823
1805.21943	0.01817
1803.93366	0.01812
1802.64790	0.01813
1801.36213	0.01817
1800.07636	0.01819
1798.79059	0.01815
1797.50482	0.01810
1796.21905	0.01810
1794.93328	0.01819
1793.64751	0.01837
1792.36174	0.01856
1791.07598	0.01867
1789.79021	0.01869
1788.50444	0.01865
1787.21867	0.01859
1785.93290	0.01853
1784.64713	0.01849
1783.36136	0.01849
1782.07559	0.01854
1780.78983	0.01861
1779.50406	0.01864
1778.21829	0.01864
1776.93252	0.01866
1775.64675	0.01875
1774.36098	0.01890
1773.07521	0.01901
1771.78944	0.01901
1770.50367	0.01896
1769.21791	0.01895
1767.93214	0.01896
1766.64637	0.01891
1765.36060	0.01882
1764.07483	0.01874
1762.78906	0.01868
1761.50329	0.01859
1760.21752	0.01849
1758.93176	0.01844
1757.64599	0.01846
1756.36022	0.01847
1755.07445	0.01839
1753.78868	0.01827
1752.50291	0.01813
1751.21714	0.01798
1749.93137	0.01777
1748.64560	0.01750
1747.35984	0.01718
1746.07407	0.01686
1744.78830	0.01658
1743.50253	0.01638
1742.21676	0.01628
1740.93099	0.01622
1739.64522	0.01617
1738.35945	0.01614
1737.07369	0.01628
1735.78792	0.01665
1734.50215	0.01710
1733.21638	0.01742
1731.93061	0.01757
1730.64484	0.01764
1729.35907	0.01771
1728.07330	0.01778
1726.78753	0.01793
1725.50177	0.01823
1724.21600	0.01866
1722.93023	0.01914
1721.64446	0.01958
1720.35869	0.02000
1719.07292	0.02042
1717.78715	0.02076
1716.50138	0.02096
1715.21561	0.02109
1713.92985	0.02128
1712.64408	0.02158
1711.35831	0.02196
1710.07254	0.02237
1708.78677	0.02278
1707.50100	0.02319
1706.21523	0.02356
1704.92946	0.02388
1703.64370	0.02424
1702.35793	0.02475
1701.07216	0.02533
1699.78639	0.02581
1698.50062	0.02616
1697.21485	0.02646
1695.92908	0.02668
1694.64331	0.02671
1693.35754	0.02668
1692.07178	0.02679
1690.78601	0.02711
1689.50024	0.02752
1688.21447	0.02798
1686.92870	0.02854
1685.64293	0.02910
1684.35716	0.02949
1683.07139	0.02964
1681.78563	0.02971
1680.49986	0.02989
1679.21409	0.03021
1677.92832	0.03063
1676.64255	0.03106
1675.35678	0.03139
1674.07101	0.03157
1672.78524	0.03175
1671.49947	0.03205
1670.21371	0.03243
1668.92794	0.03275
1667.64217	0.03296
1666.35640	0.03316
1665.07063	0.03345
1663.78486	0.03377
1662.49909	0.03403
1661.21332	0.03423
1659.92756	0.03440
1658.64179	0.03459
1657.35602	0.03486
1656.07025	0.03525
1654.78448	0.03578
1653.49871	0.03619
1652.21294	0.03626
1650.92717	0.03609
1649.64140	0.03606
1648.35564	0.03629
1647.06987	0.03663
1645.78410	0.03682
1644.49833	0.03686
1643.21256	0.03687
1641.92679	0.03694
1640.64102	0.03704
1639.35525	0.03715
1638.06949	0.03729
1636.78372	0.03747
1635.49795	0.03758
1634.21218	0.03757
1632.92641	0.03753
1631.64064	0.03761
1630.35487	0.03782
1629.06910	0.03807
1627.78333	0.03826
1626.49757	0.03837
1625.21180	0.03848
1623.92603	0.03861
1622.64026	0.03874
1621.35449	0.03885
1620.06872	0.03901
1618.78295	0.03928
1617.49718	0.03963
1616.21142	0.03989
1614.92565	0.04004
1613.63988	0.04017
1612.35411	0.04037
1611.06834	0.04064
1609.78257	0.04094
1608.49680	0.04124
1607.21103	0.04154
1605.92526	0.04184
1604.63950	0.04212
1603.35373	0.04239
1602.06796	0.04264
1600.78219	0.04290
1599.49642	0.04322
1598.21065	0.04362
1596.92488	0.04404
1595.63911	0.04445
1594.35335	0.04483
1593.06758	0.04521
1591.78181	0.04561
1590.49604	0.04602
1589.21027	0.04641
1587.92450	0.04679
1586.63873	0.04722
1585.35296	0.04769
1584.06719	0.04818
1582.78143	0.04866
1581.49566	0.04911
1580.20989	0.04957
1578.92412	0.05009
1577.63835	0.05071
1576.35258	0.05132
1575.06681	0.05178
1573.78104	0.05215
1572.49528	0.05254
1571.20951	0.05300
1569.92374	0.05344
1568.63797	0.05381
1567.35220	0.05412
1566.06643	0.05445
1564.78066	0.05481
1563.49489	0.05522
1562.20912	0.05573
1560.92336	0.05635
1559.63759	0.05693
1558.35182	0.05730
1557.06605	0.05746
1555.78028	0.05756
1554.49451	0.05765
1553.20874	0.05772
1551.92297	0.05776
1550.63721	0.05779
1549.35144	0.05779
1548.06567	0.05773
1546.77990	0.05763
1545.49413	0.05749
1544.20836	0.05728
1542.92259	0.05700
1541.63682	0.05670
1540.35105	0.05640
1539.06529	0.05605
1537.77952	0.05567
1536.49375	0.05540
1535.20798	0.05530
1533.92221	0.05528
1532.63644	0.05522
1531.35067	0.05515
1530.06490	0.05519
1528.77914	0.05543
1527.49337	0.05584
1526.20760	0.05634
1524.92183	0.05692
1523.63606	0.05762
1522.35029	0.05844
1521.06452	0.05927
1519.77875	0.06007
1518.49298	0.06091
1517.20722	0.06191
1515.92145	0.06305
1514.63568	0.06429
1513.34991	0.06561
1512.06414	0.06697
1510.77837	0.06837
1509.49260	0.06988
1508.20683	0.07150
1506.92107	0.07310
1505.63530	0.07454
1504.34953	0.07577
1503.06376	0.07691
1501.77799	0.07804
1500.49222	0.07914
1499.20645	0.08016
1497.92068	0.08113
1496.63491	0.08205
1495.34915	0.08293
1494.06338	0.08381
1492.77761	0.08475
1491.49184	0.08575
1490.20607	0.08678
1488.92030	0.08781
1487.63453	0.08887
1486.34876	0.09000
1485.06299	0.09122
1483.77723	0.09256
1482.49146	0.09399
1481.20569	0.09545
1479.91992	0.09692
1478.63415	0.09840
1477.34838	0.09989
1476.06261	0.10134
1474.77684	0.10267
1473.49108	0.10383
1472.20531	0.10481
1470.91954	0.10565
1469.63377	0.10644
1468.34800	0.10725
1467.06223	0.10806
1465.77646	0.10884
1464.49069	0.10955
1463.20492	0.11021
1461.91916	0.11089
1460.63339	0.11169
1459.34762	0.11267
1458.06185	0.11373
1456.77608	0.11467
1455.49031	0.11536
1454.20454	0.11586
1452.91877	0.11628
1451.63301	0.11665
1450.34724	0.11689
1449.06147	0.11697
1447.77570	0.11688
1446.48993	0.11667
1445.20416	0.11635
1443.91839	0.11595
1442.63262	0.11547
1441.34685	0.11493
1440.06109	0.11444
1438.77532	0.11409
1437.48955	0.11393
1436.20378	0.11397
1434.91801	0.11420
1433.63224	0.11467
1432.34647	0.11542
1431.06070	0.11645
1429.77494	0.11775
1428.48917	0.11927
1427.20340	0.12097
1425.91763	0.12278
1424.63186	0.12462
1423.34609	0.12645
1422.06032	0.12824
1420.77455	0.12998
1419.48878	0.13153
1418.20302	0.13278
1416.91725	0.13375
1415.63148	0.13450
1414.34571	0.13510
1413.05994	0.13550
1411.77417	0.13562
1410.48840	0.13539
1409.20263	0.13478
1407.91687	0.13384
1406.63110	0.13262
1405.34533	0.13110
1404.05956	0.12928
1402.77379	0.12720
1401.48802	0.12494
1400.20225	0.12253
1398.91648	0.11997
1397.63071	0.11726
1396.34495	0.11448
1395.05918	0.11167
1393.77341	0.10880
1392.48764	0.10590
1391.20187	0.10306
1389.91610	0.10036
1388.63033	0.09783
1387.34456	0.09540
1386.05880	0.09302
1384.77303	0.09065
1383.48726	0.08829
1382.20149	0.08593
1380.91572	0.08359
1379.62995	0.08130
1378.34418	0.07905
1377.05841	0.07677
1375.77264	0.07442
1374.48688	0.07194
1373.20111	0.06936
1371.91534	0.06677
1370.62957	0.06429
1369.34380	0.06198
1368.05803	0.05987
1366.77226	0.05793
1365.48649	0.05611
1364.20073	0.05437
1362.91496	0.05266
1361.62919	0.05098
1360.34342	0.04938
1359.05765	0.04793
1357.77188	0.04667
1356.48611	0.04556
1355.20034	0.04457
1353.91457	0.04364
1352.62881	0.04277
1351.34304	0.04196
1350.05727	0.04120
1348.77150	0.04046
1347.48573	0.03976
1346.19996	0.03908
1344.91419	0.03846
1343.62842	0.03787
1342.34266	0.03728
1341.05689	0.03666
1339.77112	0.03601
1338.48535	0.03537
1337.19958	0.03478
1335.91381	0.03426
1334.62804	0.03381
1333.34227	0.03340
1332.05650	0.03301
1330.77074	0.03264
1329.48497	0.03224
1328.19920	0.03184
1326.91343	0.03145
1325.62766	0.03112
1324.34189	0.03086
1323.05612	0.03066
1321.77035	0.03048
1320.48459	0.03029
1319.19882	0.03006
1317.91305	0.02978
1316.62728	0.02951
1315.34151	0.02927
1314.05574	0.02906
1312.76997	0.02883
1311.48420	0.02855
1310.19843	0.02826
1308.91267	0.02799
1307.62690	0.02778
1306.34113	0.02761
1305.05536	0.02741
1303.76959	0.02715
1302.48382	0.02686
1301.19805	0.02658
1299.91228	0.02636
1298.62652	0.02621
1297.34075	0.02610
1296.05498	0.02599
1294.76921	0.02586
1293.48344	0.02569
1292.19767	0.02549
1290.91190	0.02528
1289.62613	0.02508
1288.34036	0.02490
1287.05460	0.02474
1285.76883	0.02460
1284.48306	0.02448
1283.19729	0.02436
1281.91152	0.02420
1280.62575	0.02398
1279.33998	0.02371
1278.05421	0.02345
1276.76845	0.02323
1275.48268	0.02308
1274.19691	0.02299
1272.91114	0.02293
1271.62537	0.02283
1270.33960	0.02266
1269.05383	0.02245
1267.76806	0.02226
1266.48229	0.02211
1265.19653	0.02202
1263.91076	0.02192
1262.62499	0.02179
1261.33922	0.02164
1260.05345	0.02152
1258.76768	0.02143
1257.48191	0.02134
1256.19614	0.02122
1254.91037	0.02108
1253.62461	0.02095
1252.33884	0.02085
1251.05307	0.02078
1249.76730	0.02071
1248.48153	0.02064
1247.19576	0.02058
1245.90999	0.02052
1244.62422	0.02046
1243.33846	0.02039
1242.05269	0.02030
1240.76692	0.02020
1239.48115	0.02010
1238.19538	0.02001
1236.90961	0.01995
1235.62384	0.01988
1234.33807	0.01980
1233.05230	0.01971
1231.76654	0.01962
1230.48077	0.01953
1229.19500	0.01943
1227.90923	0.01932
1226.62346	0.01922
1225.33769	0.01915
1224.05192	0.01911
1222.76615	0.01908
1221.48039	0.01905
1220.19462	0.01900
1218.90885	0.01893
1217.62308	0.01884
1216.33731	0.01874
1215.05154	0.01865
1213.76577	0.01857
1212.48000	0.01850
1211.19423	0.01845
1209.90847	0.01843
1208.62270	0.01841
1207.33693	0.01839
1206.05116	0.01835
1204.76539	0.01829
1203.47962	0.01823
1202.19385	0.01816
1200.90808	0.01804
1199.62232	0.01787
1198.33655	0.01778
1197.05078	0.01776
1195.76501	0.01780
1194.47924	0.01788
1193.19347	0.01796
1191.90770	0.01801
1190.62193	0.01797
1189.33616	0.01784
1188.05040	0.01766
1186.76463	0.01752
1185.47886	0.01747
1184.19309	0.01749
1182.90732	0.01750
1181.62155	0.01747
1180.33578	0.01742
1179.05001	0.01740
1177.76425	0.01744
1176.47848	0.01751
1175.19271	0.01761
1173.90694	0.01771
1172.62117	0.01782
1171.33540	0.01796
1170.04963	0.01813
1168.76386	0.01835
1167.47809	0.01861
1166.19233	0.01888
1164.90656	0.01916
1163.62079	0.01944
1162.33502	0.01971
1161.04925	0.01997
1159.76348	0.02024
1158.47771	0.02055
1157.19194	0.02091
1155.90618	0.02131
1154.62041	0.02173
1153.33464	0.02217
1152.04887	0.02258
1150.76310	0.02301
1149.47733	0.02352
1148.19156	0.02416
1146.90579	0.02492
1145.62002	0.02576
1144.33426	0.02665
1143.04849	0.02763
1141.76272	0.02870
1140.47695	0.02987
1139.19118	0.03115
1137.90541	0.03257
1136.61964	0.03415
1135.33387	0.03590
1134.04811	0.03781
1132.76234	0.03988
1131.47657	0.04212
1130.19080	0.04456
1128.90503	0.04725
1127.61926	0.05023
1126.33349	0.05350
1125.04772	0.05699
1123.76195	0.06066
1122.47619	0.06447
1121.19042	0.06840
1119.90465	0.07245
1118.61888	0.07662
1117.33311	0.08088
1116.04734	0.08522
1114.76157	0.08959
1113.47580	0.09401
1112.19004	0.09846
1110.90427	0.10287
1109.61850	0.10717
1108.33273	0.11131
1107.04696	0.11533
1105.76119	0.11930
1104.47542	0.12326
1103.18965	0.12723
1101.90388	0.13119
1100.61812	0.13508
1099.33235	0.13884
1098.04658	0.14246
1096.76081	0.14591
1095.47504	0.14922
1094.18927	0.15236
1092.90350	0.15533
1091.61773	0.15813
1090.33197	0.16076
1089.04620	0.16326
1087.76043	0.16570
1086.47466	0.16814
1085.18889	0.17059
1083.90312	0.17307
1082.61735	0.17559
1081.33158	0.17824
1080.04581	0.18111
1078.76005	0.18421
1077.47428	0.18752
1076.18851	0.19103
1074.90274	0.19474
1073.61697	0.19863
1072.33120	0.20268
1071.04543	0.20685
1069.75966	0.21115
1068.47390	0.21557
1067.18813	0.22008
1065.90236	0.22465
1064.61659	0.22933
1063.33082	0.23411
1062.04505	0.23890
1060.75928	0.24360
1059.47351	0.24815
1058.18774	0.25259
1056.90198	0.25697
1055.61621	0.26133
1054.33044	0.26569
1053.04467	0.27012
1051.75890	0.27470
1050.47313	0.27943
1049.18736	0.28430
1047.90159	0.28921
1046.61583	0.29412
1045.33006	0.29905
1044.04429	0.30406
1042.75852	0.30925
1041.47275	0.31460
1040.18698	0.32004
1038.90121	0.32549
1037.61544	0.33096
1036.32967	0.33644
1035.04391	0.34188
1033.75814	0.34717
1032.47237	0.35214
1031.18660	0.35672
1029.90083	0.36084
1028.61506	0.36451
1027.32929	0.36778
1026.04352	0.37067
1024.75775	0.37314
1023.47199	0.37515
1022.18622	0.37660
1020.90045	0.37741
1019.61468	0.37753
1018.32891	0.37695
1017.04314	0.37568
1015.75737	0.37372
1014.47160	0.37103
1013.18584	0.36759
1011.90007	0.36338
1010.61430	0.35842
1009.32853	0.35275
1008.04276	0.34639
1006.75699	0.33941
1005.47122	0.33188
1004.18545	0.32381
1002.89968	0.31523
1001.61392	0.30617
1000.32815	0.29672
999.04238	0.28692
997.75661	0.27683
996.47084	0.26653
995.18507	0.25627
993.89930	0.24625
992.61353	0.23658
991.32777	0.22721
990.04200	0.21814
988.75623	0.20935
987.47046	0.20086
986.18469	0.19265
984.89892	0.18468
983.61315	0.17697
982.32738	0.16962
981.04161	0.16276
979.75585	0.15647
978.47008	0.15079
977.18431	0.14567
975.89854	0.14108
974.61277	0.13700
973.32700	0.13353
972.04123	0.13075
970.75546	0.12877
969.46970	0.12767
968.18393	0.12745
966.89816	0.12806
965.61239	0.12929
964.32662	0.13078
963.04085	0.13218
961.75508	0.13313
960.46931	0.13333
959.18354	0.13259
957.89778	0.13088
956.61201	0.12837
955.32624	0.12533
954.04047	0.12202
952.75470	0.11857
951.46893	0.11511
950.18316	0.11175
948.89739	0.10860
947.61163	0.10561
946.32586	0.10269
945.04009	0.09973
943.75432	0.09679
942.46855	0.09394
941.18278	0.09124
939.89701	0.08870
938.61124	0.08630
937.32547	0.08401
936.03971	0.08185
934.75394	0.07980
933.46817	0.07788
932.18240	0.07611
930.89663	0.07448
929.61086	0.07297
928.32509	0.07153
927.03932	0.07017
925.75356	0.06890
924.46779	0.06775
923.18202	0.06666
921.89625	0.06562
920.61048	0.06465
919.32471	0.06378
918.03894	0.06303
916.75317	0.06232
915.46740	0.06155
914.18164	0.06069
912.89587	0.05978
911.61010	0.05892
910.32433	0.05816
909.03856	0.05752
907.75279	0.05695
906.46702	0.05643
905.18125	0.05597
903.89549	0.05555
902.60972	0.05513
901.32395	0.05468
900.03818	0.05417
898.75241	0.05360
897.46664	0.05302
896.18087	0.05252
894.89510	0.05217
893.60933	0.05196
892.32357	0.05183
891.03780	0.05179
889.75203	0.05195
888.46626	0.05248
887.18049	0.05354
885.89472	0.05527
884.60895	0.05774
883.32318	0.06098
882.03742	0.06478
880.75165	0.06863
879.46588	0.07189
878.18011	0.07430
876.89434	0.07620
875.60857	0.07818
874.32280	0.08039
873.03703	0.08237
871.75126	0.08341
870.46550	0.08312
869.17973	0.08159
867.89396	0.07913
866.60819	0.07614
865.32242	0.07293
864.03665	0.06974
862.75088	0.06672
861.46511	0.06393
860.17935	0.06143
858.89358	0.05926
857.60781	0.05744
856.32204	0.05594
855.03627	0.05469
853.75050	0.05359
852.46473	0.05256
851.17896	0.05160
849.89319	0.05078
848.60743	0.05010
847.32166	0.04953
846.03589	0.04897
844.75012	0.04840
843.46435	0.04785
842.17858	0.04735
840.89281	0.04692
839.60704	0.04655
838.32128	0.04620
837.03551	0.04585
835.74974	0.04551
834.46397	0.04523
833.17820	0.04503
831.89243	0.04486
830.60666	0.04467
829.32089	0.04447
828.03512	0.04433
826.74936	0.04427
825.46359	0.04423
824.17782	0.04409
822.89205	0.04378
821.60628	0.04334
820.32051	0.04294
819.03474	0.04271
817.74897	0.04263
816.46321	0.04260
815.17744	0.04258
813.89167	0.04257
812.60590	0.04253
811.32013	0.04242
810.03436	0.04223
808.74859	0.04202
807.46282	0.04180
806.17705	0.04159
804.89129	0.04136
803.60552	0.04115
802.31975	0.04101
801.03398	0.04093
799.74821	0.04086
798.46244	0.04075
797.17667	0.04061
795.89090	0.04052
794.60513	0.04049
793.31937	0.04047
792.03360	0.04038
790.74783	0.04024
789.46206	0.04008
788.17629	0.03995
786.89052	0.03987
785.60475	0.03980
784.31898	0.03966
783.03322	0.03943
781.74745	0.03923
780.46168	0.03916
779.17591	0.03924
777.89014	0.03933
776.60437	0.03933
775.31860	0.03921
774.03283	0.03903
772.74706	0.03888
771.46130	0.03881
770.17553	0.03885
768.88976	0.03895
767.60399	0.03902
766.31822	0.03903
765.03245	0.03898
763.74668	0.03895
762.46091	0.03900
761.17515	0.03911
759.88938	0.03926
758.60361	0.03938
757.31784	0.03946
756.03207	0.03949
754.74630	0.03944
753.46053	0.03932
752.17476	0.03919
750.88899	0.03912
749.60323	0.03915
748.31746	0.03920
747.03169	0.03918
745.74592	0.03909
744.46015	0.03897
743.17438	0.03882
741.88861	0.03866
740.60284	0.03852
739.31708	0.03843
738.03131	0.03839
736.74554	0.03832
735.45977	0.03818
734.17400	0.03808
732.88823	0.03808
731.60246	0.03816
730.31669	0.03820
729.03092	0.03818
727.74516	0.03818
726.45939	0.03827
725.17362	0.03846
723.88785	0.03870
722.60208	0.03868
721.31631	0.03846
720.03054	0.03818
718.74477	0.03788
717.45901	0.03761
716.17324	0.03744
714.88747	0.03740
713.60170	0.03746
712.31593	0.03754
711.03016	0.03756
709.74439	0.03750
708.45862	0.03737
707.17285	0.03724
705.88709	0.03713
704.60132	0.03706
703.31555	0.03703
702.02978	0.03702
700.74401	0.03701
699.45824	0.03696
698.17247	0.03688
696.88670	0.03677
695.60094	0.03667
694.31517	0.03659
693.02940	0.03656
691.74363	0.03660
690.45786	0.03671
689.17209	0.03684
687.88632	0.03693
686.60055	0.03692
685.31478	0.03680
684.02902	0.03660
682.74325	0.03639
681.45748	0.03622
680.17171	0.03609
678.88594	0.03601
677.60017	0.03599
676.31440	0.03606
675.02863	0.03627
673.74287	0.03659
672.45710	0.03694
671.17133	0.03721
669.88556	0.03740
668.59979	0.03766
667.31402	0.03771
666.02825	0.03745
664.74248	0.03731
663.45671	0.03712
662.17095	0.03683
660.88518	0.03651
659.59941	0.03617
658.31364	0.03583
657.02787	0.03552
655.74210	0.03528
654.45633	0.03516
653.17056	0.03516
651.88480	0.03523
650.59903	0.03532
649.31326	0.03541
648.02749	0.03548
646.74172	0.03548
645.45595	0.03541
644.17018	0.03531
642.88441	0.03528
641.59864	0.03538
640.31288	0.03561
639.02711	0.03592
637.74134	0.03630
636.45557	0.03673
635.16980	0.03722
633.88403	0.03773
632.59826	0.03826
631.31249	0.03888
630.02673	0.03991
628.74096	0.04121
627.45519	0.04176
626.16942	0.04340
624.88365	0.04610
623.59788	0.04961
622.31211	0.05372
621.02634	0.05774
619.74057	0.06115
618.45481	0.06440
617.16904	0.06813
615.88327	0.07222
614.59750	0.07603
613.31173	0.07963
612.02596	0.08447
610.74019	0.09226
609.45442	0.10275
608.16866	0.11329
606.88289	0.12140
605.59712	0.12679
604.31135	0.13047
603.02558	0.13296
601.73981	0.13388
600.45404	0.13279
599.16827	0.12978
597.88250	0.12549
596.59674	0.12071
595.31097	0.11604
594.02520	0.11188
592.73943	0.10851
591.45366	0.10608
590.16789	0.10468
588.88212	0.10427
587.59635	0.10477
586.31059	0.10608
585.02482	0.10806
583.73905	0.11057
582.45328	0.11350
581.16751	0.11677
579.88174	0.12037
578.59597	0.12426
577.31020	0.12835
576.02443	0.13252
574.73867	0.13664
573.45290	0.14065
572.16713	0.14461
570.88136	0.14872
569.59559	0.15320
568.30982	0.15817
567.02405	0.16353
565.73828	0.16891
564.45251	0.17369
563.16675	0.17717
561.88098	0.17875
560.59521	0.17810
559.30944	0.17514
558.02367	0.16991
556.73790	0.16275
555.45213	0.15424
554.16636	0.14515
552.88060	0.13615
551.59483	0.12769
550.30906	0.11994
549.02329	0.11290
547.73752	0.10653
546.45175	0.10085
545.16598	0.09593
543.88021	0.09169
542.59444	0.08789
541.30868	0.08426
540.02291	0.08065
538.73714	0.07718
537.45137	0.07403
536.16560	0.07130
534.87983	0.06893
533.59406	0.06677
532.30829	0.06474
531.02253	0.06281
529.73676	0.06097
528.45099	0.05915
527.16522	0.05736
525.87945	0.05566
524.59368	0.05415
523.30791	0.05284
522.02214	0.05162
520.73637	0.05038
519.45061	0.04913
518.16484	0.04790
516.87907	0.04671
515.59330	0.04560
514.30753	0.04460
513.02176	0.04370
511.73599	0.04289
510.45022	0.04213
509.16446	0.04139
507.87869	0.04070
506.59292	0.04008
505.30715	0.03952
504.02138	0.03900
502.73561	0.03849
501.44984	0.03801
500.16407	0.03752
498.87830	0.03699
497.59254	0.03645
496.30677	0.03594
495.02100	0.03553
493.73523	0.03523
492.44946	0.03499
491.16369	0.03476
489.87792	0.03451
488.59215	0.03429
487.30639	0.03414
486.02062	0.03410
484.73485	0.03411
483.44908	0.03411
482.16331	0.03409
480.87754	0.03414
479.59177	0.03431
478.30600	0.03458
477.02023	0.03489
475.73447	0.03515
474.44870	0.03537
473.16293	0.03560
471.87716	0.03584
470.59139	0.03601
469.30562	0.03600
468.01985	0.03576
466.73408	0.03540
465.44832	0.03500
464.16255	0.03461
462.87678	0.03419
461.59101	0.03368
460.30524	0.03315
459.01947	0.03267
457.73370	0.03230
456.44793	0.03202
455.16216	0.03178
453.87640	0.03151
452.59063	0.03117
451.30486	0.03075
450.01909	0.03029
448.73332	0.02988
447.44755	0.02959
446.16178	0.02944
444.87601	0.02938
443.59025	0.02933
442.30448	0.02924
441.01871	0.02908
439.73294	0.02888
438.44717	0.02871
437.16140	0.02860
435.87563	0.02857
434.58986	0.02860
433.30409	0.02862
432.01833	0.02860
430.73256	0.02850
429.44679	0.02835
428.16102	0.02819
426.87525	0.02804
425.58948	0.02791
424.30371	0.02776
423.01794	0.02757
421.73218	0.02738
420.44641	0.02724
419.16064	0.02717
417.87487	0.02713
416.58910	0.02706
415.30333	0.02696
414.01756	0.02685
412.73179	0.02679
411.44602	0.02678
410.16026	0.02682
408.87449	0.02690
407.58872	0.02704
406.30295	0.02719
405.01718	0.02733
403.73141	0.02742
402.44564	0.02750
401.15987	0.02763
399.87411	0.02782
