3997.45528 0.05087
3996.16951 0.05085
3994.88374 0.05097
3993.59798 0.05142
3992.31221 0.05210
3991.02644 0.05264
3989.74067 0.05261
3988.45490 0.05190
3987.16913 0.05079
3985.88336 0.04971
3984.59759 0.04890
3983.31183 0.04846
3982.02606 0.04842
3980.74029 0.04870
3979.45452 0.04902
3978.16875 0.04912
3976.88298 0.04903
3975.59721 0.04902
3974.31144 0.04925
3973.02567 0.04960
3971.73991 0.04983
3970.45414 0.04979
3969.16837 0.04943
3967.88260 0.04874
3966.59683 0.04791
3965.31106 0.04736
3964.02529 0.04738
3962.73952 0.04791
3961.45376 0.04871
3960.16799 0.04962
3958.88222 0.05053
3957.59645 0.05122
3956.31068 0.05146
3955.02491 0.05122
3953.73914 0.05069
3952.45337 0.05008
3951.16760 0.04955
3949.88184 0.04923
3948.59607 0.04926
3947.31030 0.04975
3946.02453 0.05057
3944.73876 0.05137
3943.45299 0.05179
3942.16722 0.05173
3940.88145 0.05131
3939.59569 0.05077
3938.30992 0.05031
3937.02415 0.05002
3935.73838 0.04984
3934.45261 0.04968
3933.16684 0.04962
3931.88107 0.04966
3930.59530 0.04957
3929.30953 0.04909
3928.02377 0.04835
3926.73800 0.04785
3925.45223 0.04786
3924.16646 0.04820
3922.88069 0.04839
3921.59492 0.04816
3920.30915 0.04770
3919.02338 0.04748
3917.73762 0.04784
3916.45185 0.04865
3915.16608 0.04946
3913.88031 0.04990
3912.59454 0.04985
3911.30877 0.04943
3910.02300 0.04893
3908.73723 0.04864
3907.45146 0.04871
3906.16570 0.04912
3904.87993 0.04962
3903.59416 0.04989
3902.30839 0.04973
3901.02262 0.04943
3899.73685 0.04964
3898.45108 0.05077
3897.16531 0.05246
3895.87955 0.05378
3894.59378 0.05393
3893.30801 0.05286
3892.02224 0.05131
3890.73647 0.05025
3889.45070 0.05020
3888.16493 0.05086
3886.87916 0.05153
3885.59339 0.05174
3884.30763 0.05141
3883.02186 0.05079
3881.73609 0.05016
3880.45032 0.04970
3879.16455 0.04947
3877.87878 0.04947
3876.59301 0.04962
3875.30724 0.04967
3874.02148 0.04931
3872.73571 0.04849
3871.44994 0.04758
3870.16417 0.04715
3868.87840 0.04743
3867.59263 0.04814
3866.30686 0.04868
3865.02109 0.04859
3863.73532 0.04783
3862.44956 0.04676
3861.16379 0.04591
3859.87802 0.04568
3858.59225 0.04608
3857.30648 0.04671
3856.02071 0.04703
3854.73494 0.04677
3853.44917 0.04616
3852.16341 0.04583
3850.87764 0.04629
3849.59187 0.04752
3848.30610 0.04877
3847.02033 0.04917
3845.73456 0.04842
3844.44879 0.04715
3843.16302 0.04619
3841.87725 0.04576
3840.59149 0.04554
3839.30572 0.04538
3838.01995 0.04553
3836.73418 0.04618
3835.44841 0.04699
3834.16264 0.04738
3832.87687 0.04722
3831.59110 0.04685
3830.30534 0.04663
3829.01957 0.04652
3827.73380 0.04629
3826.44803 0.04590
3825.16226 0.04549
3823.87649 0.04528
3822.59072 0.04534
3821.30495 0.04562
3820.01918 0.04599
3818.73342 0.04638
3817.44765 0.04679
3816.16188 0.04713
3814.87611 0.04718
3813.59034 0.04688
3812.30457 0.04663
3811.01880 0.04687
3809.73303 0.04752
3808.44726 0.04790
3807.16150 0.04756
3805.87573 0.04678
3804.58996 0.04628
3803.30419 0.04643
3802.01842 0.04700
3800.73265 0.04751
3799.44688 0.04765
3798.16111 0.04733
3796.87535 0.04662
3795.58958 0.04562
3794.30381 0.04452
3793.01804 0.04362
3791.73227 0.04320
3790.44650 0.04347
3789.16073 0.04423
3787.87496 0.04495
3786.58919 0.04509
3785.30343 0.04464
3784.01766 0.04405
3782.73189 0.04382
3781.44612 0.04409
3780.16035 0.04473
3778.87458 0.04553
3777.58881 0.04625
3776.30304 0.04667
3775.01728 0.04668
3773.73151 0.04636
3772.44574 0.04599
3771.15997 0.04586
3769.87420 0.04605
3768.58843 0.04632
3767.30266 0.04628
3766.01689 0.04572
3764.73112 0.04481
3763.44536 0.04389
3762.15959 0.04331
3760.87382 0.04322
3759.58805 0.04361
3758.30228 0.04429
3757.01651 0.04493
3755.73074 0.04521
3754.44497 0.04501
3753.15921 0.04457
3751.87344 0.04431
3750.58767 0.04446
3749.30190 0.04483
3748.01613 0.04501
3746.73036 0.04488
3745.44459 0.04484
3744.15882 0.04534
3742.87305 0.04639
3741.58729 0.04750
3740.30152 0.04804
3739.01575 0.04757
3737.72998 0.04610
3736.44421 0.04411
3735.15844 0.04251
3733.87267 0.04202
3732.58690 0.04258
3731.30114 0.04337
3730.01537 0.04345
3728.72960 0.04251
3727.44383 0.04104
3726.15806 0.03983
3724.87229 0.03950
3723.58652 0.04006
3722.30075 0.04094
3721.01498 0.04160
3719.72922 0.04198
3718.44345 0.04234
3717.15768 0.04266
3715.87191 0.04264
3714.58614 0.04227
3713.30037 0.04207
3712.01460 0.04244
3710.72883 0.04306
3709.44307 0.04322
3708.15730 0.04253
3706.87153 0.04128
3705.58576 0.04009
3704.29999 0.03935
3703.01422 0.03925
3701.72845 0.03972
3700.44268 0.04041
3699.15691 0.04097
3697.87115 0.04159
3696.58538 0.04269
3695.29961 0.04423
3694.01384 0.04562
3692.72807 0.04629
3691.44230 0.04606
3690.15653 0.04520
3688.87076 0.04440
3687.58500 0.04425
3686.29923 0.04460
3685.01346 0.04482
3683.72769 0.04448
3682.44192 0.04383
3681.15615 0.04362
3679.87038 0.04424
3678.58461 0.04532
3677.29884 0.04615
3676.01308 0.04633
3674.72731 0.04604
3673.44154 0.04564
3672.15577 0.04528
3670.87000 0.04492
3669.58423 0.04450
3668.29846 0.04406
3667.01269 0.04365
3665.72693 0.04331
3664.44116 0.04310
3663.15539 0.04308
3661.86962 0.04318
3660.58385 0.04318
3659.29808 0.04292
3658.01231 0.04255
3656.72654 0.04233
3655.44077 0.04244
3654.15501 0.04276
3652.86924 0.04320
3651.58347 0.04383
3650.29770 0.04471
3649.01193 0.04568
3647.72616 0.04648
3646.44039 0.04696
3645.15462 0.04710
3643.86886 0.04680
3642.58309 0.04598
3641.29732 0.04488
3640.01155 0.04407
3638.72578 0.04388
3637.44001 0.04420
3636.15424 0.04474
3634.86847 0.04545
3633.58270 0.04640
3632.29694 0.04748
3631.01117 0.04836
3629.72540 0.04886
3628.43963 0.04909
3627.15386 0.04930
3625.86809 0.04958
3624.58232 0.04975
3623.29655 0.04950
3622.01079 0.04872
3620.72502 0.04779
3619.43925 0.04727
3618.15348 0.04735
3616.86771 0.04782
3615.58194 0.04831
3614.29617 0.04868
3613.01040 0.04896
3611.72463 0.04925
3610.43887 0.04965
3609.15310 0.05024
3607.86733 0.05095
3606.58156 0.05145
3605.29579 0.05128
3604.01002 0.05024
3602.72425 0.04877
3601.43848 0.04774
3600.15272 0.04775
3598.86695 0.04843
3597.58118 0.04897
3596.29541 0.04897
3595.00964 0.04878
3593.72387 0.04888
3592.43810 0.04961
3591.15233 0.05079
3589.86656 0.05186
3588.58080 0.05228
3587.29503 0.05197
3586.00926 0.05129
3584.72349 0.05077
3583.43772 0.05090
3582.15195 0.05172
3580.86618 0.05270
3579.58041 0.05324
3578.29464 0.05330
3577.00888 0.05334
3575.72311 0.05370
3574.43734 0.05407
3573.15157 0.05401
3571.86580 0.05370
3570.58003 0.05375
3569.29426 0.05428
3568.00849 0.05466
3566.72273 0.05424
3565.43696 0.05322
3564.15119 0.05241
3562.86542 0.05232
3561.57965 0.05281
3560.29388 0.05329
3559.00811 0.05338
3557.72234 0.05322
3556.43657 0.05338
3555.15081 0.05421
3553.86504 0.05544
3552.57927 0.05635
3551.29350 0.05653
3550.00773 0.05632
3548.72196 0.05643
3547.43619 0.05716
3546.15042 0.05824
3544.86466 0.05927
3543.57889 0.06014
3542.29312 0.06083
3541.00735 0.06109
3539.72158 0.06064
3538.43581 0.05961
3537.15004 0.05852
3535.86427 0.05787
3534.57850 0.05790
3533.29274 0.05864
3532.00697 0.06001
3530.72120 0.06162
3529.43543 0.06278
3528.14966 0.06296
3526.86389 0.06224
3525.57812 0.06121
3524.29235 0.06052
3523.00659 0.06041
3521.72082 0.06070
3520.43505 0.06112
3519.14928 0.06155
3517.86351 0.06203
3516.57774 0.06249
3515.29197 0.06275
3514.00620 0.06274
3512.72043 0.06270
3511.43467 0.06293
3510.14890 0.06344
3508.86313 0.06394
3507.57736 0.06420
3506.29159 0.06414
3505.00582 0.06385
3503.72005 0.06340
3502.43428 0.06292
3501.14852 0.06259
3499.86275 0.06260
3498.57698 0.06308
3497.29121 0.06407
3496.00544 0.06546
3494.71967 0.06694
3493.43390 0.06816
3492.14813 0.06883
3490.86236 0.06882
3489.57660 0.06819
3488.29083 0.06722
3487.00506 0.06633
3485.71929 0.06581
3484.43352 0.06568
3483.14775 0.06584
3481.86198 0.06616
3480.57621 0.06656
3479.29045 0.06702
3478.00468 0.06758
3476.71891 0.06822
3475.43314 0.06875
3474.14737 0.06882
3472.86160 0.06828
3471.57583 0.06740
3470.29006 0.06663
3469.00429 0.06629
3467.71853 0.06640
3466.43276 0.06679
3465.14699 0.06719
3463.86122 0.06738
3462.57545 0.06733
3461.28968 0.06718
3460.00391 0.06715
3458.71814 0.06740
3457.43238 0.06795
3456.14661 0.06866
3454.86084 0.06926
3453.57507 0.06946
3452.28930 0.06927
3451.00353 0.06898
3449.71776 0.06895
3448.43199 0.06927
3447.14622 0.06976
3445.86046 0.07018
3444.57469 0.07037
3443.28892 0.07032
3442.00315 0.07006
3440.71738 0.06967
3439.43161 0.06940
3438.14584 0.06953
3436.86007 0.07025
3435.57431 0.07141
3434.28854 0.07256
3433.00277 0.07323
3431.71700 0.07334
3430.43123 0.07312
3429.14546 0.07284
3427.85969 0.07271
3426.57392 0.07291
3425.28815 0.07356
3424.00239 0.07446
3422.71662 0.07512
3421.43085 0.07514
3420.14508 0.07451
3418.85931 0.07360
3417.57354 0.07283
3416.28777 0.07243
3415.00200 0.07246
3413.71624 0.07280
3412.43047 0.07335
3411.14470 0.07402
3409.85893 0.07465
3408.57316 0.07509
3407.28739 0.07525
3406.00162 0.07518
3404.71585 0.07495
3403.43008 0.07460
3402.14432 0.07420
3400.85855 0.07392
3399.57278 0.07393
3398.28701 0.07417
3397.00124 0.07452
3395.71547 0.07481
3394.42970 0.07500
3393.14393 0.07527
3391.85817 0.07584
3390.57240 0.07663
3389.28663 0.07729
3388.00086 0.07749
3386.71509 0.07724
3385.42932 0.07694
3384.14355 0.07700
3382.85778 0.07738
3381.57201 0.07773
3380.28625 0.07778
3379.00048 0.07754
3377.71471 0.07713
3376.42894 0.07659
3375.14317 0.07610
3373.85740 0.07607
3372.57163 0.07682
3371.28586 0.07812
3370.00010 0.07926
3368.71433 0.07961
3367.42856 0.07917
3366.14279 0.07842
3364.85702 0.07782
3363.57125 0.07746
3362.28548 0.07721
3360.99971 0.07695
3359.71394 0.07678
3358.42818 0.07691
3357.14241 0.07741
3355.85664 0.07810
3354.57087 0.07859
3353.28510 0.07858
3351.99933 0.07809
3350.71356 0.07749
3349.42779 0.07719
3348.14202 0.07736
3346.85626 0.07776
3345.57049 0.07809
3344.28472 0.07821
3342.99895 0.07813
3341.71318 0.07790
3340.42741 0.07761
3339.14164 0.07746
3337.85587 0.07771
3336.57011 0.07829
3335.28434 0.07892
3333.99857 0.07942
3332.71280 0.07981
3331.42703 0.08010
3330.14126 0.08011
3328.85549 0.07971
3327.56972 0.07908
3326.28395 0.07859
3324.99819 0.07845
3323.71242 0.07858
3322.42665 0.07882
3321.14088 0.07911
3319.85511 0.07948
3318.56934 0.07987
3317.28357 0.08014
3315.99780 0.08022
3314.71204 0.08021
3313.42627 0.08026
3312.14050 0.08029
3310.85473 0.08010
3309.56896 0.07961
3308.28319 0.07913
3306.99742 0.07902
3305.71165 0.07941
3304.42588 0.07997
3303.14012 0.08023
3301.85435 0.07995
3300.56858 0.07930
3299.28281 0.07859
3297.99704 0.07807
3296.71127 0.07781
3295.42550 0.07780
3294.13973 0.07806
3292.85397 0.07858
3291.56820 0.07921
3290.28243 0.07976
3288.99666 0.08003
3287.71089 0.08002
3286.42512 0.07994
3285.13935 0.08003
3283.85358 0.08030
3282.56781 0.08059
3281.28205 0.08075
3279.99628 0.08071
3278.71051 0.08043
3277.42474 0.07989
3276.13897 0.07929
3274.85320 0.07901
3273.56743 0.07930
3272.28166 0.08000
3270.99590 0.08054
3269.71013 0.08038
3268.42436 0.07949
3267.13859 0.07835
3265.85282 0.07748
3264.56705 0.07714
3263.28128 0.07727
3261.99551 0.07772
3260.70974 0.07827
3259.42398 0.07867
3258.13821 0.07881
3256.85244 0.07875
3255.56667 0.07864
3254.28090 0.07851
3252.99513 0.07835
3251.70936 0.07820
3250.42359 0.07820
3249.13783 0.07843
3247.85206 0.07873
3246.56629 0.07886
3245.28052 0.07880
3243.99475 0.07866
3242.70898 0.07854
3241.42321 0.07840
3240.13744 0.07825
3238.85167 0.07815
3237.56591 0.07809
3236.28014 0.07794
3234.99437 0.07764
3233.70860 0.07724
3232.42283 0.07674
3231.13706 0.07619
3229.85129 0.07576
3228.56552 0.07567
3227.27976 0.07594
3225.99399 0.07629
3224.70822 0.07641
3223.42245 0.07618
3222.13668 0.07573
3220.85091 0.07530
3219.56514 0.07517
3218.27937 0.07551
3216.99360 0.07622
3215.70784 0.07696
3214.42207 0.07739
3213.13630 0.07736
3211.85053 0.07700
3210.56476 0.07660
3209.27899 0.07635
3207.99322 0.07625
3206.70745 0.07617
3205.42169 0.07607
3204.13592 0.07589
3202.85015 0.07552
3201.56438 0.07482
3200.27861 0.07399
3198.99284 0.07344
3197.70707 0.07344
3196.42130 0.07390
3195.13553 0.07444
3193.84977 0.07478
3192.56400 0.07474
3191.27823 0.07423
3189.99246 0.07334
3188.70669 0.07249
3187.42092 0.07221
3186.13515 0.07265
3184.84938 0.07334
3183.56362 0.07364
3182.27785 0.07333
3180.99208 0.07279
3179.70631 0.07256
3178.42054 0.07286
3177.13477 0.07345
3175.84900 0.07387
3174.56323 0.07374
3173.27746 0.07317
3171.99170 0.07268
3170.70593 0.07276
3169.42016 0.07332
3168.13439 0.07375
3166.84862 0.07357
3165.56285 0.07292
3164.27708 0.07235
3162.99131 0.07219
3161.70555 0.07235
3160.41978 0.07258
3159.13401 0.07277
3157.84824 0.07297
3156.56247 0.07317
3155.27670 0.07323
3153.99093 0.07304
3152.70516 0.07261
3151.41939 0.07209
3150.13363 0.07161
3148.84786 0.07129
3147.56209 0.07119
3146.27632 0.07125
3144.99055 0.07121
3143.70478 0.07087
3142.41901 0.07035
3141.13324 0.07003
3139.84748 0.07007
3138.56171 0.07021
3137.27594 0.07017
3135.99017 0.06996
3134.70440 0.06986
3133.41863 0.06994
3132.13286 0.06995
3130.84709 0.06959
3129.56132 0.06891
3128.27556 0.06826
3126.98979 0.06801
3125.70402 0.06819
3124.41825 0.06861
3123.13248 0.06898
3121.84671 0.06914
3120.56094 0.06909
3119.27517 0.06888
3117.98940 0.06857
3116.70364 0.06826
3115.41787 0.06812
3114.13210 0.06825
3112.84633 0.06857
3111.56056 0.06883
3110.27479 0.06891
3108.98902 0.06878
3107.70325 0.06847
3106.41749 0.06794
3105.13172 0.06730
3103.84595 0.06683
3102.56018 0.06692
3101.27441 0.06762
3099.98864 0.06858
3098.70287 0.06927
3097.41710 0.06936
3096.13133 0.06897
3094.84557 0.06846
3093.55980 0.06812
3092.27403 0.06805
3090.98826 0.06810
3089.70249 0.06807
3088.41672 0.06784
3087.13095 0.06743
3085.84518 0.06698
3084.55942 0.06663
3083.27365 0.06644
3081.98788 0.06642
3080.70211 0.06651
3079.41634 0.06665
3078.13057 0.06674
3076.84480 0.06674
3075.55903 0.06667
3074.27326 0.06661
3072.98750 0.06661
3071.70173 0.06658
3070.41596 0.06645
3069.13019 0.06628
3067.84442 0.06626
3066.55865 0.06647
3065.27288 0.06676
3063.98711 0.06685
3062.70135 0.06663
3061.41558 0.06626
3060.12981 0.06598
3058.84404 0.06588
3057.55827 0.06582
3056.27250 0.06559
3054.98673 0.06521
3053.70096 0.06486
3052.41519 0.06469
3051.12943 0.06463
3049.84366 0.06455
3048.55789 0.06443
3047.27212 0.06435
3045.98635 0.06437
3044.70058 0.06437
3043.41481 0.06421
3042.12904 0.06379
3040.84328 0.06323
3039.55751 0.06279
3038.27174 0.06274
3036.98597 0.06311
3035.70020 0.06354
3034.41443 0.06360
3033.12866 0.06323
3031.84289 0.06275
3030.55712 0.06258
3029.27136 0.06280
3027.98559 0.06313
3026.69982 0.06322
3025.41405 0.06293
3024.12828 0.06249
3022.84251 0.06221
3021.55674 0.06216
3020.27097 0.06218
3018.98521 0.06207
3017.69944 0.06181
3016.41367 0.06148
3015.12790 0.06113
3013.84213 0.06079
3012.55636 0.06057
3011.27059 0.06053
3009.98482 0.06068
3008.69905 0.06090
3007.41329 0.06107
3006.12752 0.06107
3004.84175 0.06082
3003.55598 0.06037
3002.27021 0.05987
3000.98444 0.05952
2999.69867 0.05935
2998.41290 0.05922
2997.12714 0.05902
2995.84137 0.05875
2994.55560 0.05858
2993.26983 0.05867
2991.98406 0.05903
2990.69829 0.05940
2989.41252 0.05948
2988.12675 0.05925
2986.84098 0.05902
2985.55522 0.05910
2984.26945 0.05949
2982.98368 0.05987
2981.69791 0.06007
2980.41214 0.06019
2979.12637 0.06042
2977.84060 0.06085
2976.55483 0.06138
2975.26907 0.06194
2973.98330 0.06255
2972.69753 0.06324
2971.41176 0.06399
2970.12599 0.06474
2968.84022 0.06548
2967.55445 0.06616
2966.26868 0.06673
2964.98291 0.06719
2963.69715 0.06762
2962.41138 0.06817
2961.12561 0.06887
2959.83984 0.06962
2958.55407 0.07039
2957.26830 0.07128
2955.98253 0.07236
2954.69676 0.07347
2953.41100 0.07438
2952.12523 0.07507
2950.83946 0.07569
2949.55369 0.07627
2948.26792 0.07662
2946.98215 0.07662
2945.69638 0.07641
2944.41061 0.07630
2943.12484 0.07648
2941.83908 0.07687
2940.55331 0.07722
2939.26754 0.07725
2937.98177 0.07687
2936.69600 0.07623
2935.41023 0.07564
2934.12446 0.07535
2932.83869 0.07545
2931.55293 0.07573
2930.26716 0.07586
2928.98139 0.07560
2927.69562 0.07490
2926.40985 0.07372
2925.12408 0.07193
2923.83831 0.06936
2922.55254 0.06596
2921.26677 0.06185
2919.98101 0.05739
2918.69524 0.05330
2917.40947 0.05050
2916.12370 0.04984
2914.83793 0.05156
2913.55216 0.05509
2912.26639 0.05931
2910.98062 0.06327
2909.69486 0.06653
2908.40909 0.06896
2907.12332 0.07055
2905.83755 0.07142
2904.55178 0.07183
2903.26601 0.07192
2901.98024 0.07171
2900.69447 0.07128
2899.40870 0.07094
2898.12294 0.07089
2896.83717 0.07099
2895.55140 0.07094
2894.26563 0.07063
2892.97986 0.07021
2891.69409 0.06983
2890.40832 0.06951
2889.12255 0.06919
2887.83678 0.06880
2886.55102 0.06845
2885.26525 0.06826
2883.97948 0.06827
2882.69371 0.06835
2881.40794 0.06841
2880.12217 0.06851
2878.83640 0.06868
2877.55063 0.06882
2876.26487 0.06885
2874.97910 0.06885
2873.69333 0.06904
2872.40756 0.06958
2871.12179 0.07042
2869.83602 0.07133
2868.55025 0.07202
2867.26448 0.07226
2865.97871 0.07200
2864.69295 0.07139
2863.40718 0.07060
2862.12141 0.06974
2860.83564 0.06886
2859.54987 0.06801
2858.26410 0.06712
2856.97833 0.06598
2855.69256 0.06424
2854.40680 0.06155
2853.12103 0.05782
2851.83526 0.05356
2850.54949 0.04997
2849.26372 0.04847
2847.97795 0.04972
2846.69218 0.05308
2845.40641 0.05705
2844.12064 0.06025
2842.83488 0.06215
2841.54911 0.06296
2840.26334 0.06320
2838.97757 0.06327
2837.69180 0.06330
2836.40603 0.06319
2835.12026 0.06286
2833.83449 0.06234
2832.54873 0.06176
2831.26296 0.06129
2829.97719 0.06098
2828.69142 0.06075
2827.40565 0.06045
2826.11988 0.05994
2824.83411 0.05922
2823.54834 0.05839
2822.26257 0.05763
2820.97681 0.05712
2819.69104 0.05689
2818.40527 0.05682
2817.11950 0.05671
2815.83373 0.05648
2814.54796 0.05616
2813.26219 0.05584
2811.97642 0.05556
2810.69066 0.05532
2809.40489 0.05516
2808.11912 0.05512
2806.83335 0.05523
2805.54758 0.05539
2804.26181 0.05548
2802.97604 0.05547
2801.69027 0.05536
2800.40450 0.05513
2799.11874 0.05478
2797.83297 0.05437
2796.54720 0.05407
2795.26143 0.05393
2793.97566 0.05385
2792.68989 0.05372
2791.40412 0.05358
2790.11835 0.05354
2788.83259 0.05361
2787.54682 0.05373
2786.26105 0.05382
2784.97528 0.05389
2783.68951 0.05393
2782.40374 0.05392
2781.11797 0.05379
2779.83220 0.05356
2778.54643 0.05334
2777.26067 0.05322
2775.97490 0.05313
2774.68913 0.05290
2773.40336 0.05249
2772.11759 0.05209
2770.83182 0.05188
2769.54605 0.05181
2768.26028 0.05171
2766.97452 0.05151
2765.68875 0.05137
2764.40298 0.05140
2763.11721 0.05153
2761.83144 0.05159
2760.54567 0.05150
2759.25990 0.05135
2757.97413 0.05123
2756.68836 0.05119
2755.40260 0.05121
2754.11683 0.05123
2752.83106 0.05121
2751.54529 0.05115
2750.25952 0.05107
2748.97375 0.05095
2747.68798 0.05079
2746.40221 0.05061
2745.11645 0.05046
2743.83068 0.05038
2742.54491 0.05041
2741.25914 0.05055
2739.97337 0.05074
2738.68760 0.05083
2737.40183 0.05073
2736.11606 0.05046
2734.83029 0.05013
2733.54453 0.04983
2732.25876 0.04956
2730.97299 0.04933
2729.68722 0.04920
2728.40145 0.04922
2727.11568 0.04932
2725.82991 0.04941
2724.54414 0.04946
2723.25838 0.04954
2721.97261 0.04960
2720.68684 0.04954
2719.40107 0.04940
2718.11530 0.04931
2716.82953 0.04935
2715.54376 0.04936
2714.25799 0.04917
2712.97222 0.04882
2711.68646 0.04846
2710.40069 0.04829
2709.11492 0.04830
2707.82915 0.04837
2706.54338 0.04829
2705.25761 0.04800
2703.97184 0.04757
2702.68607 0.04724
2701.40031 0.04718
2700.11454 0.04742
2698.82877 0.04778
2697.54300 0.04808
2696.25723 0.04824
2694.97146 0.04832
2693.68569 0.04845
2692.39992 0.04863
2691.11415 0.04876
2689.82839 0.04873
2688.54262 0.04857
2687.25685 0.04839
2685.97108 0.04827
2684.68531 0.04814
2683.39954 0.04792
2682.11377 0.04760
2680.82800 0.04718
2679.54224 0.04669
2678.25647 0.04620
2676.97070 0.04586
2675.68493 0.04576
2674.39916 0.04585
2673.11339 0.04596
2671.82762 0.04597
2670.54185 0.04591
2669.25608 0.04594
2667.97032 0.04615
2666.68455 0.04649
2665.39878 0.04675
2664.11301 0.04681
2662.82724 0.04671
2661.54147 0.04664
2660.25570 0.04676
2658.96993 0.04701
2657.68417 0.04714
2656.39840 0.04700
2655.11263 0.04667
2653.82686 0.04636
2652.54109 0.04615
2651.25532 0.04592
2649.96955 0.04560
2648.68378 0.04525
2647.39801 0.04496
2646.11225 0.04476
2644.82648 0.04462
2643.54071 0.04447
2642.25494 0.04434
2640.96917 0.04429
2639.68340 0.04432
2638.39763 0.04428
2637.11186 0.04396
2635.82609 0.04332
2634.54033 0.04261
2633.25456 0.04212
2631.96879 0.04198
2630.68302 0.04209
2629.39725 0.04232
2628.11148 0.04257
2626.82571 0.04273
2625.53994 0.04277
2624.25418 0.04267
2622.96841 0.04245
2621.68264 0.04214
2620.39687 0.04185
2619.11110 0.04169
2617.82533 0.04157
2616.53956 0.04123
2615.25379 0.04062
2613.96802 0.03998
2612.68226 0.03958
2611.39649 0.03946
2610.11072 0.03953
2608.82495 0.03970
2607.53918 0.03991
2606.25341 0.04002
2604.96764 0.03997
2603.68187 0.03975
2602.39611 0.03944
2601.11034 0.03910
2599.82457 0.03886
2598.53880 0.03878
2597.25303 0.03879
2595.96726 0.03877
2594.68149 0.03870
2593.39572 0.03869
2592.10995 0.03882
2590.82419 0.03904
2589.53842 0.03917
2588.25265 0.03912
2586.96688 0.03897
2585.68111 0.03884
2584.39534 0.03876
2583.10957 0.03860
2581.82380 0.03827
2580.53804 0.03793
2579.25227 0.03775
2577.96650 0.03778
2576.68073 0.03785
2575.39496 0.03785
2574.10919 0.03781
2572.82342 0.03782
2571.53765 0.03783
2570.25188 0.03774
2568.96612 0.03751
2567.68035 0.03723
2566.39458 0.03709
2565.10881 0.03713
2563.82304 0.03726
2562.53727 0.03728
2561.25150 0.03712
2559.96573 0.03679
2558.67997 0.03644
2557.39420 0.03620
2556.10843 0.03613
2554.82266 0.03620
2553.53689 0.03628
2552.25112 0.03629
2550.96535 0.03629
2549.67958 0.03631
2548.39381 0.03629
2547.10805 0.03612
2545.82228 0.03585
2544.53651 0.03568
2543.25074 0.03580
2541.96497 0.03622
2540.67920 0.03674
2539.39343 0.03703
2538.10766 0.03685
2536.82190 0.03628
2535.53613 0.03565
2534.25036 0.03529
2532.96459 0.03530
2531.67882 0.03562
2530.39305 0.03611
2529.10728 0.03652
2527.82151 0.03651
2526.53574 0.03590
2525.24998 0.03493
2523.96421 0.03406
2522.67844 0.03361
2521.39267 0.03360
2520.10690 0.03386
2518.82113 0.03424
2517.53536 0.03467
2516.24959 0.03496
2514.96383 0.03496
2513.67806 0.03464
2512.39229 0.03426
2511.10652 0.03413
2509.82075 0.03443
2508.53498 0.03509
2507.24921 0.03580
2505.96344 0.03613
2504.67767 0.03585
2503.39191 0.03510
2502.10614 0.03433
2500.82037 0.03393
2499.53460 0.03398
2498.24883 0.03435
2496.96306 0.03480
2495.67729 0.03504
2494.39152 0.03492
2493.10576 0.03451
2491.81999 0.03403
2490.53422 0.03362
2489.24845 0.03334
2487.96268 0.03331
2486.67691 0.03366
2485.39114 0.03420
2484.10537 0.03453
2482.81960 0.03443
2481.53384 0.03412
2480.24807 0.03409
2478.96230 0.03455
2477.67653 0.03521
2476.39076 0.03549
2475.10499 0.03512
2473.81922 0.03438
2472.53345 0.03380
2471.24769 0.03364
2469.96192 0.03377
2468.67615 0.03391
2467.39038 0.03399
2466.10461 0.03411
2464.81884 0.03439
2463.53307 0.03479
2462.24730 0.03501
2460.96153 0.03481
2459.67577 0.03425
2458.39000 0.03364
2457.10423 0.03325
2455.81846 0.03311
2454.53269 0.03319
2453.24692 0.03346
2451.96115 0.03383
2450.67538 0.03406
2449.38962 0.03407
2448.10385 0.03390
2446.81808 0.03361
2445.53231 0.03315
2444.24654 0.03263
2442.96077 0.03223
2441.67500 0.03198
2440.38923 0.03168
2439.10346 0.03125
2437.81770 0.03095
2436.53193 0.03108
2435.24616 0.03161
2433.96039 0.03224
2432.67462 0.03275
2431.38885 0.03307
2430.10308 0.03317
2428.81731 0.03300
2427.53155 0.03263
2426.24578 0.03230
2424.96001 0.03226
2423.67424 0.03253
2422.38847 0.03295
2421.10270 0.03322
2419.81693 0.03320
2418.53116 0.03302
2417.24539 0.03290
2415.95963 0.03290
2414.67386 0.03291
2413.38809 0.03289
2412.10232 0.03290
2410.81655 0.03297
2409.53078 0.03304
2408.24501 0.03304
2406.95924 0.03295
2405.67347 0.03275
2404.38771 0.03243
2403.10194 0.03206
2401.81617 0.03176
2400.53040 0.03156
2399.24463 0.03133
2397.95886 0.03110
2396.67309 0.03094
2395.38732 0.03098
2394.10156 0.03135
2392.81579 0.03198
2391.53002 0.03261
2390.24425 0.03297
2388.95848 0.03298
2387.67271 0.03276
2386.38694 0.03253
2385.10117 0.03244
2383.81540 0.03252
2382.52964 0.03267
2381.24387 0.03275
2379.95810 0.03262
2378.67233 0.03255
2377.38656 0.03248
2376.10079 0.03217
2374.81502 0.03178
2373.52925 0.03217
2372.24349 0.03318
2370.95772 0.03394
2369.67195 0.03410
2368.38618 0.03393
2367.10041 0.03391
2365.81464 0.03397
2364.52887 0.03411
2363.24310 0.03431
2361.95733 0.03467
2360.67157 0.03538
2359.38580 0.03598
2358.10003 0.03609
2356.81426 0.03569
2355.52849 0.03483
2354.24272 0.03362
2352.95695 0.03258
2351.67118 0.03258
2350.38542 0.03295
2349.09965 0.03283
2347.81388 0.03268
2346.52811 0.03327
2345.24234 0.03378
2343.95657 0.03317
2342.67080 0.03162
2341.38503 0.03224
2340.09926 0.03438
2338.81350 0.03440
2337.52773 0.03268
2336.24196 0.03324
2334.95619 0.03473
2333.67042 0.03390
2332.38465 0.03173
2331.09888 0.03272
2329.81311 0.03329
2328.52735 0.03237
2327.24158 0.03317
2325.95581 0.03446
2324.67004 0.03444
2323.38427 0.03377
2322.09850 0.03395
2320.81273 0.03349
2319.52696 0.03308
2318.24119 0.03278
2316.95543 0.03221
2315.66966 0.03191
2314.38389 0.03167
2313.09812 0.03147
2311.81235 0.03172
2310.52658 0.03186
2309.24081 0.03188
2307.95504 0.03205
2306.66928 0.03202
2305.38351 0.03175
2304.09774 0.03110
2302.81197 0.03025
2301.52620 0.02961
2300.24043 0.02929
2298.95466 0.02931
2297.66889 0.02942
2296.38312 0.02943
2295.09736 0.02926
2293.81159 0.02901
2292.52582 0.02892
2291.24005 0.02912
2289.95428 0.02958
2288.66851 0.02998
2287.38274 0.02986
2286.09697 0.02906
2284.81121 0.02798
2283.52544 0.02728
2282.23967 0.02733
2280.95390 0.02793
2279.66813 0.02852
2278.38236 0.02870
2277.09659 0.02835
2275.81082 0.02761
2274.52505 0.02676
2273.23929 0.02607
2271.95352 0.02565
2270.66775 0.02546
2269.38198 0.02540
2268.09621 0.02548
2266.81044 0.02566
2265.52467 0.02587
2264.23890 0.02598
2262.95314 0.02599
2261.66737 0.02592
2260.38160 0.02557
2259.09583 0.02475
2257.81006 0.02364
2256.52429 0.02272
2255.23852 0.02238
2253.95275 0.02256
2252.66698 0.02282
2251.38122 0.02275
2250.09545 0.02242
2248.80968 0.02224
2247.52391 0.02244
2246.23814 0.02316
2244.95237 0.02391
2243.66660 0.02414
2242.38083 0.02377
2241.09507 0.02318
2239.80930 0.02278
2238.52353 0.02278
2237.23776 0.02317
2235.95199 0.02385
2234.66622 0.02452
2233.38045 0.02471
2232.09468 0.02416
2230.80891 0.02302
2229.52315 0.02187
2228.23738 0.02124
2226.95161 0.02134
2225.66584 0.02197
2224.38007 0.02262
2223.09430 0.02284
2221.80853 0.02245
2220.52276 0.02171
2219.23700 0.02110
2217.95123 0.02090
2216.66546 0.02099
2215.37969 0.02107
2214.09392 0.02094
2212.80815 0.02044
2211.52238 0.01944
2210.23661 0.01811
2208.95084 0.01716
2207.66508 0.01726
2206.37931 0.01826
2205.09354 0.01925
2203.80777 0.01955
2202.52200 0.01933
2201.23623 0.01922
2199.95046 0.01945
2198.66469 0.01967
2197.37893 0.01965
2196.09316 0.01951
2194.80739 0.01938
2193.52162 0.01923
2192.23585 0.01898
2190.95008 0.01867
2189.66431 0.01826
2188.37854 0.01768
2187.09277 0.01705
2185.80701 0.01665
2184.52124 0.01661
2183.23547 0.01676
2181.94970 0.01682
2180.66393 0.01668
2179.37816 0.01642
2178.09239 0.01617
2176.80662 0.01588
2175.52085 0.01531
2174.23509 0.01438
2172.94932 0.01333
2171.66355 0.01263
2170.37778 0.01265
2169.09201 0.01349
2167.80624 0.01481
2166.52047 0.01586
2165.23470 0.01601
2163.94894 0.01532
2162.66317 0.01413
2161.37740 0.01253
2160.09163 0.01060
2158.80586 0.00900
2157.52009 0.00842
2156.23432 0.00868
2154.94855 0.00922
2153.66278 0.01003
2152.37702 0.01152
2151.09125 0.01365
2149.80548 0.01576
2148.51971 0.01710
2147.23394 0.01743
2145.94817 0.01706
2144.66240 0.01656
2143.37663 0.01636
2142.09087 0.01653
2140.80510 0.01693
2139.51933 0.01738
2138.23356 0.01765
2136.94779 0.01740
2135.66202 0.01656
2134.37625 0.01551
2133.09048 0.01488
2131.80471 0.01486
2130.51895 0.01518
2129.23318 0.01561
2127.94741 0.01622
2126.66164 0.01704
2125.37587 0.01775
2124.09010 0.01799
2122.80433 0.01781
2121.51856 0.01762
2120.23280 0.01769
2118.94703 0.01805
2117.66126 0.01853
2116.37549 0.01891
2115.08972 0.01902
2113.80395 0.01888
2112.51818 0.01872
2111.23241 0.01874
2109.94664 0.01893
2108.66088 0.01904
2107.37511 0.01878
2106.08934 0.01817
2104.80357 0.01751
2103.51780 0.01716
2102.23203 0.01723
2100.94626 0.01754
2099.66049 0.01717
2098.37473 0.01688
2097.08896 0.01665
2095.80319 0.01643
2094.51742 0.01640
2093.23165 0.01666
2091.94588 0.01706
2090.66011 0.01744
2089.37434 0.01762
2088.08857 0.01752
2086.80281 0.01721
2085.51704 0.01684
2084.23127 0.01652
2082.94550 0.01624
2081.65973 0.01598
2080.37396 0.01580
2079.08819 0.01573
2077.80242 0.01569
2076.51666 0.01556
2075.23089 0.01531
2073.94512 0.01506
2072.65935 0.01501
2071.37358 0.01523
2070.08781 0.01557
2068.80204 0.01574
2067.51627 0.01560
2066.23050 0.01538
2064.94474 0.01543
2063.65897 0.01582
2062.37320 0.01617
2061.08743 0.01606
2059.80166 0.01549
2058.51589 0.01481
2057.23012 0.01443
2055.94435 0.01453
2054.65859 0.01488
2053.37282 0.01505
2052.08705 0.01472
2050.80128 0.01397
2049.51551 0.01318
2048.22974 0.01255
2046.94397 0.01203
2045.65820 0.01159
2044.37243 0.01139
2043.08667 0.01150
2041.80090 0.01170
2040.51513 0.01164
2039.22936 0.01107
2037.94359 0.00995
2036.65782 0.00840
2035.37205 0.00683
2034.08628 0.00587
2032.80052 0.00608
2031.51475 0.00740
2030.22898 0.00896
2028.94321 0.00963
2027.65744 0.00896
2026.37167 0.00762
2025.08590 0.00675
2023.80013 0.00695
2022.51436 0.00790
2021.22860 0.00898
2019.94283 0.00975
2018.65706 0.01007
2017.37129 0.00991
2016.08552 0.00933
2014.79975 0.00852
2013.51398 0.00783
2012.22821 0.00767
2010.94245 0.00814
2009.65668 0.00886
2008.37091 0.00932
2007.08514 0.00943
2005.79937 0.00951
2004.51360 0.00980
2003.22783 0.01014
2001.94206 0.01024
2000.65629 0.01013
1999.37053 0.01021
1998.08476 0.01084
1996.79899 0.01199
1995.51322 0.01314
1994.22745 0.01380
1992.94168 0.01384
1991.65591 0.01342
1990.37014 0.01269
1989.08438 0.01170
1987.79861 0.01077
1986.51284 0.01048
1985.22707 0.01111
1983.94130 0.01220
1982.65553 0.01282
1981.36976 0.01243
1980.08399 0.01119
1978.79822 0.00968
1977.51246 0.00837
1976.22669 0.00757
1974.94092 0.00755
1973.65515 0.00843
1972.36938 0.01009
1971.08361 0.01211
1969.79784 0.01407
1968.51207 0.01573
1967.22631 0.01686
1965.94054 0.01711
1964.65477 0.01621
1963.36900 0.01441
1962.08323 0.01255
1960.79746 0.01144
1959.51169 0.01134
1958.22592 0.01190
1956.94015 0.01270
1955.65439 0.01353
1954.36862 0.01431
1953.08285 0.01502
1951.79708 0.01557
1950.51131 0.01579
1949.22554 0.01546
1947.93977 0.01461
1946.65400 0.01375
1945.36823 0.01353
1944.08247 0.01415
1942.79670 0.01516
1941.51093 0.01588
1940.22516 0.01595
1938.93939 0.01561
1937.65362 0.01530
1936.36785 0.01529
1935.08208 0.01552
1933.79632 0.01575
1932.51055 0.01579
1931.22478 0.01561
1929.93901 0.01531
1928.65324 0.01509
1927.36747 0.01514
1926.08170 0.01555
1924.79593 0.01614
1923.51016 0.01655
1922.22440 0.01644
1920.93863 0.01590
1919.65286 0.01534
1918.36709 0.01519
1917.08132 0.01546
1915.79555 0.01595
1914.50978 0.01642
1913.22401 0.01680
1911.93825 0.01708
1910.65248 0.01723
1909.36671 0.01725
1908.08094 0.01722
1906.79517 0.01724
1905.50940 0.01733
1904.22363 0.01744
1902.93786 0.01749
1901.65209 0.01748
1900.36633 0.01746
1899.08056 0.01740
1897.79479 0.01722
1896.50902 0.01688
1895.22325 0.01652
1893.93748 0.01635
1892.65171 0.01642
1891.36594 0.01661
1890.08018 0.01674
1888.79441 0.01674
1887.50864 0.01673
1886.22287 0.01689
1884.93710 0.01725
1883.65133 0.01769
1882.36556 0.01790
1881.07979 0.01769
1879.79402 0.01712
1878.50826 0.01650
1877.22249 0.01612
1875.93672 0.01608
1874.65095 0.01632
1873.36518 0.01667
1872.07941 0.01702
1870.79364 0.01728
1869.50787 0.01746
1868.22211 0.01757
1866.93634 0.01768
1865.65057 0.01784
1864.36480 0.01806
1863.07903 0.01830
1861.79326 0.01845
1860.50749 0.01844
1859.22172 0.01832
1857.93595 0.01818
1856.65019 0.01810
1855.36442 0.01806
1854.07865 0.01807
1852.79288 0.01814
1851.50711 0.01830
1850.22134 0.01844
1848.93557 0.01846
1847.64980 0.01829
1846.36404 0.01800
1845.07827 0.01770
1843.79250 0.01750
1842.50673 0.01749
1841.22096 0.01768
1839.93519 0.01802
1838.64942 0.01837
1837.36365 0.01855
1836.07788 0.01851
1834.79212 0.01835
1833.50635 0.01817
1832.22058 0.01804
1830.93481 0.01797
1829.64904 0.01796
1828.36327 0.01802
1827.07750 0.01810
1825.79173 0.01811
1824.50597 0.01798
1823.22020 0.01773
1821.93443 0.01748
1820.64866 0.01736
1819.36289 0.01742
1818.07712 0.01766
1816.79135 0.01803
1815.50558 0.01841
1814.21981 0.01869
1812.93405 0.01880
1811.64828 0.01879
1810.36251 0.01879
1809.07674 0.01890
1807.79097 0.01908
1806.50520 0.01918
1805.21943 0.01910
1803.93366 0.01885
1802.64790 0.01857
1801.36213 0.01837
1800.07636 0.01829
1798.79059 0.01834
1797.50482 0.01847
1796.21905 0.01865
1794.93328 0.01879
1793.64751 0.01885
1792.36174 0.01884
1791.07598 0.01880
1789.79021 0.01874
1788.50444 0.01866
1787.21867 0.01858
1785.93290 0.01856
1784.64713 0.01859
1783.36136 0.01862
1782.07559 0.01861
1780.78983 0.01858
1779.50406 0.01857
1778.21829 0.01860
1776.93252 0.01863
1775.64675 0.01865
1774.36098 0.01867
1773.07521 0.01869
1771.78944 0.01871
1770.50367 0.01873
1769.21791 0.01880
1767.93214 0.01891
1766.64637 0.01904
1765.36060 0.01913
1764.07483 0.01916
1762.78906 0.01913
1761.50329 0.01908
1760.21752 0.01905
1758.93176 0.01910
1757.64599 0.01923
1756.36022 0.01941
1755.07445 0.01952
1753.78868 0.01949
1752.50291 0.01932
1751.21714 0.01912
1749.93137 0.01901
1748.64560 0.01904
1747.35984 0.01915
1746.07407 0.01924
1744.78830 0.01925
1743.50253 0.01925
1742.21676 0.01932
1740.93099 0.01947
1739.64522 0.01965
1738.35945 0.01975
1737.07369 0.01977
1735.78792 0.01973
1734.50215 0.01971
1733.21638 0.01971
1731.93061 0.01977
1730.64484 0.01988
1729.35907 0.02004
1728.07330 0.02025
1726.78753 0.02043
1725.50177 0.02055
1724.21600 0.02063
1722.93023 0.02073
1721.64446 0.02086
1720.35869 0.02100
1719.07292 0.02111
1717.78715 0.02124
1716.50138 0.02143
1715.21561 0.02169
1713.92985 0.02201
1712.64408 0.02237
1711.35831 0.02278
1710.07254 0.02321
1708.78677 0.02359
1707.50100 0.02391
1706.21523 0.02420
1704.92946 0.02457
1703.64370 0.02511
1702.35793 0.02583
1701.07216 0.02667
1699.78639 0.02747
1698.50062 0.02810
1697.21485 0.02856
1695.92908 0.02899
1694.64331 0.02954
1693.35754 0.03024
1692.07178 0.03098
1690.78601 0.03167
1689.50024 0.03225
1688.21447 0.03279
1686.92870 0.03336
1685.64293 0.03402
1684.35716 0.03482
1683.07139 0.03570
1681.78563 0.03655
1680.49986 0.03731
1679.21409 0.03800
1677.92832 0.03867
1676.64255 0.03934
1675.35678 0.04001
1674.07101 0.04069
1672.78524 0.04142
1671.49947 0.04221
1670.21371 0.04302
1668.92794 0.04382
1667.64217 0.04456
1666.35640 0.04526
1665.07063 0.04594
1663.78486 0.04663
1662.49909 0.04731
1661.21332 0.04794
1659.92756 0.04849
1658.64179 0.04894
1657.35602 0.04930
1656.07025 0.04961
1654.78448 0.04990
1653.49871 0.05025
1652.21294 0.05067
1650.92717 0.05108
1649.64140 0.05139
1648.35564 0.05157
1647.06987 0.05167
1645.78410 0.05178
1644.49833 0.05194
1643.21256 0.05208
1641.92679 0.05216
1640.64102 0.05214
1639.35525 0.05204
1638.06949 0.05185
1636.78372 0.05159
1635.49795 0.05129
1634.21218 0.05098
1632.92641 0.05067
1631.64064 0.05032
1630.35487 0.04992
1629.06910 0.04949
1627.78333 0.04908
1626.49757 0.04872
1625.21180 0.04839
1623.92603 0.04806
1622.64026 0.04767
1621.35449 0.04725
1620.06872 0.04683
1618.78295 0.04646
1617.49718 0.04620
1616.21142 0.04606
1614.92565 0.04599
1613.63988 0.04593
1612.35411 0.04583
1611.06834 0.04568
1609.78257 0.04553
1608.49680 0.04538
1607.21103 0.04526
1605.92526 0.04518
1604.63950 0.04516
1603.35373 0.04518
1602.06796 0.04522
1600.78219 0.04527
1599.49642 0.04536
1598.21065 0.04548
1596.92488 0.04563
1595.63911 0.04577
1594.35335 0.04589
1593.06758 0.04597
1591.78181 0.04599
1590.49604 0.04597
1589.21027 0.04596
1587.92450 0.04601
1586.63873 0.04611
1585.35296 0.04621
1584.06719 0.04627
1582.78143 0.04630
1581.49566 0.04635
1580.20989 0.04645
1578.92412 0.04662
1577.63835 0.04687
1576.35258 0.04726
1575.06681 0.04776
1573.78104 0.04831
1572.49528 0.04884
1571.20951 0.04935
1569.92374 0.04989
1568.63797 0.05048
1567.35220 0.05106
1566.06643 0.05159
1564.78066 0.05201
1563.49489 0.05231
1562.20912 0.05251
1560.92336 0.05266
1559.63759 0.05285
1558.35182 0.05316
1557.06605 0.05354
1555.78028 0.05390
1554.49451 0.05417
1553.20874 0.05431
1551.92297 0.05433
1550.63721 0.05427
1549.35144 0.05412
1548.06567 0.05390
1546.77990 0.05356
1545.49413 0.05309
1544.20836 0.05250
1542.92259 0.05190
1541.63682 0.05139
1540.35105 0.05106
1539.06529 0.05095
1537.77952 0.05103
1536.49375 0.05126
1535.20798 0.05153
1533.92221 0.05177
1532.63644 0.05193
1531.35067 0.05199
1530.06490 0.05201
1528.77914 0.05203
1527.49337 0.05210
1526.20760 0.05223
1524.92183 0.05239
1523.63606 0.05257
1522.35029 0.05275
1521.06452 0.05295
1519.77875 0.05320
1518.49298 0.05355
1517.20722 0.05403
1515.92145 0.05464
1514.63568 0.05534
1513.34991 0.05606
1512.06414 0.05673
1510.77837 0.05736
1509.49260 0.05797
1508.20683 0.05858
1506.92107 0.05920
1505.63530 0.05985
1504.34953 0.06051
1503.06376 0.06115
1501.77799 0.06172
1500.49222 0.06219
1499.20645 0.06259
1497.92068 0.06294
1496.63491 0.06328
1495.34915 0.06358
1494.06338 0.06383
1492.77761 0.06405
1491.49184 0.06431
1490.20607 0.06468
1488.92030 0.06518
1487.63453 0.06579
1486.34876 0.06645
1485.06299 0.06711
1483.77723 0.06778
1482.49146 0.06848
1481.20569 0.06923
1479.91992 0.07001
1478.63415 0.07074
1477.34838 0.07131
1476.06261 0.07172
1474.77684 0.07204
1473.49108 0.07248
1472.20531 0.07315
1470.91954 0.07402
1469.63377 0.07496
1468.34800 0.07580
1467.06223 0.07648
1465.77646 0.07709
1464.49069 0.07774
1463.20492 0.07852
1461.91916 0.07942
1460.63339 0.08034
1459.34762 0.08120
1458.06185 0.08197
1456.77608 0.08270
1455.49031 0.08342
1454.20454 0.08407
1452.91877 0.08461
1451.63301 0.08505
1450.34724 0.08542
1449.06147 0.08573
1447.77570 0.08595
1446.48993 0.08603
1445.20416 0.08597
1443.91839 0.08582
1442.63262 0.08559
1441.34685 0.08531
1440.06109 0.08497
1438.77532 0.08459
1437.48955 0.08427
1436.20378 0.08409
1434.91801 0.08413
1433.63224 0.08438
1432.34647 0.08479
1431.06070 0.08532
1429.77494 0.08597
1428.48917 0.08675
1427.20340 0.08766
1425.91763 0.08867
1424.63186 0.08972
1423.34609 0.09079
1422.06032 0.09184
1420.77455 0.09284
1419.48878 0.09378
1418.20302 0.09466
1416.91725 0.09547
1415.63148 0.09620
1414.34571 0.09680
1413.05994 0.09722
1411.77417 0.09743
1410.48840 0.09745
1409.20263 0.09730
1407.91687 0.09695
1406.63110 0.09642
1405.34533 0.09571
1404.05956 0.09487
1402.77379 0.09394
1401.48802 0.09292
1400.20225 0.09179
1398.91648 0.09053
1397.63071 0.08913
1396.34495 0.08762
1395.05918 0.08605
1393.77341 0.08447
1392.48764 0.08294
1391.20187 0.08147
1389.91610 0.08006
1388.63033 0.07869
1387.34456 0.07733
1386.05880 0.07597
1384.77303 0.07461
1383.48726 0.07328
1382.20149 0.07199
1380.91572 0.07077
1379.62995 0.06960
1378.34418 0.06842
1377.05841 0.06713
1375.77264 0.06568
1374.48688 0.06405
1373.20111 0.06230
1371.91534 0.06052
1370.62957 0.05881
1369.34380 0.05724
1368.05803 0.05582
1366.77226 0.05453
1365.48649 0.05330
1364.20073 0.05210
1362.91496 0.05092
1361.62919 0.04978
1360.34342 0.04870
1359.05765 0.04769
1357.77188 0.04680
1356.48611 0.04601
1355.20034 0.04531
1353.91457 0.04469
1352.62881 0.04413
1351.34304 0.04359
1350.05727 0.04305
1348.77150 0.04248
1347.48573 0.04194
1346.19996 0.04147
1344.91419 0.04107
1343.62842 0.04070
1342.34266 0.04033
1341.05689 0.03996
1339.77112 0.03955
1338.48535 0.03909
1337.19958 0.03860
1335.91381 0.03811
1334.62804 0.03765
1333.34227 0.03722
1332.05650 0.03683
1330.77074 0.03646
1329.48497 0.03610
1328.19920 0.03574
1326.91343 0.03538
1325.62766 0.03506
1324.34189 0.03478
1323.05612 0.03454
1321.77035 0.03430
1320.48459 0.03403
1319.19882 0.03374
1317.91305 0.03347
1316.62728 0.03320
1315.34151 0.03292
1314.05574 0.03259
1312.76997 0.03224
1311.48420 0.03192
1310.19843 0.03163
1308.91267 0.03139
1307.62690 0.03119
1306.34113 0.03101
1305.05536 0.03086
1303.76959 0.03070
1302.48382 0.03053
1301.19805 0.03035
1299.91228 0.03015
1298.62652 0.02994
1297.34075 0.02973
1296.05498 0.02953
1294.76921 0.02934
1293.48344 0.02919
1292.19767 0.02908
1290.91190 0.02899
1289.62613 0.02885
1288.34036 0.02864
1287.05460 0.02843
1285.76883 0.02829
1284.48306 0.02823
1283.19729 0.02817
1281.91152 0.02806
1280.62575 0.02787
1279.33998 0.02768
1278.05421 0.02755
1276.76845 0.02750
1275.48268 0.02746
1274.19691 0.02736
1272.91114 0.02718
1271.62537 0.02695
1270.33960 0.02678
1269.05383 0.02669
1267.76806 0.02667
1266.48229 0.02663
1265.19653 0.02654
1263.91076 0.02642
1262.62499 0.02629
1261.33922 0.02621
1260.05345 0.02614
1258.76768 0.02608
1257.48191 0.02601
1256.19614 0.02593
1254.91037 0.02585
1253.62461 0.02578
1252.33884 0.02576
1251.05307 0.02576
1249.76730 0.02576
1248.48153 0.02573
1247.19576 0.02566
1245.90999 0.02556
1244.62422 0.02548
1243.33846 0.02542
1242.05269 0.02536
1240.76692 0.02526
1239.48115 0.02509
1238.19538 0.02488
1236.90961 0.02467
1235.62384 0.02450
1234.33807 0.02440
1233.05230 0.02435
1231.76654 0.02429
1230.48077 0.02418
1229.19500 0.02403
1227.90923 0.02388
1226.62346 0.02374
1225.33769 0.02360
1224.05192 0.02343
1222.76615 0.02322
1221.48039 0.02301
1220.19462 0.02280
1218.90885 0.02260
1217.62308 0.02242
1216.33731 0.02229
1215.05154 0.02220
1213.76577 0.02214
1212.48000 0.02205
1211.19423 0.02195
1209.90847 0.02186
1208.62270 0.02179
1207.33693 0.02173
1206.05116 0.02166
1204.76539 0.02157
1203.47962 0.02145
1202.19385 0.02130
1200.90808 0.02119
1199.62232 0.02117
1198.33655 0.02110
1197.05078 0.02106
1195.76501 0.02100
1194.47924 0.02091
1193.19347 0.02081
1191.90770 0.02070
1190.62193 0.02058
1189.33616 0.02046
1188.05040 0.02036
1186.76463 0.02030
1185.47886 0.02025
1184.19309 0.02023
1182.90732 0.02022
1181.62155 0.02021
1180.33578 0.02019
1179.05001 0.02015
1177.76425 0.02013
1176.47848 0.02013
1175.19271 0.02017
1173.90694 0.02021
1172.62117 0.02025
1171.33540 0.02033
1170.04963 0.02046
1168.76386 0.02062
1167.47809 0.02076
1166.19233 0.02090
1164.90656 0.02108
1163.62079 0.02133
1162.33502 0.02159
1161.04925 0.02176
1159.76348 0.02182
1158.47771 0.02182
1157.19194 0.02184
1155.90618 0.02195
1154.62041 0.02220
1153.33464 0.02256
1152.04887 0.02298
1150.76310 0.02340
1149.47733 0.02376
1148.19156 0.02409
1146.90579 0.02444
1145.62002 0.02485
1144.33426 0.02532
1143.04849 0.02588
1141.76272 0.02653
1140.47695 0.02728
1139.19118 0.02808
1137.90541 0.02896
1136.61964 0.02994
1135.33387 0.03108
1134.04811 0.03236
1132.76234 0.03374
1131.47657 0.03522
1130.19080 0.03684
1128.90503 0.03867
1127.61926 0.04078
1126.33349 0.04314
1125.04772 0.04567
1123.76195 0.04829
1122.47619 0.05096
1121.19042 0.05370
1119.90465 0.05654
1118.61888 0.05945
1117.33311 0.06237
1116.04734 0.06523
1114.76157 0.06802
1113.47580 0.07072
1112.19004 0.07332
1110.90427 0.07584
1109.61850 0.07834
1108.33273 0.08083
1107.04696 0.08329
1105.76119 0.08567
1104.47542 0.08792
1103.18965 0.09003
1101.90388 0.09202
1100.61812 0.09391
1099.33235 0.09572
1098.04658 0.09748
1096.76081 0.09920
1095.47504 0.10085
1094.18927 0.10238
1092.90350 0.10375
1091.61773 0.10500
1090.33197 0.10620
1089.04620 0.10741
1087.76043 0.10862
1086.47466 0.10980
1085.18889 0.11097
1083.90312 0.11222
1082.61735 0.11359
1081.33158 0.11506
1080.04581 0.11661
1078.76005 0.11821
1077.47428 0.11987
1076.18851 0.12159
1074.90274 0.12336
1073.61697 0.12520
1072.33120 0.12715
1071.04543 0.12923
1069.75966 0.13141
1068.47390 0.13364
1067.18813 0.13585
1065.90236 0.13805
1064.61659 0.14028
1063.33082 0.14261
1062.04505 0.14501
1060.75928 0.14743
1059.47351 0.14986
1058.18774 0.15229
1056.90198 0.15469
1055.61621 0.15699
1054.33044 0.15915
1053.04467 0.16126
1051.75890 0.16348
1050.47313 0.16589
1049.18736 0.16845
1047.90159 0.17110
1046.61583 0.17381
1045.33006 0.17661
1044.04429 0.17951
1042.75852 0.18245
1041.47275 0.18535
1040.18698 0.18820
1038.90121 0.19103
1037.61544 0.19387
1036.32967 0.19673
1035.04391 0.19963
1033.75814 0.20255
1032.47237 0.20543
1031.18660 0.20819
1029.90083 0.21071
1028.61506 0.21291
1027.32929 0.21479
1026.04352 0.21639
1024.75775 0.21775
1023.47199 0.21889
1022.18622 0.21976
1020.90045 0.22032
1019.61468 0.22059
1018.32891 0.22062
1017.04314 0.22043
1015.75737 0.21999
1014.47160 0.21925
1013.18584 0.21817
1011.90007 0.21675
1010.61430 0.21503
1009.32853 0.21300
1008.04276 0.21065
1006.75699 0.20795
1005.47122 0.20491
1004.18545 0.20158
1002.89968 0.19802
1001.61392 0.19425
1000.32815 0.19025
999.04238 0.18601
997.75661 0.18156
996.47084 0.17700
995.18507 0.17242
993.89930 0.16784
992.61353 0.16325
991.32777 0.15867
990.04200 0.15414
988.75623 0.14971
987.47046 0.14538
986.18469 0.14115
984.89892 0.13705
983.61315 0.13310
982.32738 0.12931
981.04161 0.12564
979.75585 0.12210
978.47008 0.11877
977.18431 0.11574
975.89854 0.11305
974.61277 0.11069
973.32700 0.10865
972.04123 0.10687
970.75546 0.10538
969.46970 0.10426
968.18393 0.10364
966.89816 0.10351
965.61239 0.10370
964.32662 0.10405
963.04085 0.10445
961.75508 0.10479
960.46931 0.10485
959.18354 0.10444
957.89778 0.10349
956.61201 0.10218
955.32624 0.10072
954.04047 0.09923
952.75470 0.09763
951.46893 0.09586
950.18316 0.09397
948.89739 0.09206
947.61163 0.09018
946.32586 0.08834
945.04009 0.08652
943.75432 0.08472
942.46855 0.08296
941.18278 0.08127
939.89701 0.07967
938.61124 0.07817
937.32547 0.07675
936.03971 0.07535
934.75394 0.07395
933.46817 0.07259
932.18240 0.07133
930.89663 0.07019
929.61086 0.06914
928.32509 0.06816
927.03932 0.06725
925.75356 0.06639
924.46779 0.06553
923.18202 0.06466
921.89625 0.06380
920.61048 0.06300
919.32471 0.06225
918.03894 0.06156
916.75317 0.06094
915.46740 0.06035
914.18164 0.05974
912.89587 0.05911
911.61010 0.05853
910.32433 0.05804
909.03856 0.05756
907.75279 0.05701
906.46702 0.05639
905.18125 0.05579
903.89549 0.05526
902.60972 0.05483
901.32395 0.05444
900.03818 0.05403
898.75241 0.05356
897.46664 0.05304
896.18087 0.05253
894.89510 0.05205
893.60933 0.05161
892.32357 0.05122
891.03780 0.05087
889.75203 0.05061
888.46626 0.05053
887.18049 0.05076
885.89472 0.05139
884.60895 0.05248
883.32318 0.05412
882.03742 0.05627
880.75165 0.05864
879.46588 0.06074
878.18011 0.06231
876.89434 0.06348
875.60857 0.06458
874.32280 0.06580
873.03703 0.06696
871.75126 0.06773
870.46550 0.06788
869.17973 0.06741
867.89396 0.06642
866.60819 0.06502
865.32242 0.06328
864.03665 0.06131
862.75088 0.05926
861.46511 0.05733
860.17935 0.05564
858.89358 0.05426
857.60781 0.05314
856.32204 0.05221
855.03627 0.05137
853.75050 0.05057
852.46473 0.04980
851.17896 0.04910
849.89319 0.04851
848.60743 0.04802
847.32166 0.04756
846.03589 0.04710
844.75012 0.04666
843.46435 0.04626
842.17858 0.04586
840.89281 0.04544
839.60704 0.04506
838.32128 0.04475
837.03551 0.04453
835.74974 0.04431
834.46397 0.04399
833.17820 0.04362
831.89243 0.04331
830.60666 0.04312
829.32089 0.04300
828.03512 0.04283
826.74936 0.04258
825.46359 0.04228
824.17782 0.04204
822.89205 0.04189
821.60628 0.04178
820.32051 0.04164
819.03474 0.04144
817.74897 0.04121
816.46321 0.04103
815.17744 0.04095
813.89167 0.04100
812.60590 0.04114
811.32013 0.04121
810.03436 0.04111
808.74859 0.04091
807.46282 0.04076
806.17705 0.04076
804.89129 0.04083
803.60552 0.04090
802.31975 0.04094
801.03398 0.04094
799.74821 0.04085
798.46244 0.04065
797.17667 0.04042
795.89090 0.04029
794.60513 0.04030
793.31937 0.04038
792.03360 0.04046
790.74783 0.04052
789.46206 0.04056
788.17629 0.04052
786.89052 0.04039
785.60475 0.04019
784.31898 0.04001
783.03322 0.03983
781.74745 0.03963
780.46168 0.03945
779.17591 0.03940
777.89014 0.03953
776.60437 0.03971
775.31860 0.03975
774.03283 0.03962
772.74706 0.03944
771.46130 0.03934
770.17553 0.03931
768.88976 0.03929
767.60399 0.03927
766.31822 0.03931
765.03245 0.03940
763.74668 0.03944
762.46091 0.03937
761.17515 0.03926
759.88938 0.03922
758.60361 0.03931
757.31784 0.03947
756.03207 0.03961
754.74630 0.03967
753.46053 0.03960
752.17476 0.03941
750.88899 0.03915
749.60323 0.03893
748.31746 0.03881
747.03169 0.03878
745.74592 0.03878
744.46015 0.03876
743.17438 0.03870
741.88861 0.03860
740.60284 0.03846
739.31708 0.03826
738.03131 0.03801
736.74554 0.03781
735.45977 0.03768
734.17400 0.03761
732.88823 0.03751
731.60246 0.03737
730.31669 0.03725
729.03092 0.03717
727.74516 0.03716
726.45939 0.03720
725.17362 0.03725
723.88785 0.03719
722.60208 0.03714
721.31631 0.03709
720.03054 0.03707
718.74477 0.03713
717.45901 0.03727
716.17324 0.03739
714.88747 0.03739
713.60170 0.03726
712.31593 0.03706
711.03016 0.03691
709.74439 0.03682
708.45862 0.03676
707.17285 0.03666
705.88709 0.03652
704.60132 0.03636
703.31555 0.03622
702.02978 0.03613
700.74401 0.03607
699.45824 0.03604
698.17247 0.03604
696.88670 0.03606
695.60094 0.03612
694.31517 0.03616
693.02940 0.03613
691.74363 0.03606
690.45786 0.03599
689.17209 0.03597
687.88632 0.03592
686.60055 0.03579
685.31478 0.03559
684.02902 0.03538
682.74325 0.03525
681.45748 0.03516
680.17171 0.03507
678.88594 0.03495
677.60017 0.03483
676.31440 0.03480
675.02863 0.03481
673.74287 0.03484
672.45710 0.03489
671.17133 0.03499
669.88556 0.03517
668.59979 0.03531
667.31402 0.03522
666.02825 0.03508
664.74248 0.03486
663.45671 0.03460
662.17095 0.03432
660.88518 0.03400
659.59941 0.03369
658.31364 0.03349
657.02787 0.03344
655.74210 0.03348
654.45633 0.03351
653.17056 0.03345
651.88480 0.03332
650.59903 0.03320
649.31326 0.03310
648.02749 0.03301
646.74172 0.03293
645.45595 0.03289
644.17018 0.03288
642.88441 0.03285
641.59864 0.03276
640.31288 0.03260
639.02711 0.03244
637.74134 0.03239
636.45557 0.03252
635.16980 0.03280
633.88403 0.03315
632.59826 0.03352
631.31249 0.03386
630.02673 0.03384
628.74096 0.03373
627.45519 0.03517
626.16942 0.03561
624.88365 0.03538
623.59788 0.03506
622.31211 0.03448
621.02634 0.03398
619.74057 0.03460
618.45481 0.03698
617.16904 0.04052
615.88327 0.04394
614.59750 0.04647
613.31173 0.04870
612.02596 0.05211
610.74019 0.05750
609.45442 0.06381
608.16866 0.06911
606.88289 0.07265
605.59712 0.07515
604.31135 0.07744
603.02558 0.07960
601.73981 0.08119
600.45404 0.08201
599.16827 0.08212
597.88250 0.08160
596.59674 0.08039
595.31097 0.07856
594.02520 0.07647
592.73943 0.07458
591.45366 0.07318
590.16789 0.07231
588.88212 0.07195
587.59635 0.07205
586.31059 0.07254
585.02482 0.07333
583.73905 0.07436
582.45328 0.07565
581.16751 0.07725
579.88174 0.07916
578.59597 0.08128
577.31020 0.08345
576.02443 0.08558
574.73867 0.08759
573.45290 0.08949
572.16713 0.09126
570.88136 0.09298
569.59559 0.09486
568.30982 0.09716
567.02405 0.10007
565.73828 0.10350
564.45251 0.10699
563.16675 0.10994
561.88098 0.11187
560.59521 0.11256
559.30944 0.11203
558.02367 0.11035
556.73790 0.10760
555.45213 0.10400
554.16636 0.09991
552.88060 0.09569
551.59483 0.09156
550.30906 0.08757
549.02329 0.08375
547.73752 0.08016
546.45175 0.07686
545.16598 0.07395
543.88021 0.07140
542.59444 0.06915
541.30868 0.06711
540.02291 0.06530
538.73714 0.06376
537.45137 0.06241
536.16560 0.06106
534.87983 0.05959
533.59406 0.05804
532.30829 0.05655
531.02253 0.05521
529.73676 0.05399
528.45099 0.05283
527.16522 0.05171
525.87945 0.05067
524.59368 0.04976
523.30791 0.04894
522.02214 0.04811
520.73637 0.04725
519.45061 0.04640
518.16484 0.04559
516.87907 0.04481
515.59330 0.04401
514.30753 0.04322
513.02176 0.04250
511.73599 0.04189
510.45022 0.04134
509.16446 0.04079
507.87869 0.04023
506.59292 0.03971
505.30715 0.03930
504.02138 0.03898
502.73561 0.03870
501.44984 0.03839
500.16407 0.03807
498.87830 0.03777
497.59254 0.03748
496.30677 0.03714
495.02100 0.03667
493.73523 0.03607
492.44946 0.03545
491.16369 0.03495
489.87792 0.03464
488.59215 0.03448
487.30639 0.03441
486.02062 0.03441
484.73485 0.03445
483.44908 0.03448
482.16331 0.03443
480.87754 0.03433
479.59177 0.03427
478.30600 0.03431
477.02023 0.03444
475.73447 0.03460
474.44870 0.03479
473.16293 0.03505
471.87716 0.03536
470.59139 0.03563
469.30562 0.03576
468.01985 0.03569
466.73408 0.03543
465.44832 0.03504
464.16255 0.03462
462.87678 0.03427
461.59101 0.03403
460.30524 0.03387
459.01947 0.03371
457.73370 0.03351
456.44793 0.03321
455.16216 0.03280
453.87640 0.03235
452.59063 0.03194
451.30486 0.03164
450.01909 0.03140
448.73332 0.03117
447.44755 0.03093
446.16178 0.03073
444.87601 0.03058
443.59025 0.03046
442.30448 0.03029
441.01871 0.03006
439.73294 0.02980
438.44717 0.02959
437.16140 0.02948
435.87563 0.02947
434.58986 0.02950
433.30409 0.02954
432.01833 0.02953
430.73256 0.02947
429.44679 0.02932
428.16102 0.02909
426.87525 0.02882
425.58948 0.02858
424.30371 0.02840
423.01794 0.02831
421.73218 0.02826
420.44641 0.02824
419.16064 0.02818
417.87487 0.02804
416.58910 0.02781
415.30333 0.02755
414.01756 0.02734
412.73179 0.02721
411.44602 0.02713
410.16026 0.02704
408.87449 0.02691
407.58872 0.02677
406.30295 0.02666
405.01718 0.02660
403.73141 0.02659
402.44564 0.02660
401.15987 0.02665
399.87411 0.02673
