3997.45528 0.06345
3996.16951 0.06387
3994.88374 0.06417
3993.59798 0.06439
3992.31221 0.06458
3991.02644 0.06463
3989.74067 0.06441
3988.45490 0.06396
3987.16913 0.06346
3985.88336 0.06298
3984.59759 0.06258
3983.31183 0.06234
3982.02606 0.06243
3980.74029 0.06275
3979.45452 0.06297
3978.16875 0.06298
3976.88298 0.06305
3975.59721 0.06347
3974.31144 0.06411
3973.02567 0.06452
3971.73991 0.06442
3970.45414 0.06394
3969.16837 0.06338
3967.88260 0.06280
3966.59683 0.06208
3965.31106 0.06119
3964.02529 0.06044
3962.73952 0.06017
3961.45376 0.06032
3960.16799 0.06054
3958.88222 0.06059
3957.59645 0.06058
3956.31068 0.06068
3955.02491 0.06079
3953.73914 0.06062
3952.45337 0.06008
3951.16760 0.05952
3949.88184 0.05941
3948.59607 0.05982
3947.31030 0.06035
3946.02453 0.06079
3944.73876 0.06135
3943.45299 0.06231
3942.16722 0.06337
3940.88145 0.06389
3939.59569 0.06359
3938.30992 0.06290
3937.02415 0.06249
3935.73838 0.06267
3934.45261 0.06329
3933.16684 0.06394
3931.88107 0.06414
3930.59530 0.06350
3929.30953 0.06208
3928.02377 0.06046
3926.73800 0.05943
3925.45223 0.05935
3924.16646 0.05992
3922.88069 0.06043
3921.59492 0.06044
3920.30915 0.06011
3919.02338 0.05988
3917.73762 0.05987
3916.45185 0.05965
3915.16608 0.05893
3913.88031 0.05802
3912.59454 0.05770
3911.30877 0.05843
3910.02300 0.05989
3908.73723 0.06143
3907.45146 0.06257
3906.16570 0.06316
3904.87993 0.06304
3903.59416 0.06214
3902.30839 0.06081
3901.02262 0.05988
3899.73685 0.06010
3898.45108 0.06148
3897.16531 0.06326
3895.87955 0.06457
3894.59378 0.06495
3893.30801 0.06451
3892.02224 0.06374
3890.73647 0.06313
3889.45070 0.06272
3888.16493 0.06223
3886.87916 0.06156
3885.59339 0.06096
3884.30763 0.06051
3883.02186 0.05995
3881.73609 0.05928
3880.45032 0.05909
3879.16455 0.05987
3877.87878 0.06133
3876.59301 0.06251
3875.30724 0.06270
3874.02148 0.06191
3872.73571 0.06065
3871.44994 0.05946
3870.16417 0.05884
3868.87840 0.05911
3867.59263 0.06005
3866.30686 0.06096
3865.02109 0.06113
3863.73532 0.06034
3862.44956 0.05901
3861.16379 0.05798
3859.87802 0.05790
3858.59225 0.05864
3857.30648 0.05945
3856.02071 0.05964
3854.73494 0.05917
3853.44917 0.05854
3852.16341 0.05815
3850.87764 0.05811
3849.59187 0.05841
3848.30610 0.05884
3847.02033 0.05889
3845.73456 0.05827
3844.44879 0.05741
3843.16302 0.05708
3841.87725 0.05754
3840.59149 0.05823
3839.30572 0.05857
3838.01995 0.05869
3836.73418 0.05908
3835.44841 0.05975
3834.16264 0.06008
3832.87687 0.05956
3831.59110 0.05847
3830.30534 0.05751
3829.01957 0.05696
3827.73380 0.05644
3826.44803 0.05562
3825.16226 0.05474
3823.87649 0.05424
3822.59072 0.05433
3821.30495 0.05492
3820.01918 0.05572
3818.73342 0.05637
3817.44765 0.05662
3816.16188 0.05650
3814.87611 0.05615
3813.59034 0.05572
3812.30457 0.05548
3811.01880 0.05569
3809.73303 0.05609
3808.44726 0.05613
3807.16150 0.05560
3805.87573 0.05499
3804.58996 0.05491
3803.30419 0.05564
3802.01842 0.05701
3800.73265 0.05853
3799.44688 0.05960
3798.16111 0.05980
3796.87535 0.05913
3795.58958 0.05786
3794.30381 0.05627
3793.01804 0.05473
3791.73227 0.05380
3790.44650 0.05386
3789.16073 0.05480
3787.87496 0.05599
3786.58919 0.05672
3785.30343 0.05680
3784.01766 0.05646
3782.73189 0.05595
3781.44612 0.05533
3780.16035 0.05471
3778.87458 0.05426
3777.58881 0.05405
3776.30304 0.05400
3775.01728 0.05411
3773.73151 0.05447
3772.44574 0.05514
3771.15997 0.05605
3769.87420 0.05702
3768.58843 0.05762
3767.30266 0.05743
3766.01689 0.05645
3764.73112 0.05523
3763.44536 0.05450
3762.15959 0.05462
3760.87382 0.05538
3759.58805 0.05606
3758.30228 0.05592
3757.01651 0.05481
3755.73074 0.05338
3754.44497 0.05247
3753.15921 0.05250
3751.87344 0.05322
3750.58767 0.05401
3749.30190 0.05440
3748.01613 0.05429
3746.73036 0.05385
3745.44459 0.05360
3744.15882 0.05404
3742.87305 0.05494
3741.58729 0.05551
3740.30152 0.05534
3739.01575 0.05468
3737.72998 0.05387
3736.44421 0.05312
3735.15844 0.05254
3733.87267 0.05217
3732.58690 0.05210
3731.30114 0.05237
3730.01537 0.05279
3728.72960 0.05294
3727.44383 0.05261
3726.15806 0.05210
3724.87229 0.05188
3723.58652 0.05211
3722.30075 0.05258
3721.01498 0.05299
3719.72922 0.05333
3718.44345 0.05370
3717.15768 0.05397
3715.87191 0.05388
3714.58614 0.05340
3713.30037 0.05288
3712.01460 0.05273
3710.72883 0.05307
3709.44307 0.05371
3708.15730 0.05430
3706.87153 0.05444
3705.58576 0.05397
3704.29999 0.05317
3703.01422 0.05254
3701.72845 0.05224
3700.44268 0.05202
3699.15691 0.05167
3697.87115 0.05142
3696.58538 0.05164
3695.29961 0.05241
3694.01384 0.05327
3692.72807 0.05370
3691.44230 0.05367
3690.15653 0.05361
3688.87076 0.05396
3687.58500 0.05472
3686.29923 0.05534
3685.01346 0.05521
3683.72769 0.05444
3682.44192 0.05379
3681.15615 0.05394
3679.87038 0.05493
3678.58461 0.05614
3677.29884 0.05682
3676.01308 0.05672
3674.72731 0.05614
3673.44154 0.05547
3672.15577 0.05502
3670.87000 0.05494
3669.58423 0.05504
3668.29846 0.05480
3667.01269 0.05390
3665.72693 0.05271
3664.44116 0.05202
3663.15539 0.05236
3661.86962 0.05360
3660.58385 0.05500
3659.29808 0.05587
3658.01231 0.05609
3656.72654 0.05604
3655.44077 0.05608
3654.15501 0.05611
3652.86924 0.05587
3651.58347 0.05545
3650.29770 0.05524
3649.01193 0.05543
3647.72616 0.05583
3646.44039 0.05616
3645.15462 0.05637
3643.86886 0.05651
3642.58309 0.05659
3641.29732 0.05663
3640.01155 0.05682
3638.72578 0.05727
3637.44001 0.05785
3636.15424 0.05826
3634.86847 0.05862
3633.58270 0.05942
3632.29694 0.06081
3631.01117 0.06227
3629.72540 0.06323
3628.43963 0.06365
3627.15386 0.06372
3625.86809 0.06343
3624.58232 0.06274
3623.29655 0.06195
3622.01079 0.06156
3620.72502 0.06178
3619.43925 0.06230
3618.15348 0.06253
3616.86771 0.06209
3615.58194 0.06112
3614.29617 0.06018
3613.01040 0.05980
3611.72463 0.06013
3610.43887 0.06104
3609.15310 0.06234
3607.86733 0.06373
3606.58156 0.06462
3605.29579 0.06455
3604.01002 0.06373
3602.72425 0.06294
3601.43848 0.06280
3600.15272 0.06329
3598.86695 0.06398
3597.58118 0.06457
3596.29541 0.06503
3595.00964 0.06548
3593.72387 0.06600
3592.43810 0.06663
3591.15233 0.06731
3589.86656 0.06792
3588.58080 0.06830
3587.29503 0.06834
3586.00926 0.06808
3584.72349 0.06771
3583.43772 0.06737
3582.15195 0.06715
3580.86618 0.06708
3579.58041 0.06727
3578.29464 0.06779
3577.00888 0.06856
3575.72311 0.06924
3574.43734 0.06950
3573.15157 0.06932
3571.86580 0.06903
3570.58003 0.06899
3569.29426 0.06921
3568.00849 0.06938
3566.72273 0.06935
3565.43696 0.06921
3564.15119 0.06912
3562.86542 0.06900
3561.57965 0.06873
3560.29388 0.06839
3559.00811 0.06831
3557.72234 0.06873
3556.43657 0.06969
3555.15081 0.07087
3553.86504 0.07179
3552.57927 0.07206
3551.29350 0.07175
3550.00773 0.07136
3548.72196 0.07143
3547.43619 0.07206
3546.15042 0.07296
3544.86466 0.07378
3543.57889 0.07430
3542.29312 0.07437
3541.00735 0.07393
3539.72158 0.07323
3538.43581 0.07283
3537.15004 0.07309
3535.86427 0.07391
3534.57850 0.07490
3533.29274 0.07584
3532.00697 0.07679
3530.72120 0.07767
3529.43543 0.07818
3528.14966 0.07801
3526.86389 0.07721
3525.57812 0.07626
3524.29235 0.07574
3523.00659 0.07587
3521.72082 0.07634
3520.43505 0.07659
3519.14928 0.07644
3517.86351 0.07626
3516.57774 0.07647
3515.29197 0.07695
3514.00620 0.07721
3512.72043 0.07712
3511.43467 0.07702
3510.14890 0.07728
3508.86313 0.07768
3507.57736 0.07768
3506.29159 0.07710
3505.00582 0.07647
3503.72005 0.07642
3502.43428 0.07701
3501.14852 0.07776
3499.86275 0.07829
3498.57698 0.07874
3497.29121 0.07945
3496.00544 0.08044
3494.71967 0.08141
3493.43390 0.08214
3492.14813 0.08258
3490.86236 0.08268
3489.57660 0.08232
3488.29083 0.08163
3487.00506 0.08109
3485.71929 0.08109
3484.43352 0.08155
3483.14775 0.08202
3481.86198 0.08226
3480.57621 0.08236
3479.29045 0.08256
3478.00468 0.08288
3476.71891 0.08310
3475.43314 0.08300
3474.14737 0.08262
3472.86160 0.08221
3471.57583 0.08197
3470.29006 0.08186
3469.00429 0.08177
3467.71853 0.08178
3466.43276 0.08205
3465.14699 0.08255
3463.86122 0.08301
3462.57545 0.08320
3461.28968 0.08307
3460.00391 0.08273
3458.71814 0.08243
3457.43238 0.08247
3456.14661 0.08304
3454.86084 0.08399
3453.57507 0.08492
3452.28930 0.08549
3451.00353 0.08568
3449.71776 0.08569
3448.43199 0.08568
3447.14622 0.08572
3445.86046 0.08578
3444.57469 0.08584
3443.28892 0.08586
3442.00315 0.08583
3440.71738 0.08571
3439.43161 0.08553
3438.14584 0.08546
3436.86007 0.08584
3435.57431 0.08687
3434.28854 0.08835
3433.00277 0.08965
3431.71700 0.09016
3430.43123 0.08981
3429.14546 0.08908
3427.85969 0.08864
3426.57392 0.08880
3425.28815 0.08936
3424.00239 0.08983
3422.71662 0.08989
3421.43085 0.08956
3420.14508 0.08916
3418.85931 0.08896
3417.57354 0.08901
3416.28777 0.08919
3415.00200 0.08938
3413.71624 0.08958
3412.43047 0.08986
3411.14470 0.09023
3409.85893 0.09059
3408.57316 0.09078
3407.28739 0.09068
3406.00162 0.09038
3404.71585 0.09016
3403.43008 0.09025
3402.14432 0.09061
3400.85855 0.09086
3399.57278 0.09071
3398.28701 0.09032
3397.00124 0.09014
3395.71547 0.09047
3394.42970 0.09118
3393.14393 0.09197
3391.85817 0.09263
3390.57240 0.09315
3389.28663 0.09343
3388.00086 0.09337
3386.71509 0.09308
3385.42932 0.09294
3384.14355 0.09315
3382.85778 0.09359
3381.57201 0.09392
3380.28625 0.09389
3379.00048 0.09355
3377.71471 0.09311
3376.42894 0.09286
3375.14317 0.09303
3373.85740 0.09362
3372.57163 0.09440
3371.28586 0.09510
3370.00010 0.09547
3368.71433 0.09538
3367.42856 0.09488
3366.14279 0.09418
3364.85702 0.09361
3363.57125 0.09335
3362.28548 0.09332
3360.99971 0.09326
3359.71394 0.09305
3358.42818 0.09288
3357.14241 0.09301
3355.85664 0.09339
3354.57087 0.09361
3353.28510 0.09330
3351.99933 0.09253
3350.71356 0.09180
3349.42779 0.09158
3348.14202 0.09193
3346.85626 0.09247
3345.57049 0.09287
3344.28472 0.09312
3342.99895 0.09332
3341.71318 0.09338
3340.42741 0.09316
3339.14164 0.09271
3337.85587 0.09234
3336.57011 0.09224
3335.28434 0.09228
3333.99857 0.09229
3332.71280 0.09229
3331.42703 0.09244
3330.14126 0.09273
3328.85549 0.09291
3327.56972 0.09285
3326.28395 0.09265
3324.99819 0.09258
3323.71242 0.09280
3322.42665 0.09327
3321.14088 0.09378
3319.85511 0.09409
3318.56934 0.09407
3317.28357 0.09376
3315.99780 0.09333
3314.71204 0.09298
3313.42627 0.09285
3312.14050 0.09293
3310.85473 0.09306
3309.56896 0.09307
3308.28319 0.09288
3306.99742 0.09267
3305.71165 0.09271
3304.42588 0.09308
3303.14012 0.09347
3301.85435 0.09350
3300.56858 0.09316
3299.28281 0.09284
3297.99704 0.09288
3296.71127 0.09310
3295.42550 0.09309
3294.13973 0.09271
3292.85397 0.09226
3291.56820 0.09210
3290.28243 0.09217
3288.99666 0.09213
3287.71089 0.09181
3286.42512 0.09143
3285.13935 0.09127
3283.85358 0.09135
3282.56781 0.09149
3281.28205 0.09169
3279.99628 0.09200
3278.71051 0.09229
3277.42474 0.09224
3276.13897 0.09178
3274.85320 0.09132
3273.56743 0.09135
3272.28166 0.09193
3270.99590 0.09260
3269.71013 0.09286
3268.42436 0.09259
3267.13859 0.09198
3265.85282 0.09137
3264.56705 0.09107
3263.28128 0.09121
3261.99551 0.09161
3260.70974 0.09192
3259.42398 0.09196
3258.13821 0.09193
3256.85244 0.09205
3255.56667 0.09230
3254.28090 0.09240
3252.99513 0.09209
3251.70936 0.09142
3250.42359 0.09076
3249.13783 0.09053
3247.85206 0.09083
3246.56629 0.09142
3245.28052 0.09189
3243.99475 0.09194
3242.70898 0.09152
3241.42321 0.09079
3240.13744 0.09003
3238.85167 0.08947
3237.56591 0.08912
3236.28014 0.08888
3234.99437 0.08869
3233.70860 0.08852
3232.42283 0.08831
3231.13706 0.08810
3229.85129 0.08800
3228.56552 0.08811
3227.27976 0.08828
3225.99399 0.08822
3224.70822 0.08771
3223.42245 0.08688
3222.13668 0.08616
3220.85091 0.08598
3219.56514 0.08649
3218.27937 0.08740
3216.99360 0.08828
3215.70784 0.08882
3214.42207 0.08901
3213.13630 0.08903
3211.85053 0.08906
3210.56476 0.08913
3209.27899 0.08917
3207.99322 0.08913
3206.70745 0.08900
3205.42169 0.08882
3204.13592 0.08858
3202.85015 0.08824
3201.56438 0.08777
3200.27861 0.08727
3198.99284 0.08695
3197.70707 0.08692
3196.42130 0.08704
3195.13553 0.08709
3193.84977 0.08696
3192.56400 0.08667
3191.27823 0.08625
3189.99246 0.08569
3188.70669 0.08505
3187.42092 0.08450
3186.13515 0.08422
3184.84938 0.08412
3183.56362 0.08396
3182.27785 0.08361
3180.99208 0.08328
3179.70631 0.08333
3178.42054 0.08385
3177.13477 0.08453
3175.84900 0.08496
3174.56323 0.08491
3173.27746 0.08452
3171.99170 0.08415
3170.70593 0.08410
3169.42016 0.08435
3168.13439 0.08462
3166.84862 0.08467
3165.56285 0.08443
3164.27708 0.08389
3162.99131 0.08305
3161.70555 0.08206
3160.41978 0.08132
3159.13401 0.08118
3157.84824 0.08166
3156.56247 0.08244
3155.27670 0.08310
3153.99093 0.08337
3152.70516 0.08320
3151.41939 0.08276
3150.13363 0.08229
3148.84786 0.08197
3147.56209 0.08174
3146.27632 0.08137
3144.99055 0.08066
3143.70478 0.07979
3142.41901 0.07923
3141.13324 0.07943
3139.84748 0.08030
3138.56171 0.08123
3137.27594 0.08164
3135.99017 0.08145
3134.70440 0.08102
3133.41863 0.08072
3132.13286 0.08052
3130.84709 0.08018
3129.56132 0.07961
3128.27556 0.07910
3126.98979 0.07895
3125.70402 0.07910
3124.41825 0.07924
3123.13248 0.07916
3121.84671 0.07902
3120.56094 0.07902
3119.27517 0.07914
3117.98940 0.07913
3116.70364 0.07882
3115.41787 0.07830
3114.13210 0.07783
3112.84633 0.07761
3111.56056 0.07759
3110.27479 0.07760
3108.98902 0.07750
3107.70325 0.07729
3106.41749 0.07708
3105.13172 0.07693
3103.84595 0.07679
3102.56018 0.07665
3101.27441 0.07659
3099.98864 0.07669
3098.70287 0.07691
3097.41710 0.07711
3096.13133 0.07722
3094.84557 0.07726
3093.55980 0.07725
3092.27403 0.07716
3090.98826 0.07696
3089.70249 0.07670
3088.41672 0.07645
3087.13095 0.07623
3085.84518 0.07607
3084.55942 0.07603
3083.27365 0.07612
3081.98788 0.07624
3080.70211 0.07628
3079.41634 0.07618
3078.13057 0.07600
3076.84480 0.07572
3075.55903 0.07532
3074.27326 0.07483
3072.98750 0.07443
3071.70173 0.07423
3070.41596 0.07415
3069.13019 0.07409
3067.84442 0.07404
3066.55865 0.07412
3065.27288 0.07436
3063.98711 0.07462
3062.70135 0.07471
3061.41558 0.07457
3060.12981 0.07425
3058.84404 0.07386
3057.55827 0.07348
3056.27250 0.07310
3054.98673 0.07272
3053.70096 0.07244
3052.41519 0.07232
3051.12943 0.07234
3049.84366 0.07239
3048.55789 0.07240
3047.27212 0.07235
3045.98635 0.07222
3044.70058 0.07201
3043.41481 0.07174
3042.12904 0.07147
3040.84328 0.07126
3039.55751 0.07112
3038.27174 0.07109
3036.98597 0.07114
3035.70020 0.07123
3034.41443 0.07132
3033.12866 0.07144
3031.84289 0.07153
3030.55712 0.07143
3029.27136 0.07107
3027.98559 0.07058
3026.69982 0.07022
3025.41405 0.07018
3024.12828 0.07040
3022.84251 0.07069
3021.55674 0.07082
3020.27097 0.07065
3018.98521 0.07016
3017.69944 0.06956
3016.41367 0.06910
3015.12790 0.06893
3013.84213 0.06898
3012.55636 0.06908
3011.27059 0.06911
3009.98482 0.06913
3008.69905 0.06928
3007.41329 0.06952
3006.12752 0.06970
3004.84175 0.06959
3003.55598 0.06920
3002.27021 0.06874
3000.98444 0.06842
2999.69867 0.06829
2998.41290 0.06826
2997.12714 0.06815
2995.84137 0.06793
2994.55560 0.06765
2993.26983 0.06742
2991.98406 0.06736
2990.69829 0.06750
2989.41252 0.06770
2988.12675 0.06785
2986.84098 0.06798
2985.55522 0.06826
2984.26945 0.06871
2982.98368 0.06911
2981.69791 0.06921
2980.41214 0.06900
2979.12637 0.06872
2977.84060 0.06871
2976.55483 0.06923
2975.26907 0.07027
2973.98330 0.07152
2972.69753 0.07257
2971.41176 0.07317
2970.12599 0.07337
2968.84022 0.07346
2967.55445 0.07372
2966.26868 0.07429
2964.98291 0.07501
2963.69715 0.07556
2962.41138 0.07585
2961.12561 0.07604
2959.83984 0.07630
2958.55407 0.07662
2957.26830 0.07692
2955.98253 0.07723
2954.69676 0.07772
2953.41100 0.07849
2952.12523 0.07946
2950.83946 0.08031
2949.55369 0.08070
2948.26792 0.08050
2946.98215 0.07992
2945.69638 0.07940
2944.41061 0.07924
2943.12484 0.07952
2941.83908 0.08003
2940.55331 0.08048
2939.26754 0.08067
2937.98177 0.08059
2936.69600 0.08038
2935.41023 0.08019
2934.12446 0.08008
2932.83869 0.07997
2931.55293 0.07968
2930.26716 0.07906
2928.98139 0.07803
2927.69562 0.07664
2926.40985 0.07493
2925.12408 0.07281
2923.83831 0.07009
2922.55254 0.06660
2921.26677 0.06236
2919.98101 0.05777
2918.69524 0.05363
2917.40947 0.05094
2916.12370 0.05046
2914.83793 0.05230
2913.55216 0.05585
2912.26639 0.06007
2910.98062 0.06402
2909.69486 0.06719
2908.40909 0.06942
2907.12332 0.07082
2905.83755 0.07163
2904.55178 0.07220
2903.26601 0.07269
2901.98024 0.07297
2900.69447 0.07285
2899.40870 0.07243
2898.12294 0.07203
2896.83717 0.07186
2895.55140 0.07183
2894.26563 0.07171
2892.97986 0.07144
2891.69409 0.07113
2890.40832 0.07090
2889.12255 0.07074
2887.83678 0.07053
2886.55102 0.07026
2885.26525 0.07002
2883.97948 0.06987
2882.69371 0.06984
2881.40794 0.06993
2880.12217 0.07009
2878.83640 0.07028
2877.55063 0.07050
2876.26487 0.07078
2874.97910 0.07114
2873.69333 0.07155
2872.40756 0.07201
2871.12179 0.07258
2869.83602 0.07317
2868.55025 0.07352
2867.26448 0.07342
2865.97871 0.07289
2864.69295 0.07211
2863.40718 0.07122
2862.12141 0.07030
2860.83564 0.06942
2859.54987 0.06870
2858.26410 0.06805
2856.97833 0.06709
2855.69256 0.06531
2854.40680 0.06238
2853.12103 0.05843
2851.83526 0.05416
2850.54949 0.05079
2849.26372 0.04954
2847.97795 0.05090
2846.69218 0.05416
2845.40641 0.05790
2844.12064 0.06089
2842.83488 0.06270
2841.54911 0.06359
2840.26334 0.06399
2838.97757 0.06426
2837.69180 0.06448
2836.40603 0.06457
2835.12026 0.06442
2833.83449 0.06405
2832.54873 0.06354
2831.26296 0.06304
2829.97719 0.06266
2828.69142 0.06246
2827.40565 0.06237
2826.11988 0.06218
2824.83411 0.06175
2823.54834 0.06110
2822.26257 0.06040
2820.97681 0.05986
2819.69104 0.05955
2818.40527 0.05940
2817.11950 0.05928
2815.83373 0.05912
2814.54796 0.05893
2813.26219 0.05880
2811.97642 0.05872
2810.69066 0.05865
2809.40489 0.05857
2808.11912 0.05851
2806.83335 0.05851
2805.54758 0.05850
2804.26181 0.05840
2802.97604 0.05825
2801.69027 0.05814
2800.40450 0.05809
2799.11874 0.05802
2797.83297 0.05785
2796.54720 0.05762
2795.26143 0.05740
2793.97566 0.05727
2792.68989 0.05724
2791.40412 0.05730
2790.11835 0.05739
2788.83259 0.05740
2787.54682 0.05726
2786.26105 0.05701
2784.97528 0.05680
2783.68951 0.05671
2782.40374 0.05673
2781.11797 0.05678
2779.83220 0.05682
2778.54643 0.05681
2777.26067 0.05676
2775.97490 0.05662
2774.68913 0.05634
2773.40336 0.05593
2772.11759 0.05551
2770.83182 0.05523
2769.54605 0.05514
2768.26028 0.05514
2766.97452 0.05517
2765.68875 0.05521
2764.40298 0.05525
2763.11721 0.05520
2761.83144 0.05494
2760.54567 0.05448
2759.25990 0.05398
2757.97413 0.05366
2756.68836 0.05373
2755.40260 0.05414
2754.11683 0.05463
2752.83106 0.05482
2751.54529 0.05457
2750.25952 0.05405
2748.97375 0.05357
2747.68798 0.05331
2746.40221 0.05324
2745.11645 0.05327
2743.83068 0.05333
2742.54491 0.05341
2741.25914 0.05352
2739.97337 0.05361
2738.68760 0.05365
2737.40183 0.05356
2736.11606 0.05330
2734.83029 0.05295
2733.54453 0.05272
2732.25876 0.05272
2730.97299 0.05284
2729.68722 0.05287
2728.40145 0.05274
2727.11568 0.05253
2725.82991 0.05232
2724.54414 0.05220
2723.25838 0.05221
2721.97261 0.05237
2720.68684 0.05252
2719.40107 0.05250
2718.11530 0.05229
2716.82953 0.05201
2715.54376 0.05182
2714.25799 0.05171
2712.97222 0.05160
2711.68646 0.05150
2710.40069 0.05147
2709.11492 0.05156
2707.82915 0.05167
2706.54338 0.05165
2705.25761 0.05144
2703.97184 0.05114
2702.68607 0.05086
2701.40031 0.05068
2700.11454 0.05059
2698.82877 0.05054
2697.54300 0.05050
2696.25723 0.05048
2694.97146 0.05059
2693.68569 0.05089
2692.39992 0.05128
2691.11415 0.05155
2689.82839 0.05156
2688.54262 0.05138
2687.25685 0.05120
2685.97108 0.05109
2684.68531 0.05091
2683.39954 0.05054
2682.11377 0.05008
2680.82800 0.04972
2679.54224 0.04954
2678.25647 0.04948
2676.97070 0.04948
2675.68493 0.04955
2674.39916 0.04962
2673.11339 0.04958
2671.82762 0.04941
2670.54185 0.04925
2669.25608 0.04925
2667.97032 0.04946
2666.68455 0.04976
2665.39878 0.04999
2664.11301 0.05008
2662.82724 0.05006
2661.54147 0.05004
2660.25570 0.05006
2658.96993 0.05007
2657.68417 0.05000
2656.39840 0.04980
2655.11263 0.04952
2653.82686 0.04920
2652.54109 0.04884
2651.25532 0.04841
2649.96955 0.04798
2648.68378 0.04762
2647.39801 0.04736
2646.11225 0.04721
2644.82648 0.04723
2643.54071 0.04741
2642.25494 0.04758
2640.96917 0.04755
2639.68340 0.04724
2638.39763 0.04681
2637.11186 0.04640
2635.82609 0.04607
2634.54033 0.04579
2633.25456 0.04550
2631.96879 0.04517
2630.68302 0.04490
2629.39725 0.04483
2628.11148 0.04501
2626.82571 0.04525
2625.53994 0.04532
2624.25418 0.04512
2622.96841 0.04470
2621.68264 0.04422
2620.39687 0.04393
2619.11110 0.04394
2617.82533 0.04413
2616.53956 0.04428
2615.25379 0.04428
2613.96802 0.04419
2612.68226 0.04407
2611.39649 0.04384
2610.11072 0.04348
2608.82495 0.04307
2607.53918 0.04280
2606.25341 0.04276
2604.96764 0.04289
2603.68187 0.04300
2602.39611 0.04289
2601.11034 0.04257
2599.82457 0.04222
2598.53880 0.04204
2597.25303 0.04210
2595.96726 0.04233
2594.68149 0.04261
2593.39572 0.04286
2592.10995 0.04311
2590.82419 0.04335
2589.53842 0.04340
2588.25265 0.04306
2586.96688 0.04235
2585.68111 0.04167
2584.39534 0.04141
2583.10957 0.04139
2581.82380 0.04107
2580.53804 0.04019
2579.25227 0.03917
2577.96650 0.03872
2576.68073 0.03911
2575.39496 0.03993
2574.10919 0.04062
2572.82342 0.04091
2571.53765 0.04087
2570.25188 0.04068
2568.96612 0.04053
2567.68035 0.04061
2566.39458 0.04098
2565.10881 0.04143
2563.82304 0.04160
2562.53727 0.04130
2561.25150 0.04063
2559.96573 0.03986
2558.67997 0.03920
2557.39420 0.03875
2556.10843 0.03850
2554.82266 0.03847
2553.53689 0.03870
2552.25112 0.03916
2550.96535 0.03967
2549.67958 0.04003
2548.39381 0.04012
2547.10805 0.03991
2545.82228 0.03947
2544.53651 0.03899
2543.25074 0.03871
2541.96497 0.03880
2540.67920 0.03914
2539.39343 0.03945
2538.10766 0.03948
2536.82190 0.03916
2535.53613 0.03861
2534.25036 0.03803
2532.96459 0.03766
2531.67882 0.03753
2530.39305 0.03746
2529.10728 0.03725
2527.82151 0.03692
2526.53574 0.03665
2525.24998 0.03664
2523.96421 0.03684
2522.67844 0.03708
2521.39267 0.03726
2520.10690 0.03738
2518.82113 0.03756
2517.53536 0.03785
2516.24959 0.03813
2514.96383 0.03811
2513.67806 0.03766
2512.39229 0.03698
2511.10652 0.03652
2509.82075 0.03659
2508.53498 0.03706
2507.24921 0.03756
2505.96344 0.03773
2504.67767 0.03756
2503.39191 0.03723
2502.10614 0.03698
2500.82037 0.03697
2499.53460 0.03722
2498.24883 0.03760
2496.96306 0.03785
2495.67729 0.03776
2494.39152 0.03737
2493.10576 0.03695
2491.81999 0.03668
2490.53422 0.03652
2489.24845 0.03638
2487.96268 0.03628
2486.67691 0.03631
2485.39114 0.03646
2484.10537 0.03661
2482.81960 0.03661
2481.53384 0.03647
2480.24807 0.03635
2478.96230 0.03651
2477.67653 0.03691
2476.39076 0.03724
2475.10499 0.03713
2473.81922 0.03668
2472.53345 0.03632
2471.24769 0.03633
2469.96192 0.03656
2468.67615 0.03673
2467.39038 0.03674
2466.10461 0.03668
2464.81884 0.03663
2463.53307 0.03662
2462.24730 0.03659
2460.96153 0.03647
2459.67577 0.03617
2458.39000 0.03574
2457.10423 0.03533
2455.81846 0.03510
2454.53269 0.03510
2453.24692 0.03527
2451.96115 0.03554
2450.67538 0.03585
2449.38962 0.03612
2448.10385 0.03616
2446.81808 0.03585
2445.53231 0.03525
2444.24654 0.03462
2442.96077 0.03422
2441.67500 0.03407
2440.38923 0.03398
2439.10346 0.03387
2437.81770 0.03389
2436.53193 0.03424
2435.24616 0.03488
2433.96039 0.03542
2432.67462 0.03557
2431.38885 0.03538
2430.10308 0.03511
2428.81731 0.03488
2427.53155 0.03458
2426.24578 0.03418
2424.96001 0.03383
2423.67424 0.03375
2422.38847 0.03404
2421.10270 0.03449
2419.81693 0.03480
2418.53116 0.03481
2417.24539 0.03462
2415.95963 0.03436
2414.67386 0.03412
2413.38809 0.03393
2412.10232 0.03386
2410.81655 0.03392
2409.53078 0.03408
2408.24501 0.03429
2406.95924 0.03449
2405.67347 0.03460
2404.38771 0.03455
2403.10194 0.03428
2401.81617 0.03380
2400.53040 0.03326
2399.24463 0.03287
2397.95886 0.03269
2396.67309 0.03271
2395.38732 0.03288
2394.10156 0.03320
2392.81579 0.03357
2391.53002 0.03386
2390.24425 0.03395
2388.95848 0.03384
2387.67271 0.03367
2386.38694 0.03361
2385.10117 0.03374
2383.81540 0.03397
2382.52964 0.03412
2381.24387 0.03411
2379.95810 0.03404
2378.67233 0.03405
2377.38656 0.03411
2376.10079 0.03408
2374.81502 0.03394
2373.52925 0.03376
2372.24349 0.03364
2370.95772 0.03357
2369.67195 0.03354
2368.38618 0.03358
2367.10041 0.03373
2365.81464 0.03399
2364.52887 0.03437
2363.24310 0.03476
2361.95733 0.03501
2360.67157 0.03502
2359.38580 0.03496
2358.10003 0.03499
2356.81426 0.03509
2355.52849 0.03520
2354.24272 0.03526
2352.95695 0.03520
2351.67118 0.03495
2350.38542 0.03463
2349.09965 0.03447
2347.81388 0.03446
2346.52811 0.03432
2345.24234 0.03419
2343.95657 0.03443
2342.67080 0.03489
2341.38503 0.03483
2340.09926 0.03433
2338.81350 0.03444
2337.52773 0.03512
2336.24196 0.03501
2334.95619 0.03426
2333.67042 0.03418
2332.38465 0.03454
2331.09888 0.03414
2329.81311 0.03388
2328.52735 0.03469
2327.24158 0.03528
2325.95581 0.03561
2324.67004 0.03630
2323.38427 0.03634
2322.09850 0.03565
2320.81273 0.03533
2319.52696 0.03483
2318.24119 0.03411
2316.95543 0.03365
2315.66966 0.03313
2314.38389 0.03276
2313.09812 0.03281
2311.81235 0.03292
2310.52658 0.03319
2309.24081 0.03352
2307.95504 0.03369
2306.66928 0.03373
2305.38351 0.03347
2304.09774 0.03295
2302.81197 0.03234
2301.52620 0.03184
2300.24043 0.03171
2298.95466 0.03193
2297.66889 0.03228
2296.38312 0.03244
2295.09736 0.03226
2293.81159 0.03195
2292.52582 0.03180
2291.24005 0.03190
2289.95428 0.03195
2288.66851 0.03161
2287.38274 0.03079
2286.09697 0.02979
2284.81121 0.02903
2283.52544 0.02876
2282.23967 0.02892
2280.95390 0.02924
2279.66813 0.02939
2278.38236 0.02912
2277.09659 0.02842
2275.81082 0.02756
2274.52505 0.02699
2273.23929 0.02702
2271.95352 0.02751
2270.66775 0.02805
2269.38198 0.02828
2268.09621 0.02814
2266.81044 0.02783
2265.52467 0.02759
2264.23890 0.02754
2262.95314 0.02745
2261.66737 0.02702
2260.38160 0.02621
2259.09583 0.02532
2257.81006 0.02463
2256.52429 0.02419
2255.23852 0.02389
2253.95275 0.02359
2252.66698 0.02318
2251.38122 0.02265
2250.09545 0.02221
2248.80968 0.02232
2247.52391 0.02326
2246.23814 0.02466
2244.95237 0.02546
2243.66660 0.02494
2242.38083 0.02343
2241.09507 0.02195
2239.80930 0.02134
2238.52353 0.02175
2237.23776 0.02283
2235.95199 0.02406
2234.66622 0.02493
2233.38045 0.02501
2232.09468 0.02415
2230.80891 0.02260
2229.52315 0.02102
2228.23738 0.02016
2226.95161 0.02046
2225.66584 0.02167
2224.38007 0.02298
2223.09430 0.02380
2221.80853 0.02408
2220.52276 0.02413
2219.23700 0.02408
2217.95123 0.02387
2216.66546 0.02349
2215.37969 0.02294
2214.09392 0.02213
2212.80815 0.02088
2211.52238 0.01932
2210.23661 0.01800
2208.95084 0.01752
2207.66508 0.01799
2206.37931 0.01897
2205.09354 0.01983
2203.80777 0.02023
2202.52200 0.02028
2201.23623 0.02026
2199.95046 0.02026
2198.66469 0.02023
2197.37893 0.02027
2196.09316 0.02052
2194.80739 0.02075
2193.52162 0.02034
2192.23585 0.01905
2190.95008 0.01746
2189.66431 0.01642
2188.37854 0.01612
2187.09277 0.01611
2185.80701 0.01594
2184.52124 0.01571
2183.23547 0.01571
2181.94970 0.01591
2180.66393 0.01593
2179.37816 0.01553
2178.09239 0.01495
2176.80662 0.01453
2175.52085 0.01423
2174.23509 0.01377
2172.94932 0.01307
2171.66355 0.01245
2170.37778 0.01226
2169.09201 0.01250
2167.80624 0.01270
2166.52047 0.01241
2165.23470 0.01177
2163.94894 0.01152
2162.66317 0.01218
2161.37740 0.01327
2160.09163 0.01372
2158.80586 0.01311
2157.52009 0.01209
2156.23432 0.01144
2154.94855 0.01123
2153.66278 0.01127
2152.37702 0.01161
2151.09125 0.01242
2149.80548 0.01349
2148.51971 0.01430
2147.23394 0.01463
2145.94817 0.01471
2144.66240 0.01486
2143.37663 0.01505
2142.09087 0.01507
2140.80510 0.01491
2139.51933 0.01481
2138.23356 0.01487
2136.94779 0.01486
2135.66202 0.01451
2134.37625 0.01402
2133.09048 0.01398
2131.80471 0.01468
2130.51895 0.01583
2129.23318 0.01696
2127.94741 0.01787
2126.66164 0.01858
2125.37587 0.01903
2124.09010 0.01914
2122.80433 0.01898
2121.51856 0.01873
2120.23280 0.01860
2118.94703 0.01878
2117.66126 0.01934
2116.37549 0.01999
2115.08972 0.02033
2113.80395 0.02021
2112.51818 0.01992
2111.23241 0.01980
2109.94664 0.01981
2108.66088 0.01963
2107.37511 0.01912
2106.08934 0.01846
2104.80357 0.01794
2103.51780 0.01767
2102.23203 0.01761
2100.94626 0.01769
2099.66049 0.01820
2098.37473 0.01861
2097.08896 0.01886
2095.80319 0.01895
2094.51742 0.01886
2093.23165 0.01866
2091.94588 0.01847
2090.66011 0.01833
2089.37434 0.01822
2088.08857 0.01816
2086.80281 0.01829
2085.51704 0.01864
2084.23127 0.01902
2082.94550 0.01919
2081.65973 0.01900
2080.37396 0.01854
2079.08819 0.01800
2077.80242 0.01753
2076.51666 0.01723
2075.23089 0.01708
2073.94512 0.01699
2072.65935 0.01688
2071.37358 0.01675
2070.08781 0.01659
2068.80204 0.01642
2067.51627 0.01621
2066.23050 0.01605
2064.94474 0.01605
2063.65897 0.01623
2062.37320 0.01631
2061.08743 0.01599
2059.80166 0.01523
2058.51589 0.01436
2057.23012 0.01378
2055.94435 0.01370
2054.65859 0.01397
2053.37282 0.01428
2052.08705 0.01441
2050.80128 0.01431
2049.51551 0.01404
2048.22974 0.01372
2046.94397 0.01352
2045.65820 0.01364
2044.37243 0.01404
2043.08667 0.01440
2041.80090 0.01439
2040.51513 0.01395
2039.22936 0.01315
2037.94359 0.01197
2036.65782 0.01039
2035.37205 0.00873
2034.08628 0.00765
2032.80052 0.00760
2031.51475 0.00840
2030.22898 0.00946
2028.94321 0.01038
2027.65744 0.01106
2026.37167 0.01149
2025.08590 0.01154
2023.80013 0.01105
2022.51436 0.01012
2021.22860 0.00918
2019.94283 0.00870
2018.65706 0.00884
2017.37129 0.00925
2016.08552 0.00952
2014.79975 0.00947
2013.51398 0.00925
2012.22821 0.00910
2010.94245 0.00908
2009.65668 0.00916
2008.37091 0.00937
2007.08514 0.00982
2005.79937 0.01051
2004.51360 0.01121
2003.22783 0.01162
2001.94206 0.01161
2000.65629 0.01138
1999.37053 0.01128
1998.08476 0.01157
1996.79899 0.01218
1995.51322 0.01278
1994.22745 0.01309
1992.94168 0.01316
1991.65591 0.01320
1990.37014 0.01324
1989.08438 0.01302
1987.79861 0.01244
1986.51284 0.01190
1985.22707 0.01192
1983.94130 0.01253
1982.65553 0.01338
1981.36976 0.01414
1980.08399 0.01477
1978.79822 0.01510
1977.51246 0.01475
1976.22669 0.01365
1974.94092 0.01244
1973.65515 0.01198
1972.36938 0.01248
1971.08361 0.01349
1969.79784 0.01439
1968.51207 0.01490
1967.22631 0.01503
1965.94054 0.01492
1964.65477 0.01468
1963.36900 0.01437
1962.08323 0.01410
1960.79746 0.01396
1959.51169 0.01406
1958.22592 0.01441
1956.94015 0.01487
1955.65439 0.01521
1954.36862 0.01538
1953.08285 0.01554
1951.79708 0.01584
1950.51131 0.01615
1949.22554 0.01618
1947.93977 0.01580
1946.65400 0.01529
1945.36823 0.01504
1944.08247 0.01521
1942.79670 0.01565
1941.51093 0.01608
1940.22516 0.01634
1938.93939 0.01642
1937.65362 0.01644
1936.36785 0.01655
1935.08208 0.01679
1933.79632 0.01710
1932.51055 0.01734
1931.22478 0.01745
1929.93901 0.01746
1928.65324 0.01745
1927.36747 0.01756
1926.08170 0.01783
1924.79593 0.01816
1923.51016 0.01834
1922.22440 0.01823
1920.93863 0.01793
1919.65286 0.01768
1918.36709 0.01760
1917.08132 0.01767
1915.79555 0.01785
1914.50978 0.01812
1913.22401 0.01844
1911.93825 0.01868
1910.65248 0.01876
1909.36671 0.01872
1908.08094 0.01870
1906.79517 0.01873
1905.50940 0.01879
1904.22363 0.01884
1902.93786 0.01887
1901.65209 0.01891
1900.36633 0.01894
1899.08056 0.01891
1897.79479 0.01878
1896.50902 0.01857
1895.22325 0.01837
1893.93748 0.01828
1892.65171 0.01837
1891.36594 0.01863
1890.08018 0.01899
1888.79441 0.01933
1887.50864 0.01948
1886.22287 0.01938
1884.93710 0.01917
1883.65133 0.01901
1882.36556 0.01888
1881.07979 0.01867
1879.79402 0.01830
1878.50826 0.01788
1877.22249 0.01759
1875.93672 0.01756
1874.65095 0.01780
1873.36518 0.01820
1872.07941 0.01863
1870.79364 0.01893
1869.50787 0.01904
1868.22211 0.01904
1866.93634 0.01904
1865.65057 0.01916
1864.36480 0.01943
1863.07903 0.01979
1861.79326 0.02010
1860.50749 0.02021
1859.22172 0.02012
1857.93595 0.01994
1856.65019 0.01980
1855.36442 0.01977
1854.07865 0.01985
1852.79288 0.02000
1851.50711 0.02014
1850.22134 0.02018
1848.93557 0.02007
1847.64980 0.01983
1846.36404 0.01952
1845.07827 0.01928
1843.79250 0.01920
1842.50673 0.01928
1841.22096 0.01946
1839.93519 0.01961
1838.64942 0.01966
1837.36365 0.01961
1836.07788 0.01950
1834.79212 0.01942
1833.50635 0.01939
1832.22058 0.01938
1830.93481 0.01940
1829.64904 0.01948
1828.36327 0.01965
1827.07750 0.01983
1825.79173 0.01993
1824.50597 0.01991
1823.22020 0.01979
1821.93443 0.01968
1820.64866 0.01965
1819.36289 0.01972
1818.07712 0.01980
1816.79135 0.01981
1815.50558 0.01976
1814.21981 0.01969
1812.93405 0.01964
1811.64828 0.01961
1810.36251 0.01961
1809.07674 0.01966
1807.79097 0.01973
1806.50520 0.01978
1805.21943 0.01978
1803.93366 0.01973
1802.64790 0.01968
1801.36213 0.01967
1800.07636 0.01971
1798.79059 0.01978
1797.50482 0.01985
1796.21905 0.01990
1794.93328 0.01992
1793.64751 0.01993
1792.36174 0.02002
1791.07598 0.02018
1789.79021 0.02035
1788.50444 0.02045
1787.21867 0.02049
1785.93290 0.02050
1784.64713 0.02051
1783.36136 0.02050
1782.07559 0.02047
1780.78983 0.02049
1779.50406 0.02057
1778.21829 0.02067
1776.93252 0.02074
1775.64675 0.02081
1774.36098 0.02094
1773.07521 0.02113
1771.78944 0.02139
1770.50367 0.02161
1769.21791 0.02173
1767.93214 0.02176
1766.64637 0.02179
1765.36060 0.02183
1764.07483 0.02186
1762.78906 0.02190
1761.50329 0.02194
1760.21752 0.02199
1758.93176 0.02203
1757.64599 0.02211
1756.36022 0.02228
1755.07445 0.02249
1753.78868 0.02264
1752.50291 0.02265
1751.21714 0.02262
1749.93137 0.02266
1748.64560 0.02281
1747.35984 0.02303
1746.07407 0.02321
1744.78830 0.02331
1743.50253 0.02337
1742.21676 0.02348
1740.93099 0.02364
1739.64522 0.02384
1738.35945 0.02405
1737.07369 0.02424
1735.78792 0.02439
1734.50215 0.02458
1733.21638 0.02485
1731.93061 0.02514
1730.64484 0.02538
1729.35907 0.02559
1728.07330 0.02581
1726.78753 0.02605
1725.50177 0.02627
1724.21600 0.02651
1722.93023 0.02681
1721.64446 0.02717
1720.35869 0.02753
1719.07292 0.02784
1717.78715 0.02817
1716.50138 0.02857
1715.21561 0.02900
1713.92985 0.02940
1712.64408 0.02980
1711.35831 0.03024
1710.07254 0.03072
1708.78677 0.03122
1707.50100 0.03168
1706.21523 0.03211
1704.92946 0.03256
1703.64370 0.03306
1702.35793 0.03359
1701.07216 0.03417
1699.78639 0.03483
1698.50062 0.03543
1697.21485 0.03582
1695.92908 0.03603
1694.64331 0.03630
1693.35754 0.03668
1692.07178 0.03711
1690.78601 0.03757
1689.50024 0.03809
1688.21447 0.03862
1686.92870 0.03911
1685.64293 0.03958
1684.35716 0.04013
1683.07139 0.04078
1681.78563 0.04141
1680.49986 0.04195
1679.21409 0.04247
1677.92832 0.04299
1676.64255 0.04349
1675.35678 0.04396
1674.07101 0.04443
1672.78524 0.04491
1671.49947 0.04541
1670.21371 0.04595
1668.92794 0.04655
1667.64217 0.04715
1666.35640 0.04765
1665.07063 0.04805
1663.78486 0.04843
1662.49909 0.04888
1661.21332 0.04940
1659.92756 0.04991
1658.64179 0.05038
1657.35602 0.05082
1656.07025 0.05120
1654.78448 0.05149
1653.49871 0.05173
1652.21294 0.05205
1650.92717 0.05240
1649.64140 0.05267
1648.35564 0.05283
1647.06987 0.05298
1645.78410 0.05318
1644.49833 0.05338
1643.21256 0.05351
1641.92679 0.05359
1640.64102 0.05367
1639.35525 0.05379
1638.06949 0.05389
1636.78372 0.05395
1635.49795 0.05401
1634.21218 0.05411
1632.92641 0.05419
1631.64064 0.05421
1630.35487 0.05417
1629.06910 0.05414
1627.78333 0.05418
1626.49757 0.05429
1625.21180 0.05440
1623.92603 0.05446
1622.64026 0.05448
1621.35449 0.05451
1620.06872 0.05457
1618.78295 0.05465
1617.49718 0.05479
1616.21142 0.05505
1614.92565 0.05539
1613.63988 0.05570
1612.35411 0.05590
1611.06834 0.05603
1609.78257 0.05614
1608.49680 0.05626
1607.21103 0.05643
1605.92526 0.05665
1604.63950 0.05693
1603.35373 0.05724
1602.06796 0.05756
1600.78219 0.05788
1599.49642 0.05816
1598.21065 0.05841
1596.92488 0.05858
1595.63911 0.05868
1594.35335 0.05873
1593.06758 0.05878
1591.78181 0.05884
1590.49604 0.05892
1589.21027 0.05899
1587.92450 0.05907
1586.63873 0.05914
1585.35296 0.05917
1584.06719 0.05909
1582.78143 0.05892
1581.49566 0.05877
1580.20989 0.05872
1578.92412 0.05879
1577.63835 0.05890
1576.35258 0.05908
1575.06681 0.05935
1573.78104 0.05967
1572.49528 0.05998
1571.20951 0.06027
1569.92374 0.06055
1568.63797 0.06079
1567.35220 0.06094
1566.06643 0.06101
1564.78066 0.06108
1563.49489 0.06121
1562.20912 0.06132
1560.92336 0.06133
1559.63759 0.06131
1558.35182 0.06137
1557.06605 0.06145
1555.78028 0.06143
1554.49451 0.06128
1553.20874 0.06106
1551.92297 0.06076
1550.63721 0.06036
1549.35144 0.05989
1548.06567 0.05936
1546.77990 0.05878
1545.49413 0.05816
1544.20836 0.05757
1542.92259 0.05702
1541.63682 0.05652
1540.35105 0.05610
1539.06529 0.05582
1537.77952 0.05570
1536.49375 0.05568
1535.20798 0.05572
1533.92221 0.05580
1532.63644 0.05590
1531.35067 0.05595
1530.06490 0.05595
1528.77914 0.05597
1527.49337 0.05610
1526.20760 0.05632
1524.92183 0.05659
1523.63606 0.05684
1522.35029 0.05709
1521.06452 0.05741
1519.77875 0.05786
1518.49298 0.05837
1517.20722 0.05894
1515.92145 0.05959
1514.63568 0.06032
1513.34991 0.06107
1512.06414 0.06184
1510.77837 0.06263
1509.49260 0.06346
1508.20683 0.06430
1506.92107 0.06517
1505.63530 0.06604
1504.34953 0.06687
1503.06376 0.06762
1501.77799 0.06831
1500.49222 0.06895
1499.20645 0.06952
1497.92068 0.07000
1496.63491 0.07046
1495.34915 0.07096
1494.06338 0.07146
1492.77761 0.07192
1491.49184 0.07235
1490.20607 0.07281
1488.92030 0.07337
1487.63453 0.07403
1486.34876 0.07479
1485.06299 0.07560
1483.77723 0.07644
1482.49146 0.07727
1481.20569 0.07809
1479.91992 0.07887
1478.63415 0.07959
1477.34838 0.08020
1476.06261 0.08073
1474.77684 0.08122
1473.49108 0.08177
1472.20531 0.08246
1470.91954 0.08327
1469.63377 0.08413
1468.34800 0.08493
1467.06223 0.08564
1465.77646 0.08630
1464.49069 0.08696
1463.20492 0.08772
1461.91916 0.08860
1460.63339 0.08956
1459.34762 0.09050
1458.06185 0.09134
1456.77608 0.09207
1455.49031 0.09272
1454.20454 0.09326
1452.91877 0.09369
1451.63301 0.09408
1450.34724 0.09447
1449.06147 0.09479
1447.77570 0.09501
1446.48993 0.09507
1445.20416 0.09502
1443.91839 0.09490
1442.63262 0.09478
1441.34685 0.09465
1440.06109 0.09447
1438.77532 0.09425
1437.48955 0.09408
1436.20378 0.09412
1434.91801 0.09443
1433.63224 0.09496
1432.34647 0.09560
1431.06070 0.09635
1429.77494 0.09722
1428.48917 0.09821
1427.20340 0.09927
1425.91763 0.10033
1424.63186 0.10140
1423.34609 0.10247
1422.06032 0.10352
1420.77455 0.10451
1419.48878 0.10544
1418.20302 0.10631
1416.91725 0.10705
1415.63148 0.10760
1414.34571 0.10796
1413.05994 0.10814
1411.77417 0.10816
1410.48840 0.10798
1409.20263 0.10761
1407.91687 0.10705
1406.63110 0.10632
1405.34533 0.10539
1404.05956 0.10427
1402.77379 0.10298
1401.48802 0.10157
1400.20225 0.10008
1398.91648 0.09852
1397.63071 0.09688
1396.34495 0.09511
1395.05918 0.09325
1393.77341 0.09143
1392.48764 0.08971
1391.20187 0.08811
1389.91610 0.08656
1388.63033 0.08501
1387.34456 0.08344
1386.05880 0.08187
1384.77303 0.08032
1383.48726 0.07882
1382.20149 0.07739
1380.91572 0.07598
1379.62995 0.07454
1378.34418 0.07301
1377.05841 0.07137
1375.77264 0.06963
1374.48688 0.06786
1373.20111 0.06611
1371.91534 0.06443
1370.62957 0.06284
1369.34380 0.06135
1368.05803 0.05997
1366.77226 0.05870
1365.48649 0.05749
1364.20073 0.05630
1362.91496 0.05512
1361.62919 0.05392
1360.34342 0.05275
1359.05765 0.05163
1357.77188 0.05064
1356.48611 0.04978
1355.20034 0.04903
1353.91457 0.04834
1352.62881 0.04768
1351.34304 0.04701
1350.05727 0.04633
1348.77150 0.04565
1347.48573 0.04500
1346.19996 0.04439
1344.91419 0.04384
1343.62842 0.04332
1342.34266 0.04283
1341.05689 0.04237
1339.77112 0.04192
1338.48535 0.04149
1337.19958 0.04109
1335.91381 0.04071
1334.62804 0.04032
1333.34227 0.03988
1332.05650 0.03939
1330.77074 0.03891
1329.48497 0.03851
1328.19920 0.03819
1326.91343 0.03792
1325.62766 0.03766
1324.34189 0.03741
1323.05612 0.03720
1321.77035 0.03700
1320.48459 0.03675
1319.19882 0.03644
1317.91305 0.03611
1316.62728 0.03580
1315.34151 0.03550
1314.05574 0.03520
1312.76997 0.03487
1311.48420 0.03455
1310.19843 0.03426
1308.91267 0.03400
1307.62690 0.03378
1306.34113 0.03360
1305.05536 0.03346
1303.76959 0.03335
1302.48382 0.03327
1301.19805 0.03320
1299.91228 0.03312
1298.62652 0.03303
1297.34075 0.03291
1296.05498 0.03276
1294.76921 0.03259
1293.48344 0.03244
1292.19767 0.03231
1290.91190 0.03218
1289.62613 0.03200
1288.34036 0.03175
1287.05460 0.03150
1285.76883 0.03133
1284.48306 0.03125
1283.19729 0.03122
1281.91152 0.03118
1280.62575 0.03109
1279.33998 0.03096
1278.05421 0.03080
1276.76845 0.03066
1275.48268 0.03056
1274.19691 0.03047
1272.91114 0.03036
1271.62537 0.03023
1270.33960 0.03012
1269.05383 0.03003
1267.76806 0.02995
1266.48229 0.02985
1265.19653 0.02974
1263.91076 0.02964
1262.62499 0.02959
1261.33922 0.02957
1260.05345 0.02956
1258.76768 0.02951
1257.48191 0.02940
1256.19614 0.02926
1254.91037 0.02914
1253.62461 0.02906
1252.33884 0.02904
1251.05307 0.02904
1249.76730 0.02903
1248.48153 0.02899
1247.19576 0.02892
1245.90999 0.02888
1244.62422 0.02886
1243.33846 0.02888
1242.05269 0.02890
1240.76692 0.02888
1239.48115 0.02881
1238.19538 0.02870
1236.90961 0.02859
1235.62384 0.02849
1234.33807 0.02844
1233.05230 0.02844
1231.76654 0.02848
1230.48077 0.02854
1229.19500 0.02858
1227.90923 0.02857
1226.62346 0.02853
1225.33769 0.02844
1224.05192 0.02834
1222.76615 0.02825
1221.48039 0.02819
1220.19462 0.02818
1218.90885 0.02821
1217.62308 0.02825
1216.33731 0.02831
1215.05154 0.02839
1213.76577 0.02849
1212.48000 0.02858
1211.19423 0.02867
1209.90847 0.02878
1208.62270 0.02891
1207.33693 0.02904
1206.05116 0.02913
1204.76539 0.02918
1203.47962 0.02923
1202.19385 0.02929
1200.90808 0.02935
1199.62232 0.02940
1198.33655 0.02948
1197.05078 0.02954
1195.76501 0.02956
1194.47924 0.02959
1193.19347 0.02964
1191.90770 0.02971
1190.62193 0.02977
1189.33616 0.02983
1188.05040 0.02993
1186.76463 0.03009
1185.47886 0.03027
1184.19309 0.03042
1182.90732 0.03052
1181.62155 0.03062
1180.33578 0.03075
1179.05001 0.03095
1177.76425 0.03119
1176.47848 0.03144
1175.19271 0.03168
1173.90694 0.03190
1172.62117 0.03211
1171.33540 0.03234
1170.04963 0.03260
1168.76386 0.03285
1167.47809 0.03307
1166.19233 0.03329
1164.90656 0.03356
1163.62079 0.03390
1162.33502 0.03427
1161.04925 0.03461
1159.76348 0.03487
1158.47771 0.03505
1157.19194 0.03521
1155.90618 0.03540
1154.62041 0.03565
1153.33464 0.03600
1152.04887 0.03644
1150.76310 0.03694
1149.47733 0.03751
1148.19156 0.03815
1146.90579 0.03886
1145.62002 0.03960
1144.33426 0.04035
1143.04849 0.04116
1141.76272 0.04206
1140.47695 0.04302
1139.19118 0.04401
1137.90541 0.04503
1136.61964 0.04618
1135.33387 0.04758
1134.04811 0.04924
1132.76234 0.05103
1131.47657 0.05286
1130.19080 0.05476
1128.90503 0.05681
1127.61926 0.05907
1126.33349 0.06152
1125.04772 0.06412
1123.76195 0.06686
1122.47619 0.06978
1121.19042 0.07287
1119.90465 0.07612
1118.61888 0.07947
1117.33311 0.08282
1116.04734 0.08606
1114.76157 0.08918
1113.47580 0.09221
1112.19004 0.09523
1110.90427 0.09826
1109.61850 0.10126
1108.33273 0.10420
1107.04696 0.10708
1105.76119 0.10992
1104.47542 0.11271
1103.18965 0.11542
1101.90388 0.11796
1100.61812 0.12034
1099.33235 0.12262
1098.04658 0.12491
1096.76081 0.12722
1095.47504 0.12943
1094.18927 0.13146
1092.90350 0.13333
1091.61773 0.13513
1090.33197 0.13692
1089.04620 0.13869
1087.76043 0.14037
1086.47466 0.14192
1085.18889 0.14340
1083.90312 0.14493
1082.61735 0.14665
1081.33158 0.14861
1080.04581 0.15078
1078.76005 0.15308
1077.47428 0.15541
1076.18851 0.15775
1074.90274 0.16012
1073.61697 0.16261
1072.33120 0.16526
1071.04543 0.16811
1069.75966 0.17115
1068.47390 0.17434
1067.18813 0.17761
1065.90236 0.18090
1064.61659 0.18418
1063.33082 0.18747
1062.04505 0.19076
1060.75928 0.19402
1059.47351 0.19727
1058.18774 0.20055
1056.90198 0.20387
1055.61621 0.20719
1054.33044 0.21047
1053.04467 0.21372
1051.75890 0.21703
1050.47313 0.22043
1049.18736 0.22390
1047.90159 0.22741
1046.61583 0.23099
1045.33006 0.23469
1044.04429 0.23849
1042.75852 0.24232
1041.47275 0.24609
1040.18698 0.24978
1038.90121 0.25345
1037.61544 0.25714
1036.32967 0.26085
1035.04391 0.26459
1033.75814 0.26830
1032.47237 0.27185
1031.18660 0.27507
1029.90083 0.27788
1028.61506 0.28034
1027.32929 0.28256
1026.04352 0.28457
1024.75775 0.28636
1023.47199 0.28785
1022.18622 0.28897
1020.90045 0.28968
1019.61468 0.28998
1018.32891 0.28992
1017.04314 0.28952
1015.75737 0.28876
1014.47160 0.28758
1013.18584 0.28592
1011.90007 0.28377
1010.61430 0.28110
1009.32853 0.27796
1008.04276 0.27440
1006.75699 0.27046
1005.47122 0.26615
1004.18545 0.26147
1002.89968 0.25646
1001.61392 0.25111
1000.32815 0.24542
999.04238 0.23944
997.75661 0.23326
996.47084 0.22697
995.18507 0.22063
993.89930 0.21423
992.61353 0.20782
991.32777 0.20144
990.04200 0.19509
988.75623 0.18881
987.47046 0.18269
986.18469 0.17681
984.89892 0.17117
983.61315 0.16571
982.32738 0.16037
981.04161 0.15521
979.75585 0.15034
978.47008 0.14586
977.18431 0.14176
975.89854 0.13801
974.61277 0.13461
973.32700 0.13163
972.04123 0.12915
970.75546 0.12720
969.46970 0.12578
968.18393 0.12490
966.89816 0.12449
965.61239 0.12440
964.32662 0.12444
963.04085 0.12442
961.75508 0.12420
960.46931 0.12363
959.18354 0.12262
957.89778 0.12110
956.61201 0.11913
955.32624 0.11684
954.04047 0.11437
952.75470 0.11182
951.46893 0.10929
950.18316 0.10683
948.89739 0.10444
947.61163 0.10211
946.32586 0.09987
945.04009 0.09778
943.75432 0.09584
942.46855 0.09395
941.18278 0.09195
939.89701 0.08984
938.61124 0.08774
937.32547 0.08579
936.03971 0.08405
934.75394 0.08252
933.46817 0.08116
932.18240 0.07989
930.89663 0.07864
929.61086 0.07735
928.32509 0.07605
927.03932 0.07484
925.75356 0.07378
924.46779 0.07286
923.18202 0.07200
921.89625 0.07116
920.61048 0.07036
919.32471 0.06966
918.03894 0.06903
916.75317 0.06836
915.46740 0.06759
914.18164 0.06675
912.89587 0.06600
911.61010 0.06543
910.32433 0.06501
909.03856 0.06456
907.75279 0.06394
906.46702 0.06316
905.18125 0.06234
903.89549 0.06156
902.60972 0.06080
901.32395 0.06004
900.03818 0.05932
898.75241 0.05868
897.46664 0.05815
896.18087 0.05771
894.89510 0.05729
893.60933 0.05686
892.32357 0.05642
891.03780 0.05607
889.75203 0.05588
888.46626 0.05594
887.18049 0.05632
885.89472 0.05712
884.60895 0.05846
883.32318 0.06040
882.03742 0.06284
880.75165 0.06537
879.46588 0.06753
878.18011 0.06909
876.89434 0.07028
875.60857 0.07146
874.32280 0.07275
873.03703 0.07391
871.75126 0.07452
870.46550 0.07430
869.17973 0.07329
867.89396 0.07171
866.60819 0.06978
865.32242 0.06763
864.03665 0.06529
862.75088 0.06283
861.46511 0.06044
860.17935 0.05836
858.89358 0.05669
857.60781 0.05539
856.32204 0.05434
855.03627 0.05339
853.75050 0.05251
852.46473 0.05173
851.17896 0.05111
849.89319 0.05063
848.60743 0.05020
847.32166 0.04974
846.03589 0.04924
844.75012 0.04877
843.46435 0.04832
842.17858 0.04789
840.89281 0.04750
839.60704 0.04722
838.32128 0.04703
837.03551 0.04685
835.74974 0.04663
834.46397 0.04637
833.17820 0.04613
831.89243 0.04596
830.60666 0.04583
829.32089 0.04567
828.03512 0.04545
826.74936 0.04522
825.46359 0.04502
824.17782 0.04489
822.89205 0.04480
821.60628 0.04468
820.32051 0.04452
819.03474 0.04433
817.74897 0.04415
816.46321 0.04405
815.17744 0.04405
813.89167 0.04413
812.60590 0.04425
811.32013 0.04436
810.03436 0.04444
808.74859 0.04452
807.46282 0.04466
806.17705 0.04489
804.89129 0.04517
803.60552 0.04548
802.31975 0.04579
801.03398 0.04606
799.74821 0.04624
798.46244 0.04628
797.17667 0.04622
795.89090 0.04611
794.60513 0.04603
793.31937 0.04601
792.03360 0.04605
790.74783 0.04612
789.46206 0.04621
788.17629 0.04624
786.89052 0.04619
785.60475 0.04608
784.31898 0.04596
783.03322 0.04585
781.74745 0.04573
780.46168 0.04567
779.17591 0.04572
777.89014 0.04590
776.60437 0.04608
775.31860 0.04612
774.03283 0.04602
772.74706 0.04591
771.46130 0.04585
770.17553 0.04582
768.88976 0.04572
767.60399 0.04557
766.31822 0.04544
765.03245 0.04536
763.74668 0.04530
762.46091 0.04525
761.17515 0.04525
759.88938 0.04535
758.60361 0.04553
757.31784 0.04569
756.03207 0.04573
754.74630 0.04561
753.46053 0.04537
752.17476 0.04510
750.88899 0.04487
749.60323 0.04466
748.31746 0.04444
747.03169 0.04424
745.74592 0.04411
744.46015 0.04409
743.17438 0.04416
741.88861 0.04421
740.60284 0.04414
739.31708 0.04389
738.03131 0.04355
736.74554 0.04329
735.45977 0.04317
734.17400 0.04310
732.88823 0.04299
731.60246 0.04279
730.31669 0.04256
729.03092 0.04239
727.74516 0.04233
726.45939 0.04238
725.17362 0.04245
723.88785 0.04242
722.60208 0.04231
721.31631 0.04222
720.03054 0.04221
718.74477 0.04231
717.45901 0.04245
716.17324 0.04253
714.88747 0.04250
713.60170 0.04236
712.31593 0.04220
711.03016 0.04208
709.74439 0.04199
708.45862 0.04191
707.17285 0.04181
705.88709 0.04171
704.60132 0.04165
703.31555 0.04162
702.02978 0.04164
700.74401 0.04169
699.45824 0.04177
698.17247 0.04188
696.88670 0.04201
695.60094 0.04214
694.31517 0.04225
693.02940 0.04227
691.74363 0.04220
690.45786 0.04206
689.17209 0.04190
687.88632 0.04174
686.60055 0.04158
685.31478 0.04142
684.02902 0.04125
682.74325 0.04109
681.45748 0.04095
680.17171 0.04082
678.88594 0.04070
677.60017 0.04061
676.31440 0.04056
675.02863 0.04058
673.74287 0.04067
672.45710 0.04084
671.17133 0.04106
669.88556 0.04128
668.59979 0.04146
667.31402 0.04152
666.02825 0.04135
664.74248 0.04107
663.45671 0.04073
662.17095 0.04041
660.88518 0.04015
659.59941 0.03999
658.31364 0.03993
657.02787 0.03993
655.74210 0.03991
654.45633 0.03983
653.17056 0.03970
651.88480 0.03960
650.59903 0.03958
649.31326 0.03963
648.02749 0.03971
646.74172 0.03980
645.45595 0.03988
644.17018 0.03991
642.88441 0.03987
641.59864 0.03978
640.31288 0.03970
639.02711 0.03969
637.74134 0.03976
636.45557 0.03990
635.16980 0.04012
633.88403 0.04041
632.59826 0.04075
631.31249 0.04117
630.02673 0.04185
628.74096 0.04276
627.45519 0.04335
626.16942 0.04521
624.88365 0.04824
623.59788 0.05164
622.31211 0.05462
621.02634 0.05687
619.74057 0.05883
618.45481 0.06123
617.16904 0.06426
615.88327 0.06734
614.59750 0.06978
613.31173 0.07160
612.02596 0.07353
610.74019 0.07620
609.45442 0.07976
608.16866 0.08424
606.88289 0.08976
605.59712 0.09584
604.31135 0.10119
603.02558 0.10454
601.73981 0.10556
600.45404 0.10474
599.16827 0.10272
597.88250 0.09994
596.59674 0.09681
595.31097 0.09377
594.02520 0.09121
592.73943 0.08930
591.45366 0.08796
590.16789 0.08713
588.88212 0.08686
587.59635 0.08720
586.31059 0.08811
585.02482 0.08942
583.73905 0.09100
582.45328 0.09286
581.16751 0.09505
579.88174 0.09753
578.59597 0.10012
577.31020 0.10266
576.02443 0.10509
574.73867 0.10745
573.45290 0.10979
572.16713 0.11219
570.88136 0.11470
569.59559 0.11737
568.30982 0.12028
567.02405 0.12343
565.73828 0.12659
564.45251 0.12939
563.16675 0.13137
561.88098 0.13218
560.59521 0.13170
559.30944 0.13001
558.02367 0.12726
556.73790 0.12356
555.45213 0.11904
554.16636 0.11398
552.88060 0.10883
551.59483 0.10397
550.30906 0.09955
549.02329 0.09551
547.73752 0.09173
546.45175 0.08817
545.16598 0.08498
543.88021 0.08231
542.59444 0.08016
541.30868 0.07834
540.02291 0.07664
538.73714 0.07493
537.45137 0.07327
536.16560 0.07174
534.87983 0.07042
533.59406 0.06931
532.30829 0.06833
531.02253 0.06738
529.73676 0.06640
528.45099 0.06541
527.16522 0.06446
525.87945 0.06361
524.59368 0.06285
523.30791 0.06211
522.02214 0.06134
520.73637 0.06053
519.45061 0.05970
518.16484 0.05889
516.87907 0.05811
515.59330 0.05735
514.30753 0.05659
513.02176 0.05585
511.73599 0.05517
510.45022 0.05459
509.16446 0.05403
507.87869 0.05340
506.59292 0.05267
505.30715 0.05195
504.02138 0.05135
502.73561 0.05094
501.44984 0.05072
500.16407 0.05060
498.87830 0.05049
497.59254 0.05027
496.30677 0.04989
495.02100 0.04940
493.73523 0.04894
492.44946 0.04862
491.16369 0.04848
489.87792 0.04847
488.59215 0.04855
487.30639 0.04871
486.02062 0.04894
484.73485 0.04927
483.44908 0.04966
482.16331 0.05008
480.87754 0.05053
479.59177 0.05102
478.30600 0.05158
477.02023 0.05219
475.73447 0.05282
474.44870 0.05346
473.16293 0.05413
471.87716 0.05481
470.59139 0.05544
469.30562 0.05589
468.01985 0.05607
466.73408 0.05598
465.44832 0.05571
464.16255 0.05536
462.87678 0.05500
461.59101 0.05460
460.30524 0.05413
459.01947 0.05358
457.73370 0.05300
456.44793 0.05242
455.16216 0.05188
453.87640 0.05140
452.59063 0.05096
451.30486 0.05053
450.01909 0.05007
448.73332 0.04960
447.44755 0.04918
446.16178 0.04884
444.87601 0.04856
443.59025 0.04828
442.30448 0.04795
441.01871 0.04759
439.73294 0.04723
438.44717 0.04692
437.16140 0.04668
435.87563 0.04654
434.58986 0.04649
433.30409 0.04653
432.01833 0.04659
430.73256 0.04660
429.44679 0.04652
428.16102 0.04634
426.87525 0.04609
425.58948 0.04580
424.30371 0.04550
423.01794 0.04524
421.73218 0.04502
420.44641 0.04477
419.16064 0.04443
417.87487 0.04395
416.58910 0.04341
415.30333 0.04291
414.01756 0.04253
412.73179 0.04223
411.44602 0.04194
410.16026 0.04157
408.87449 0.04113
407.58872 0.04068
406.30295 0.04028
405.01718 0.03998
403.73141 0.03984
402.44564 0.03984
401.15987 0.03997
399.87411 0.04017
