3997.45528 0.05820
3996.16951 0.05745
3994.88374 0.05691
3993.59798 0.05619
3992.31221 0.05526
3991.02644 0.05460
3989.74067 0.05480
3988.45490 0.05588
3987.16913 0.05717
3985.88336 0.05773
3984.59759 0.05717
3983.31183 0.05575
3982.02606 0.05409
3980.74029 0.05272
3979.45452 0.05184
3978.16875 0.05140
3976.88298 0.05132
3975.59721 0.05155
3974.31144 0.05199
3973.02567 0.05253
3971.73991 0.05319
3970.45414 0.05411
3969.16837 0.05512
3967.88260 0.05570
3966.59683 0.05544
3965.31106 0.05446
3964.02529 0.05331
3962.73952 0.05249
3961.45376 0.05225
3960.16799 0.05261
3958.88222 0.05353
3957.59645 0.05476
3956.31068 0.05568
3955.02491 0.05564
3953.73914 0.05443
3952.45337 0.05265
3951.16760 0.05127
3949.88184 0.05097
3948.59607 0.05173
3947.31030 0.05298
3946.02453 0.05412
3944.73876 0.05492
3943.45299 0.05547
3942.16722 0.05580
3940.88145 0.05571
3939.59569 0.05509
3938.30992 0.05422
3937.02415 0.05352
3935.73838 0.05311
3934.45261 0.05281
3933.16684 0.05247
3931.88107 0.05224
3930.59530 0.05227
3929.30953 0.05244
3928.02377 0.05230
3926.73800 0.05151
3925.45223 0.05031
3924.16646 0.04934
3922.88069 0.04921
3921.59492 0.05015
3920.30915 0.05200
3919.02338 0.05426
3917.73762 0.05605
3916.45185 0.05664
3915.16608 0.05605
3913.88031 0.05503
3912.59454 0.05438
3911.30877 0.05441
3910.02300 0.05507
3908.73723 0.05622
3907.45146 0.05760
3906.16570 0.05870
3904.87993 0.05885
3903.59416 0.05754
3902.30839 0.05492
3901.02262 0.05190
3899.73685 0.04974
3898.45108 0.04926
3897.16531 0.05024
3895.87955 0.05171
3894.59378 0.05281
3893.30801 0.05317
3892.02224 0.05281
3890.73647 0.05189
3889.45070 0.05077
3888.16493 0.05010
3886.87916 0.05026
3885.59339 0.05083
3884.30763 0.05098
3883.02186 0.05039
3881.73609 0.04965
3880.45032 0.04963
3879.16455 0.05061
3877.87878 0.05219
3876.59301 0.05363
3875.30724 0.05438
3874.02148 0.05421
3872.73571 0.05323
3871.44994 0.05194
3870.16417 0.05095
3868.87840 0.05065
3867.59263 0.05089
3866.30686 0.05121
3865.02109 0.05135
3863.73532 0.05139
3862.44956 0.05149
3861.16379 0.05160
3859.87802 0.05153
3858.59225 0.05124
3857.30648 0.05093
3856.02071 0.05079
3854.73494 0.05088
3853.44917 0.05117
3852.16341 0.05160
3850.87764 0.05196
3849.59187 0.05194
3848.30610 0.05150
3847.02033 0.05097
3845.73456 0.05063
3844.44879 0.05026
3843.16302 0.04960
3841.87725 0.04893
3840.59149 0.04895
3839.30572 0.04986
3838.01995 0.05111
3836.73418 0.05194
3835.44841 0.05218
3834.16264 0.05215
3832.87687 0.05198
3831.59110 0.05143
3830.30534 0.05029
3829.01957 0.04886
3827.73380 0.04781
3826.44803 0.04760
3825.16226 0.04820
3823.87649 0.04926
3822.59072 0.05041
3821.30495 0.05138
3820.01918 0.05195
3818.73342 0.05209
3817.44765 0.05195
3816.16188 0.05174
3814.87611 0.05160
3813.59034 0.05152
3812.30457 0.05146
3811.01880 0.05137
3809.73303 0.05122
3808.44726 0.05101
3807.16150 0.05071
3805.87573 0.05023
3804.58996 0.04960
3803.30419 0.04911
3802.01842 0.04906
3800.73265 0.04939
3799.44688 0.04967
3798.16111 0.04958
3796.87535 0.04921
3795.58958 0.04880
3794.30381 0.04848
3793.01804 0.04829
3791.73227 0.04837
3790.44650 0.04885
3789.16073 0.04969
3787.87496 0.05069
3786.58919 0.05145
3785.30343 0.05156
3784.01766 0.05086
3782.73189 0.04976
3781.44612 0.04897
3780.16035 0.04888
3778.87458 0.04915
3777.58881 0.04920
3776.30304 0.04888
3775.01728 0.04851
3773.73151 0.04849
3772.44574 0.04883
3771.15997 0.04910
3769.87420 0.04885
3768.58843 0.04797
3767.30266 0.04682
3766.01689 0.04604
3764.73112 0.04602
3763.44536 0.04653
3762.15959 0.04696
3760.87382 0.04694
3759.58805 0.04661
3758.30228 0.04638
3757.01651 0.04648
3755.73074 0.04695
3754.44497 0.04763
3753.15921 0.04824
3751.87344 0.04843
3750.58767 0.04811
3749.30190 0.04751
3748.01613 0.04704
3746.73036 0.04698
3745.44459 0.04738
3744.15882 0.04813
3742.87305 0.04894
3741.58729 0.04942
3740.30152 0.04922
3739.01575 0.04835
3737.72998 0.04719
3736.44421 0.04616
3735.15844 0.04536
3733.87267 0.04462
3732.58690 0.04399
3731.30114 0.04379
3730.01537 0.04428
3728.72960 0.04536
3727.44383 0.04661
3726.15806 0.04755
3724.87229 0.04785
3723.58652 0.04747
3722.30075 0.04665
3721.01498 0.04588
3719.72922 0.04552
3718.44345 0.04565
3717.15768 0.04607
3715.87191 0.04650
3714.58614 0.04669
3713.30037 0.04654
3712.01460 0.04625
3710.72883 0.04628
3709.44307 0.04697
3708.15730 0.04817
3706.87153 0.04932
3705.58576 0.04983
3704.29999 0.04958
3703.01422 0.04908
3701.72845 0.04896
3700.44268 0.04913
3699.15691 0.04880
3697.87115 0.04753
3696.58538 0.04580
3695.29961 0.04439
3694.01384 0.04355
3692.72807 0.04315
3691.44230 0.04286
3690.15653 0.04245
3688.87076 0.04190
3687.58500 0.04139
3686.29923 0.04126
3685.01346 0.04183
3683.72769 0.04292
3682.44192 0.04397
3681.15615 0.04459
3679.87038 0.04484
3678.58461 0.04502
3677.29884 0.04527
3676.01308 0.04538
3674.72731 0.04506
3673.44154 0.04442
3672.15577 0.04400
3670.87000 0.04434
3669.58423 0.04532
3668.29846 0.04637
3667.01269 0.04706
3665.72693 0.04743
3664.44116 0.04774
3663.15539 0.04810
3661.86962 0.04836
3660.58385 0.04827
3659.29808 0.04771
3658.01231 0.04694
3656.72654 0.04655
3655.44077 0.04695
3654.15501 0.04780
3652.86924 0.04826
3651.58347 0.04788
3650.29770 0.04702
3649.01193 0.04642
3647.72616 0.04641
3646.44039 0.04676
3645.15462 0.04718
3643.86886 0.04758
3642.58309 0.04797
3641.29732 0.04831
3640.01155 0.04867
3638.72578 0.04925
3637.44001 0.04988
3636.15424 0.04989
3634.86847 0.04892
3633.58270 0.04752
3632.29694 0.04680
3631.01117 0.04733
3629.72540 0.04869
3628.43963 0.04986
3627.15386 0.05015
3625.86809 0.04960
3624.58232 0.04876
3623.29655 0.04812
3622.01079 0.04784
3620.72502 0.04793
3619.43925 0.04847
3618.15348 0.04948
3616.86771 0.05075
3615.58194 0.05195
3614.29617 0.05295
3613.01040 0.05395
3611.72463 0.05507
3610.43887 0.05605
3609.15310 0.05654
3607.86733 0.05664
3606.58156 0.05676
3605.29579 0.05704
3604.01002 0.05713
3602.72425 0.05680
3601.43848 0.05641
3600.15272 0.05648
3598.86695 0.05709
3597.58118 0.05785
3596.29541 0.05832
3595.00964 0.05829
3593.72387 0.05779
3592.43810 0.05723
3591.15233 0.05715
3589.86656 0.05781
3588.58080 0.05895
3587.29503 0.05988
3586.00926 0.05993
3584.72349 0.05896
3583.43772 0.05751
3582.15195 0.05629
3580.86618 0.05567
3579.58041 0.05567
3578.29464 0.05615
3577.00888 0.05700
3575.72311 0.05815
3574.43734 0.05942
3573.15157 0.06053
3571.86580 0.06118
3570.58003 0.06118
3569.29426 0.06061
3568.00849 0.05988
3566.72273 0.05946
3565.43696 0.05951
3564.15119 0.05974
3562.86542 0.05981
3561.57965 0.05975
3560.29388 0.05992
3559.00811 0.06070
3557.72234 0.06208
3556.43657 0.06360
3555.15081 0.06465
3553.86504 0.06487
3552.57927 0.06434
3551.29350 0.06353
3550.00773 0.06302
3548.72196 0.06319
3547.43619 0.06390
3546.15042 0.06465
3544.86466 0.06510
3543.57889 0.06540
3542.29312 0.06585
3541.00735 0.06635
3539.72158 0.06642
3538.43581 0.06583
3537.15004 0.06503
3535.86427 0.06474
3534.57850 0.06514
3533.29274 0.06575
3532.00697 0.06607
3530.72120 0.06618
3529.43543 0.06650
3528.14966 0.06712
3526.86389 0.06769
3525.57812 0.06795
3524.29235 0.06806
3523.00659 0.06832
3521.72082 0.06877
3520.43505 0.06909
3519.14928 0.06903
3517.86351 0.06866
3516.57774 0.06836
3515.29197 0.06843
3514.00620 0.06891
3512.72043 0.06961
3511.43467 0.07023
3510.14890 0.07055
3508.86313 0.07060
3507.57736 0.07056
3506.29159 0.07056
3505.00582 0.07051
3503.72005 0.07020
3502.43428 0.06975
3501.14852 0.06956
3499.86275 0.06990
3498.57698 0.07057
3497.29121 0.07116
3496.00544 0.07146
3494.71967 0.07159
3493.43390 0.07165
3492.14813 0.07156
3490.86236 0.07135
3489.57660 0.07126
3488.29083 0.07161
3487.00506 0.07261
3485.71929 0.07410
3484.43352 0.07554
3483.14775 0.07620
3481.86198 0.07578
3480.57621 0.07465
3479.29045 0.07365
3478.00468 0.07334
3476.71891 0.07372
3475.43314 0.07439
3474.14737 0.07496
3472.86160 0.07526
3471.57583 0.07536
3470.29006 0.07543
3469.00429 0.07554
3467.71853 0.07562
3466.43276 0.07559
3465.14699 0.07547
3463.86122 0.07544
3462.57545 0.07566
3461.28968 0.07612
3460.00391 0.07668
3458.71814 0.07708
3457.43238 0.07711
3456.14661 0.07665
3454.86084 0.07588
3453.57507 0.07526
3452.28930 0.07525
3451.00353 0.07603
3449.71776 0.07726
3448.43199 0.07830
3447.14622 0.07867
3445.86046 0.07837
3444.57469 0.07792
3443.28892 0.07792
3442.00315 0.07857
3440.71738 0.07943
3439.43161 0.07989
3438.14584 0.07971
3436.86007 0.07921
3435.57431 0.07877
3434.28854 0.07847
3433.00277 0.07835
3431.71700 0.07863
3430.43123 0.07952
3429.14546 0.08069
3427.85969 0.08147
3426.57392 0.08139
3425.28815 0.08061
3424.00239 0.07971
3422.71662 0.07925
3421.43085 0.07945
3420.14508 0.08011
3418.85931 0.08079
3417.57354 0.08116
3416.28777 0.08127
3415.00200 0.08144
3413.71624 0.08186
3412.43047 0.08222
3411.14470 0.08207
3409.85893 0.08128
3408.57316 0.08040
3407.28739 0.08024
3406.00162 0.08111
3404.71585 0.08256
3403.43008 0.08374
3402.14432 0.08430
3400.85855 0.08446
3399.57278 0.08416
3398.28701 0.08374
3397.00124 0.08375
3395.71547 0.08403
3394.42970 0.08425
3393.14393 0.08417
3391.85817 0.08382
3390.57240 0.08358
3389.28663 0.08380
3388.00086 0.08442
3386.71509 0.08515
3385.42932 0.08575
3384.14355 0.08615
3382.85778 0.08634
3381.57201 0.08640
3380.28625 0.08645
3379.00048 0.08651
3377.71471 0.08641
3376.42894 0.08608
3375.14317 0.08574
3373.85740 0.08577
3372.57163 0.08619
3371.28586 0.08659
3370.00010 0.08653
3368.71433 0.08601
3367.42856 0.08537
3366.14279 0.08488
3364.85702 0.08458
3363.57125 0.08441
3362.28548 0.08445
3360.99971 0.08480
3359.71394 0.08544
3358.42818 0.08626
3357.14241 0.08702
3355.85664 0.08752
3354.57087 0.08765
3353.28510 0.08753
3351.99933 0.08744
3350.71356 0.08762
3349.42779 0.08798
3348.14202 0.08813
3346.85626 0.08774
3345.57049 0.08696
3344.28472 0.08643
3342.99895 0.08660
3341.71318 0.08724
3340.42741 0.08775
3339.14164 0.08780
3337.85587 0.08768
3336.57011 0.08788
3335.28434 0.08851
3333.99857 0.08920
3332.71280 0.08953
3331.42703 0.08935
3330.14126 0.08881
3328.85549 0.08813
3327.56972 0.08737
3326.28395 0.08669
3324.99819 0.08634
3323.71242 0.08645
3322.42665 0.08684
3321.14088 0.08713
3319.85511 0.08709
3318.56934 0.08681
3317.28357 0.08657
3315.99780 0.08667
3314.71204 0.08718
3313.42627 0.08780
3312.14050 0.08814
3310.85473 0.08812
3309.56896 0.08810
3308.28319 0.08845
3306.99742 0.08899
3305.71165 0.08916
3304.42588 0.08865
3303.14012 0.08778
3301.85435 0.08719
3300.56858 0.08727
3299.28281 0.08779
3297.99704 0.08818
3296.71127 0.08807
3295.42550 0.08766
3294.13973 0.08745
3292.85397 0.08769
3291.56820 0.08815
3290.28243 0.08844
3288.99666 0.08844
3287.71089 0.08831
3286.42512 0.08821
3285.13935 0.08814
3283.85358 0.08810
3282.56781 0.08809
3281.28205 0.08805
3279.99628 0.08794
3278.71051 0.08781
3277.42474 0.08780
3276.13897 0.08795
3274.85320 0.08815
3273.56743 0.08820
3272.28166 0.08801
3270.99590 0.08767
3269.71013 0.08738
3268.42436 0.08734
3267.13859 0.08760
3265.85282 0.08795
3264.56705 0.08808
3263.28128 0.08789
3261.99551 0.08758
3260.70974 0.08739
3259.42398 0.08732
3258.13821 0.08716
3256.85244 0.08680
3255.56667 0.08641
3254.28090 0.08625
3252.99513 0.08634
3251.70936 0.08655
3250.42359 0.08672
3249.13783 0.08677
3247.85206 0.08662
3246.56629 0.08624
3245.28052 0.08568
3243.99475 0.08507
3242.70898 0.08461
3241.42321 0.08453
3240.13744 0.08496
3238.85167 0.08569
3237.56591 0.08626
3236.28014 0.08633
3234.99437 0.08590
3233.70860 0.08528
3232.42283 0.08474
3231.13706 0.08446
3229.85129 0.08450
3228.56552 0.08475
3227.27976 0.08485
3225.99399 0.08451
3224.70822 0.08385
3223.42245 0.08325
3222.13668 0.08305
3220.85091 0.08323
3219.56514 0.08351
3218.27937 0.08365
3216.99360 0.08364
3215.70784 0.08364
3214.42207 0.08376
3213.13630 0.08399
3211.85053 0.08419
3210.56476 0.08430
3209.27899 0.08438
3207.99322 0.08442
3206.70745 0.08431
3205.42169 0.08402
3204.13592 0.08371
3202.85015 0.08363
3201.56438 0.08381
3200.27861 0.08402
3198.99284 0.08400
3197.70707 0.08373
3196.42130 0.08339
3195.13553 0.08313
3193.84977 0.08297
3192.56400 0.08287
3191.27823 0.08286
3189.99246 0.08300
3188.70669 0.08329
3187.42092 0.08360
3186.13515 0.08373
3184.84938 0.08356
3183.56362 0.08315
3182.27785 0.08276
3180.99208 0.08255
3179.70631 0.08245
3178.42054 0.08225
3177.13477 0.08178
3175.84900 0.08114
3174.56323 0.08064
3173.27746 0.08047
3171.99170 0.08055
3170.70593 0.08073
3169.42016 0.08088
3168.13439 0.08099
3166.84862 0.08105
3165.56285 0.08102
3164.27708 0.08091
3162.99131 0.08078
3161.70555 0.08068
3160.41978 0.08054
3159.13401 0.08024
3157.84824 0.07976
3156.56247 0.07920
3155.27670 0.07869
3153.99093 0.07835
3152.70516 0.07822
3151.41939 0.07824
3150.13363 0.07831
3148.84786 0.07835
3147.56209 0.07845
3146.27632 0.07868
3144.99055 0.07895
3143.70478 0.07914
3142.41901 0.07925
3141.13324 0.07938
3139.84748 0.07951
3138.56171 0.07953
3137.27594 0.07936
3135.99017 0.07906
3134.70440 0.07875
3133.41863 0.07852
3132.13286 0.07840
3130.84709 0.07829
3129.56132 0.07798
3128.27556 0.07731
3126.98979 0.07637
3125.70402 0.07551
3124.41825 0.07505
3123.13248 0.07505
3121.84671 0.07537
3120.56094 0.07585
3119.27517 0.07635
3117.98940 0.07674
3116.70364 0.07694
3115.41787 0.07695
3114.13210 0.07689
3112.84633 0.07687
3111.56056 0.07687
3110.27479 0.07681
3108.98902 0.07664
3107.70325 0.07642
3106.41749 0.07617
3105.13172 0.07587
3103.84595 0.07549
3102.56018 0.07509
3101.27441 0.07478
3099.98864 0.07460
3098.70287 0.07453
3097.41710 0.07451
3096.13133 0.07452
3094.84557 0.07457
3093.55980 0.07469
3092.27403 0.07493
3090.98826 0.07526
3089.70249 0.07555
3088.41672 0.07567
3087.13095 0.07549
3085.84518 0.07503
3084.55942 0.07446
3083.27365 0.07404
3081.98788 0.07388
3080.70211 0.07387
3079.41634 0.07385
3078.13057 0.07381
3076.84480 0.07389
3075.55903 0.07417
3074.27326 0.07452
3072.98750 0.07469
3071.70173 0.07455
3070.41596 0.07424
3069.13019 0.07396
3067.84442 0.07379
3066.55865 0.07367
3065.27288 0.07366
3063.98711 0.07389
3062.70135 0.07429
3061.41558 0.07459
3060.12981 0.07450
3058.84404 0.07397
3057.55827 0.07316
3056.27250 0.07229
3054.98673 0.07160
3053.70096 0.07128
3052.41519 0.07142
3051.12943 0.07186
3049.84366 0.07227
3048.55789 0.07234
3047.27212 0.07200
3045.98635 0.07137
3044.70058 0.07070
3043.41481 0.07023
3042.12904 0.07010
3040.84328 0.07028
3039.55751 0.07061
3038.27174 0.07090
3036.98597 0.07104
3035.70020 0.07100
3034.41443 0.07081
3033.12866 0.07054
3031.84289 0.07028
3030.55712 0.07008
3029.27136 0.06994
3027.98559 0.06979
3026.69982 0.06959
3025.41405 0.06943
3024.12828 0.06948
3022.84251 0.06975
3021.55674 0.07004
3020.27097 0.07003
3018.98521 0.06970
3017.69944 0.06925
3016.41367 0.06892
3015.12790 0.06877
3013.84213 0.06883
3012.55636 0.06906
3011.27059 0.06928
3009.98482 0.06928
3008.69905 0.06897
3007.41329 0.06848
3006.12752 0.06796
3004.84175 0.06748
3003.55598 0.06710
3002.27021 0.06707
3000.98444 0.06737
2999.69867 0.06735
2998.41290 0.06756
2997.12714 0.06758
2995.84137 0.06749
2994.55560 0.06749
2993.26983 0.06764
2991.98406 0.06788
2990.69829 0.06808
2989.41252 0.06811
2988.12675 0.06799
2986.84098 0.06785
2985.55522 0.06784
2984.26945 0.06800
2982.98368 0.06824
2981.69791 0.06845
2980.41214 0.06861
2979.12637 0.06876
2977.84060 0.06894
2976.55483 0.06914
2975.26907 0.06933
2973.98330 0.06961
2972.69753 0.07013
2971.41176 0.07093
2970.12599 0.07185
2968.84022 0.07267
2967.55445 0.07333
2966.26868 0.07392
2964.98291 0.07456
2963.69715 0.07528
2962.41138 0.07606
2961.12561 0.07692
2959.83984 0.07788
2958.55407 0.07885
2957.26830 0.07969
2955.98253 0.08028
2954.69676 0.08061
2953.41100 0.08073
2952.12523 0.08069
2950.83946 0.08063
2949.55369 0.08062
2948.26792 0.08062
2946.98215 0.08050
2945.69638 0.08018
2944.41061 0.07976
2943.12484 0.07951
2941.83908 0.07962
2940.55331 0.08011
2939.26754 0.08079
2937.98177 0.08139
2936.69600 0.08179
2935.41023 0.08205
2934.12446 0.08241
2932.83869 0.08295
2931.55293 0.08355
2930.26716 0.08405
2928.98139 0.08451
2927.69562 0.08510
2926.40985 0.08577
2925.12408 0.08621
2923.83831 0.08613
2922.55254 0.08566
2921.26677 0.08519
2919.98101 0.08498
2918.69524 0.08492
2917.40947 0.08472
2916.12370 0.08424
2914.83793 0.08356
2913.55216 0.08283
2912.26639 0.08218
2910.98062 0.08172
2909.69486 0.08145
2908.40909 0.08112
2907.12332 0.08051
2905.83755 0.07967
2904.55178 0.07890
2903.26601 0.07848
2901.98024 0.07836
2900.69447 0.07834
2899.40870 0.07818
2898.12294 0.07771
2896.83717 0.07688
2895.55140 0.07585
2894.26563 0.07486
2892.97986 0.07417
2891.69409 0.07379
2890.40832 0.07353
2889.12255 0.07317
2887.83678 0.07265
2886.55102 0.07209
2885.26525 0.07159
2883.97948 0.07123
2882.69371 0.07109
2881.40794 0.07117
2880.12217 0.07131
2878.83640 0.07130
2877.55063 0.07123
2876.26487 0.07144
2874.97910 0.07207
2873.69333 0.07275
2872.40756 0.07303
2871.12179 0.07287
2869.83602 0.07263
2868.55025 0.07258
2867.26448 0.07267
2865.97871 0.07274
2864.69295 0.07270
2863.40718 0.07257
2862.12141 0.07235
2860.83564 0.07212
2859.54987 0.07195
2858.26410 0.07189
2856.97833 0.07186
2855.69256 0.07179
2854.40680 0.07166
2853.12103 0.07149
2851.83526 0.07125
2850.54949 0.07088
2849.26372 0.07036
2847.97795 0.06981
2846.69218 0.06934
2845.40641 0.06892
2844.12064 0.06840
2842.83488 0.06759
2841.54911 0.06650
2840.26334 0.06531
2838.97757 0.06435
2837.69180 0.06382
2836.40603 0.06365
2835.12026 0.06354
2833.83449 0.06324
2832.54873 0.06272
2831.26296 0.06216
2829.97719 0.06170
2828.69142 0.06127
2827.40565 0.06080
2826.11988 0.06033
2824.83411 0.05999
2823.54834 0.05985
2822.26257 0.05986
2820.97681 0.05988
2819.69104 0.05979
2818.40527 0.05953
2817.11950 0.05910
2815.83373 0.05859
2814.54796 0.05812
2813.26219 0.05779
2811.97642 0.05758
2810.69066 0.05744
2809.40489 0.05732
2808.11912 0.05718
2806.83335 0.05702
2805.54758 0.05679
2804.26181 0.05650
2802.97604 0.05624
2801.69027 0.05607
2800.40450 0.05605
2799.11874 0.05614
2797.83297 0.05627
2796.54720 0.05637
2795.26143 0.05638
2793.97566 0.05628
2792.68989 0.05607
2791.40412 0.05582
2790.11835 0.05562
2788.83259 0.05550
2787.54682 0.05539
2786.26105 0.05524
2784.97528 0.05510
2783.68951 0.05502
2782.40374 0.05500
2781.11797 0.05495
2779.83220 0.05489
2778.54643 0.05489
2777.26067 0.05501
2775.97490 0.05513
2774.68913 0.05512
2773.40336 0.05493
2772.11759 0.05463
2770.83182 0.05436
2769.54605 0.05422
2768.26028 0.05421
2766.97452 0.05419
2765.68875 0.05404
2764.40298 0.05380
2763.11721 0.05358
2761.83144 0.05348
2760.54567 0.05351
2759.25990 0.05357
2757.97413 0.05353
2756.68836 0.05335
2755.40260 0.05315
2754.11683 0.05308
2752.83106 0.05315
2751.54529 0.05318
2750.25952 0.05309
2748.97375 0.05299
2747.68798 0.05297
2746.40221 0.05294
2745.11645 0.05275
2743.83068 0.05246
2742.54491 0.05226
2741.25914 0.05223
2739.97337 0.05226
2738.68760 0.05225
2737.40183 0.05221
2736.11606 0.05220
2734.83029 0.05221
2733.54453 0.05219
2732.25876 0.05213
2730.97299 0.05207
2729.68722 0.05198
2728.40145 0.05185
2727.11568 0.05167
2725.82991 0.05146
2724.54414 0.05123
2723.25838 0.05102
2721.97261 0.05087
2720.68684 0.05083
2719.40107 0.05090
2718.11530 0.05102
2716.82953 0.05107
2715.54376 0.05094
2714.25799 0.05076
2712.97222 0.05074
2711.68646 0.05092
2710.40069 0.05110
2709.11492 0.05100
2707.82915 0.05062
2706.54338 0.05017
2705.25761 0.04988
2703.97184 0.04984
2702.68607 0.05000
2701.40031 0.05020
2700.11454 0.05022
2698.82877 0.04998
2697.54300 0.04953
2696.25723 0.04910
2694.97146 0.04888
2693.68569 0.04887
2692.39992 0.04891
2691.11415 0.04890
2689.82839 0.04890
2688.54262 0.04901
2687.25685 0.04914
2685.97108 0.04910
2684.68531 0.04888
2683.39954 0.04867
2682.11377 0.04863
2680.82800 0.04865
2679.54224 0.04857
2678.25647 0.04834
2676.97070 0.04806
2675.68493 0.04781
2674.39916 0.04764
2673.11339 0.04758
2671.82762 0.04763
2670.54185 0.04776
2669.25608 0.04786
2667.97032 0.04781
2666.68455 0.04756
2665.39878 0.04724
2664.11301 0.04708
2662.82724 0.04723
2661.54147 0.04756
2660.25570 0.04784
2658.96993 0.04797
2657.68417 0.04801
2656.39840 0.04805
2655.11263 0.04805
2653.82686 0.04796
2652.54109 0.04775
2651.25532 0.04741
2649.96955 0.04699
2648.68378 0.04655
2647.39801 0.04617
2646.11225 0.04594
2644.82648 0.04591
2643.54071 0.04611
2642.25494 0.04643
2640.96917 0.04663
2639.68340 0.04653
2638.39763 0.04615
2637.11186 0.04572
2635.82609 0.04537
2634.54033 0.04510
2633.25456 0.04486
2631.96879 0.04469
2630.68302 0.04469
2629.39725 0.04489
2628.11148 0.04519
2626.82571 0.04538
2625.53994 0.04526
2624.25418 0.04479
2622.96841 0.04407
2621.68264 0.04333
2620.39687 0.04279
2619.11110 0.04252
2617.82533 0.04240
2616.53956 0.04231
2615.25379 0.04227
2613.96802 0.04238
2612.68226 0.04260
2611.39649 0.04271
2610.11072 0.04252
2608.82495 0.04207
2607.53918 0.04152
2606.25341 0.04106
2604.96764 0.04085
2603.68187 0.04088
2602.39611 0.04101
2601.11034 0.04107
2599.82457 0.04095
2598.53880 0.04062
2597.25303 0.04011
2595.96726 0.03961
2594.68149 0.03938
2593.39572 0.03949
2592.10995 0.03979
2590.82419 0.04007
2589.53842 0.04019
2588.25265 0.04011
2586.96688 0.03983
2585.68111 0.03949
2584.39534 0.03925
2583.10957 0.03918
2581.82380 0.03922
2580.53804 0.03927
2579.25227 0.03924
2577.96650 0.03910
2576.68073 0.03898
2575.39496 0.03904
2574.10919 0.03934
2572.82342 0.03967
2571.53765 0.03979
2570.25188 0.03962
2568.96612 0.03941
2567.68035 0.03944
2566.39458 0.03973
2565.10881 0.03997
2563.82304 0.03983
2562.53727 0.03935
2561.25150 0.03885
2559.96573 0.03851
2558.67997 0.03821
2557.39420 0.03771
2556.10843 0.03704
2554.82266 0.03649
2553.53689 0.03634
2552.25112 0.03657
2550.96535 0.03696
2549.67958 0.03725
2548.39381 0.03733
2547.10805 0.03720
2545.82228 0.03688
2544.53651 0.03643
2543.25074 0.03598
2541.96497 0.03573
2540.67920 0.03578
2539.39343 0.03601
2538.10766 0.03624
2536.82190 0.03639
2535.53613 0.03652
2534.25036 0.03671
2532.96459 0.03698
2531.67882 0.03727
2530.39305 0.03743
2529.10728 0.03731
2527.82151 0.03696
2526.53574 0.03668
2525.24998 0.03679
2523.96421 0.03728
2522.67844 0.03782
2521.39267 0.03809
2520.10690 0.03795
2518.82113 0.03750
2517.53536 0.03701
2516.24959 0.03662
2514.96383 0.03633
2513.67806 0.03614
2512.39229 0.03616
2511.10652 0.03646
2509.82075 0.03683
2508.53498 0.03692
2507.24921 0.03654
2505.96344 0.03591
2504.67767 0.03535
2503.39191 0.03506
2502.10614 0.03503
2500.82037 0.03521
2499.53460 0.03555
2498.24883 0.03588
2496.96306 0.03605
2495.67729 0.03603
2494.39152 0.03598
2493.10576 0.03604
2491.81999 0.03617
2490.53422 0.03622
2489.24845 0.03608
2487.96268 0.03580
2486.67691 0.03551
2485.39114 0.03533
2484.10537 0.03534
2482.81960 0.03551
2481.53384 0.03574
2480.24807 0.03591
2478.96230 0.03594
2477.67653 0.03586
2476.39076 0.03572
2475.10499 0.03554
2473.81922 0.03531
2472.53345 0.03503
2471.24769 0.03480
2469.96192 0.03466
2468.67615 0.03455
2467.39038 0.03441
2466.10461 0.03435
2464.81884 0.03456
2463.53307 0.03502
2462.24730 0.03541
2460.96153 0.03550
2459.67577 0.03533
2458.39000 0.03517
2457.10423 0.03512
2455.81846 0.03503
2454.53269 0.03476
2453.24692 0.03444
2451.96115 0.03437
2450.67538 0.03464
2449.38962 0.03500
2448.10385 0.03512
2446.81808 0.03502
2445.53231 0.03499
2444.24654 0.03520
2442.96077 0.03545
2441.67500 0.03545
2440.38923 0.03510
2439.10346 0.03452
2437.81770 0.03397
2436.53193 0.03359
2435.24616 0.03340
2433.96039 0.03344
2432.67462 0.03378
2431.38885 0.03437
2430.10308 0.03497
2428.81731 0.03528
2427.53155 0.03521
2426.24578 0.03489
2424.96001 0.03446
2423.67424 0.03403
2422.38847 0.03369
2421.10270 0.03345
2419.81693 0.03332
2418.53116 0.03327
2417.24539 0.03327
2415.95963 0.03332
2414.67386 0.03344
2413.38809 0.03364
2412.10232 0.03384
2410.81655 0.03388
2409.53078 0.03374
2408.24501 0.03350
2406.95924 0.03326
2405.67347 0.03302
2404.38771 0.03288
2403.10194 0.03298
2401.81617 0.03327
2400.53040 0.03356
2399.24463 0.03445
2397.95886 0.03380
2396.67309 0.03320
2395.38732 0.03304
2394.10156 0.03308
2392.81579 0.03322
2391.53002 0.03332
2390.24425 0.03325
2388.95848 0.03300
2387.67271 0.03267
2386.38694 0.03240
2385.10117 0.03224
2383.81540 0.03219
2382.52964 0.03228
2381.24387 0.03249
2379.95810 0.03276
2378.67233 0.03295
2377.38656 0.03303
2376.10079 0.03306
2374.81502 0.03307
2373.52925 0.03315
2372.24349 0.03322
2370.95772 0.03335
2369.67195 0.03341
2368.38618 0.03354
2367.10041 0.03384
2365.81464 0.03427
2364.52887 0.03439
2363.24310 0.03424
2361.95733 0.03417
2360.67157 0.03449
2359.38580 0.03471
2358.10003 0.03463
2356.81426 0.03434
2355.52849 0.03406
2354.24272 0.03396
2352.95695 0.03404
2351.67118 0.03441
2350.38542 0.03484
2349.09965 0.03484
2347.81388 0.03443
2346.52811 0.03443
2345.24234 0.03470
2343.95657 0.03439
2342.67080 0.03349
2341.38503 0.03345
2340.09926 0.03438
2338.81350 0.03440
2337.52773 0.03342
2336.24196 0.03369
2334.95619 0.03488
2333.67042 0.03464
2332.38465 0.03345
2331.09888 0.03397
2329.81311 0.03464
2328.52735 0.03367
2327.24158 0.03413
2325.95581 0.03546
2324.67004 0.03526
2323.38427 0.03531
2322.09850 0.03595
2320.81273 0.03521
2319.52696 0.03486
2318.24119 0.03492
2316.95543 0.03421
2315.66966 0.03395
2314.38389 0.03390
2313.09812 0.03343
2311.81235 0.03325
2310.52658 0.03285
2309.24081 0.03244
2307.95504 0.03239
2306.66928 0.03224
2305.38351 0.03214
2304.09774 0.03189
2302.81197 0.03148
2301.52620 0.03120
2300.24043 0.03091
2298.95466 0.03067
2297.66889 0.03043
2296.38312 0.03034
2295.09736 0.03054
2293.81159 0.03089
2292.52582 0.03117
2291.24005 0.03115
2289.95428 0.03089
2288.66851 0.03061
2287.38274 0.03044
2286.09697 0.03032
2284.81121 0.03011
2283.52544 0.02980
2282.23967 0.02956
2280.95390 0.02947
2279.66813 0.02947
2278.38236 0.02942
2277.09659 0.02922
2275.81082 0.02894
2274.52505 0.02871
2273.23929 0.02862
2271.95352 0.02860
2270.66775 0.02842
2269.38198 0.02797
2268.09621 0.02733
2266.81044 0.02681
2265.52467 0.02657
2264.23890 0.02649
2262.95314 0.02635
2261.66737 0.02606
2260.38160 0.02571
2259.09583 0.02541
2257.81006 0.02523
2256.52429 0.02505
2255.23852 0.02482
2253.95275 0.02466
2252.66698 0.02462
2251.38122 0.02439
2250.09545 0.02407
2248.80968 0.02473
2247.52391 0.02390
2246.23814 0.02293
2244.95237 0.02221
2243.66660 0.02187
2242.38083 0.02191
2241.09507 0.02237
2239.80930 0.02312
2238.52353 0.02388
2237.23776 0.02437
2235.95199 0.02456
2234.66622 0.02466
2233.38045 0.02477
2232.09468 0.02478
2230.80891 0.02449
2229.52315 0.02381
2228.23738 0.02288
2226.95161 0.02214
2225.66584 0.02189
2224.38007 0.02198
2223.09430 0.02193
2221.80853 0.02150
2220.52276 0.02103
2219.23700 0.02097
2217.95123 0.02139
2216.66546 0.02188
2215.37969 0.02202
2214.09392 0.02176
2212.80815 0.02134
2211.52238 0.02097
2210.23661 0.02079
2208.95084 0.02073
2207.66508 0.02052
2206.37931 0.01995
2205.09354 0.01922
2203.80777 0.01883
2202.52200 0.01894
2201.23623 0.01911
2199.95046 0.01881
2198.66469 0.01814
2197.37893 0.01763
2196.09316 0.01759
2194.80739 0.01787
2193.52162 0.01819
2192.23585 0.01857
2190.95008 0.01905
2189.66431 0.01943
2188.37854 0.01932
2187.09277 0.01858
2185.80701 0.01747
2184.52124 0.01655
2183.23547 0.01630
2181.94970 0.01684
2180.66393 0.01778
2179.37816 0.01830
2178.09239 0.01775
2176.80662 0.01629
2175.52085 0.01484
2174.23509 0.01427
2172.94932 0.01461
2171.66355 0.01523
2170.37778 0.01579
2169.09201 0.01653
2167.80624 0.01765
2166.52047 0.01875
2165.23470 0.01900
2163.94894 0.01789
2162.66317 0.01556
2161.37740 0.01272
2160.09163 0.01030
2158.80586 0.00911
2157.52009 0.00936
2156.23432 0.01047
2154.94855 0.01141
2153.66278 0.01150
2152.37702 0.01088
2151.09125 0.01021
2149.80548 0.01006
2148.51971 0.01059
2147.23394 0.01176
2145.94817 0.01330
2144.66240 0.01483
2143.37663 0.01605
2142.09087 0.01701
2140.80510 0.01783
2139.51933 0.01828
2138.23356 0.01802
2136.94779 0.01719
2135.66202 0.01631
2134.37625 0.01576
2133.09048 0.01539
2131.80471 0.01505
2130.51895 0.01490
2129.23318 0.01519
2127.94741 0.01587
2126.66164 0.01663
2125.37587 0.01726
2124.09010 0.01767
2122.80433 0.01779
2121.51856 0.01758
2120.23280 0.01722
2118.94703 0.01712
2117.66126 0.01755
2116.37549 0.01837
2115.08972 0.01908
2113.80395 0.01925
2112.51818 0.01883
2111.23241 0.01818
2109.94664 0.01783
2108.66088 0.01808
2107.37511 0.01876
2106.08934 0.01941
2104.80357 0.01969
2103.51780 0.01962
2102.23203 0.01944
2100.94626 0.01918
2099.66049 0.01722
2098.37473 0.01602
2097.08896 0.01522
2095.80319 0.01469
2094.51742 0.01478
2093.23165 0.01550
2091.94588 0.01646
2090.66011 0.01721
2089.37434 0.01747
2088.08857 0.01721
2086.80281 0.01653
2085.51704 0.01567
2084.23127 0.01501
2082.94550 0.01482
2081.65973 0.01506
2080.37396 0.01533
2079.08819 0.01532
2077.80242 0.01500
2076.51666 0.01451
2075.23089 0.01404
2073.94512 0.01382
2072.65935 0.01399
2071.37358 0.01443
2070.08781 0.01470
2068.80204 0.01440
2067.51627 0.01353
2066.23050 0.01252
2064.94474 0.01189
2063.65897 0.01188
2062.37320 0.01231
2061.08743 0.01292
2059.80166 0.01362
2058.51589 0.01442
2057.23012 0.01517
2055.94435 0.01556
2054.65859 0.01541
2053.37282 0.01480
2052.08705 0.01382
2050.80128 0.01249
2049.51551 0.01091
2048.22974 0.00948
2046.94397 0.00859
2045.65820 0.00823
2044.37243 0.00811
2043.08667 0.00808
2041.80090 0.00830
2040.51513 0.00882
2039.22936 0.00927
2037.94359 0.00904
2036.65782 0.00795
2035.37205 0.00654
2034.08628 0.00563
2032.80052 0.00545
2031.51475 0.00536
2030.22898 0.00469
2028.94321 0.00361
2027.65744 0.00309
2026.37167 0.00376
2025.08590 0.00519
2023.80013 0.00631
2022.51436 0.00639
2021.22860 0.00550
2019.94283 0.00429
2018.65706 0.00360
2017.37129 0.00394
2016.08552 0.00514
2014.79975 0.00646
2013.51398 0.00726
2012.22821 0.00742
2010.94245 0.00717
2009.65668 0.00656
2008.37091 0.00549
2007.08514 0.00419
2005.79937 0.00328
2004.51360 0.00332
2003.22783 0.00442
2001.94206 0.00636
2000.65629 0.00883
1999.37053 0.01136
1998.08476 0.01324
1996.79899 0.01399
1995.51322 0.01383
1994.22745 0.01350
1992.94168 0.01353
1991.65591 0.01371
1990.37014 0.01360
1989.08438 0.01314
1987.79861 0.01265
1986.51284 0.01241
1985.22707 0.01232
1983.94130 0.01207
1982.65553 0.01133
1981.36976 0.01000
1980.08399 0.00820
1978.79822 0.00643
1977.51246 0.00533
1976.22669 0.00528
1974.94092 0.00610
1973.65515 0.00732
1972.36938 0.00848
1971.08361 0.00942
1969.79784 0.01024
1968.51207 0.01091
1967.22631 0.01121
1965.94054 0.01095
1964.65477 0.01046
1963.36900 0.01034
1962.08323 0.01085
1960.79746 0.01170
1959.51169 0.01255
1958.22592 0.01320
1956.94015 0.01356
1955.65439 0.01358
1954.36862 0.01339
1953.08285 0.01332
1951.79708 0.01350
1950.51131 0.01381
1949.22554 0.01398
1947.93977 0.01388
1946.65400 0.01361
1945.36823 0.01342
1944.08247 0.01346
1942.79670 0.01372
1941.51093 0.01411
1940.22516 0.01457
1938.93939 0.01504
1937.65362 0.01538
1936.36785 0.01545
1935.08208 0.01520
1933.79632 0.01480
1932.51055 0.01455
1931.22478 0.01459
1929.93901 0.01485
1928.65324 0.01519
1927.36747 0.01552
1926.08170 0.01580
1924.79593 0.01603
1923.51016 0.01629
1922.22440 0.01666
1920.93863 0.01706
1919.65286 0.01725
1918.36709 0.01709
1917.08132 0.01677
1915.79555 0.01654
1914.50978 0.01653
1913.22401 0.01666
1911.93825 0.01684
1910.65248 0.01702
1909.36671 0.01719
1908.08094 0.01728
1906.79517 0.01711
1905.50940 0.01664
1904.22363 0.01602
1902.93786 0.01558
1901.65209 0.01559
1900.36633 0.01607
1899.08056 0.01677
1897.79479 0.01733
1896.50902 0.01758
1895.22325 0.01754
1893.93748 0.01736
1892.65171 0.01712
1891.36594 0.01686
1890.08018 0.01668
1888.79441 0.01670
1887.50864 0.01691
1886.22287 0.01716
1884.93710 0.01726
1883.65133 0.01721
1882.36556 0.01713
1881.07979 0.01711
1879.79402 0.01718
1878.50826 0.01736
1877.22249 0.01763
1875.93672 0.01787
1874.65095 0.01792
1873.36518 0.01777
1872.07941 0.01757
1870.79364 0.01742
1869.50787 0.01728
1868.22211 0.01711
1866.93634 0.01696
1865.65057 0.01691
1864.36480 0.01690
1863.07903 0.01688
1861.79326 0.01682
1860.50749 0.01681
1859.22172 0.01688
1857.93595 0.01701
1856.65019 0.01710
1855.36442 0.01712
1854.07865 0.01711
1852.79288 0.01716
1851.50711 0.01729
1850.22134 0.01745
1848.93557 0.01756
1847.64980 0.01762
1846.36404 0.01769
1845.07827 0.01785
1843.79250 0.01811
1842.50673 0.01835
1841.22096 0.01849
1839.93519 0.01851
1838.64942 0.01842
1837.36365 0.01828
1836.07788 0.01816
1834.79212 0.01815
1833.50635 0.01821
1832.22058 0.01822
1830.93481 0.01810
1829.64904 0.01785
1828.36327 0.01763
1827.07750 0.01754
1825.79173 0.01757
1824.50597 0.01760
1823.22020 0.01753
1821.93443 0.01737
1820.64866 0.01722
1819.36289 0.01721
1818.07712 0.01738
1816.79135 0.01767
1815.50558 0.01797
1814.21981 0.01821
1812.93405 0.01843
1811.64828 0.01867
1810.36251 0.01890
1809.07674 0.01906
1807.79097 0.01913
1806.50520 0.01919
1805.21943 0.01927
1803.93366 0.01937
1802.64790 0.01937
1801.36213 0.01924
1800.07636 0.01908
1798.79059 0.01898
1797.50482 0.01895
1796.21905 0.01890
1794.93328 0.01877
1793.64751 0.01862
1792.36174 0.01860
1791.07598 0.01880
1789.79021 0.01909
1788.50444 0.01930
1787.21867 0.01931
1785.93290 0.01919
1784.64713 0.01908
1783.36136 0.01907
1782.07559 0.01914
1780.78983 0.01923
1779.50406 0.01931
1778.21829 0.01935
1776.93252 0.01938
1775.64675 0.01937
1774.36098 0.01932
1773.07521 0.01925
1771.78944 0.01925
1770.50367 0.01933
1769.21791 0.01945
1767.93214 0.01955
1766.64637 0.01964
1765.36060 0.01977
1764.07483 0.01996
1762.78906 0.02017
1761.50329 0.02032
1760.21752 0.02038
1758.93176 0.02035
1757.64599 0.02027
1756.36022 0.02018
1755.07445 0.02009
1753.78868 0.02002
1752.50291 0.01994
1751.21714 0.01991
1749.93137 0.01996
1748.64560 0.02011
1747.35984 0.02031
1746.07407 0.02050
1744.78830 0.02064
1743.50253 0.02073
1742.21676 0.02077
1740.93099 0.02079
1739.64522 0.02081
1738.35945 0.02083
1737.07369 0.02083
1735.78792 0.02081
1734.50215 0.02080
1733.21638 0.02083
1731.93061 0.02093
1730.64484 0.02106
1729.35907 0.02119
1728.07330 0.02134
1726.78753 0.02150
1725.50177 0.02170
1724.21600 0.02194
1722.93023 0.02222
1721.64446 0.02251
1720.35869 0.02276
1719.07292 0.02296
1717.78715 0.02315
1716.50138 0.02340
1715.21561 0.02377
1713.92985 0.02425
1712.64408 0.02479
1711.35831 0.02534
1710.07254 0.02591
1708.78677 0.02650
1707.50100 0.02710
1706.21523 0.02767
1704.92946 0.02816
1703.64370 0.02858
1702.35793 0.02898
1701.07216 0.02944
1699.78639 0.03005
1698.50062 0.03081
1697.21485 0.03170
1695.92908 0.03265
1694.64331 0.03363
1693.35754 0.03460
1692.07178 0.03552
1690.78601 0.03639
1689.50024 0.03715
1688.21447 0.03777
1686.92870 0.03828
1685.64293 0.03880
1684.35716 0.03947
1683.07139 0.04034
1681.78563 0.04134
1680.49986 0.04232
1679.21409 0.04316
1677.92832 0.04387
1676.64255 0.04457
1675.35678 0.04534
1674.07101 0.04618
1672.78524 0.04701
1671.49947 0.04780
1670.21371 0.04858
1668.92794 0.04937
1667.64217 0.05017
1666.35640 0.05095
1665.07063 0.05171
1663.78486 0.05248
1662.49909 0.05326
1661.21332 0.05405
1659.92756 0.05481
1658.64179 0.05548
1657.35602 0.05602
1656.07025 0.05643
1654.78448 0.05674
1653.49871 0.05708
1652.21294 0.05751
1650.92717 0.05798
1649.64140 0.05836
1648.35564 0.05859
1647.06987 0.05872
1645.78410 0.05887
1644.49833 0.05904
1643.21256 0.05919
1641.92679 0.05920
1640.64102 0.05906
1639.35525 0.05883
1638.06949 0.05857
1636.78372 0.05833
1635.49795 0.05810
1634.21218 0.05786
1632.92641 0.05762
1631.64064 0.05740
1630.35487 0.05720
1629.06910 0.05698
1627.78333 0.05671
1626.49757 0.05638
1625.21180 0.05601
1623.92603 0.05566
1622.64026 0.05534
1621.35449 0.05503
1620.06872 0.05470
1618.78295 0.05431
1617.49718 0.05394
1616.21142 0.05367
1614.92565 0.05352
1613.63988 0.05345
1612.35411 0.05337
1611.06834 0.05324
1609.78257 0.05307
1608.49680 0.05292
1607.21103 0.05284
1605.92526 0.05285
1604.63950 0.05291
1603.35373 0.05297
1602.06796 0.05304
1600.78219 0.05312
1599.49642 0.05322
1598.21065 0.05333
1596.92488 0.05346
1595.63911 0.05365
1594.35335 0.05391
1593.06758 0.05421
1591.78181 0.05450
1590.49604 0.05476
1589.21027 0.05501
1587.92450 0.05527
1586.63873 0.05556
1585.35296 0.05587
1584.06719 0.05622
1582.78143 0.05660
1581.49566 0.05703
1580.20989 0.05747
1578.92412 0.05792
1577.63835 0.05838
1576.35258 0.05887
1575.06681 0.05941
1573.78104 0.05996
1572.49528 0.06049
1571.20951 0.06097
1569.92374 0.06143
1568.63797 0.06191
1567.35220 0.06241
1566.06643 0.06288
1564.78066 0.06326
1563.49489 0.06349
1562.20912 0.06355
1560.92336 0.06358
1559.63759 0.06371
1558.35182 0.06405
1557.06605 0.06451
1555.78028 0.06496
1554.49451 0.06532
1553.20874 0.06558
1551.92297 0.06579
1550.63721 0.06597
1549.35144 0.06608
1548.06567 0.06608
1546.77990 0.06596
1545.49413 0.06575
1544.20836 0.06550
1542.92259 0.06520
1541.63682 0.06486
1540.35105 0.06449
1539.06529 0.06414
1537.77952 0.06385
1536.49375 0.06362
1535.20798 0.06344
1533.92221 0.06333
1532.63644 0.06332
1531.35067 0.06339
1530.06490 0.06348
1528.77914 0.06359
1527.49337 0.06371
1526.20760 0.06384
1524.92183 0.06401
1523.63606 0.06422
1522.35029 0.06454
1521.06452 0.06500
1519.77875 0.06561
1518.49298 0.06633
1517.20722 0.06710
1515.92145 0.06787
1514.63568 0.06869
1513.34991 0.06962
1512.06414 0.07064
1510.77837 0.07165
1509.49260 0.07259
1508.20683 0.07345
1506.92107 0.07434
1505.63530 0.07534
1504.34953 0.07640
1503.06376 0.07742
1501.77799 0.07829
1500.49222 0.07903
1499.20645 0.07966
1497.92068 0.08023
1496.63491 0.08077
1495.34915 0.08131
1494.06338 0.08186
1492.77761 0.08240
1491.49184 0.08296
1490.20607 0.08358
1488.92030 0.08432
1487.63453 0.08519
1486.34876 0.08615
1485.06299 0.08714
1483.77723 0.08815
1482.49146 0.08920
1481.20569 0.09028
1479.91992 0.09140
1478.63415 0.09255
1477.34838 0.09371
1476.06261 0.09483
1474.77684 0.09587
1473.49108 0.09682
1472.20531 0.09774
1470.91954 0.09864
1469.63377 0.09948
1468.34800 0.10020
1467.06223 0.10082
1465.77646 0.10142
1464.49069 0.10206
1463.20492 0.10271
1461.91916 0.10335
1460.63339 0.10394
1459.34762 0.10450
1458.06185 0.10507
1456.77608 0.10570
1455.49031 0.10637
1454.20454 0.10703
1452.91877 0.10762
1451.63301 0.10808
1450.34724 0.10842
1449.06147 0.10868
1447.77570 0.10886
1446.48993 0.10894
1445.20416 0.10894
1443.91839 0.10886
1442.63262 0.10873
1441.34685 0.10857
1440.06109 0.10838
1438.77532 0.10823
1437.48955 0.10820
1436.20378 0.10837
1434.91801 0.10881
1433.63224 0.10950
1432.34647 0.11038
1431.06070 0.11143
1429.77494 0.11262
1428.48917 0.11393
1427.20340 0.11535
1425.91763 0.11684
1424.63186 0.11837
1423.34609 0.11986
1422.06032 0.12124
1420.77455 0.12252
1419.48878 0.12373
1418.20302 0.12491
1416.91725 0.12598
1415.63148 0.12687
1414.34571 0.12750
1413.05994 0.12790
1411.77417 0.12809
1410.48840 0.12806
1409.20263 0.12776
1407.91687 0.12716
1406.63110 0.12626
1405.34533 0.12509
1404.05956 0.12369
1402.77379 0.12212
1401.48802 0.12042
1400.20225 0.11860
1398.91648 0.11667
1397.63071 0.11464
1396.34495 0.11252
1395.05918 0.11033
1393.77341 0.10810
1392.48764 0.10584
1391.20187 0.10358
1389.91610 0.10134
1388.63033 0.09911
1387.34456 0.09690
1386.05880 0.09472
1384.77303 0.09254
1383.48726 0.09038
1382.20149 0.08823
1380.91572 0.08611
1379.62995 0.08400
1378.34418 0.08186
1377.05841 0.07967
1375.77264 0.07742
1374.48688 0.07514
1373.20111 0.07289
1371.91534 0.07070
1370.62957 0.06860
1369.34380 0.06660
1368.05803 0.06470
1366.77226 0.06295
1365.48649 0.06133
1364.20073 0.05980
1362.91496 0.05828
1361.62919 0.05677
1360.34342 0.05534
1359.05765 0.05407
1357.77188 0.05298
1356.48611 0.05202
1355.20034 0.05110
1353.91457 0.05020
1352.62881 0.04931
1351.34304 0.04848
1350.05727 0.04772
1348.77150 0.04702
1347.48573 0.04635
1346.19996 0.04569
1344.91419 0.04507
1343.62842 0.04449
1342.34266 0.04397
1341.05689 0.04348
1339.77112 0.04301
1338.48535 0.04251
1337.19958 0.04198
1335.91381 0.04144
1334.62804 0.04092
1333.34227 0.04046
1332.05650 0.04007
1330.77074 0.03971
1329.48497 0.03937
1328.19920 0.03899
1326.91343 0.03862
1325.62766 0.03825
1324.34189 0.03791
1323.05612 0.03757
1321.77035 0.03722
1320.48459 0.03685
1319.19882 0.03647
1317.91305 0.03610
1316.62728 0.03577
1315.34151 0.03548
1314.05574 0.03523
1312.76997 0.03503
1311.48420 0.03486
1310.19843 0.03469
1308.91267 0.03449
1307.62690 0.03420
1306.34113 0.03384
1305.05536 0.03346
1303.76959 0.03310
1302.48382 0.03281
1301.19805 0.03256
1299.91228 0.03233
1298.62652 0.03207
1297.34075 0.03178
1296.05498 0.03147
1294.76921 0.03119
1293.48344 0.03098
1292.19767 0.03084
1290.91190 0.03075
1289.62613 0.03068
1288.34036 0.03059
1287.05460 0.03048
1285.76883 0.03034
1284.48306 0.03017
1283.19729 0.03000
1281.91152 0.02985
1280.62575 0.02972
1279.33998 0.02961
1278.05421 0.02950
1276.76845 0.02939
1275.48268 0.02929
1274.19691 0.02919
1272.91114 0.02906
1271.62537 0.02887
1270.33960 0.02864
1269.05383 0.02844
1267.76806 0.02831
1266.48229 0.02825
1265.19653 0.02821
1263.91076 0.02812
1262.62499 0.02798
1261.33922 0.02782
1260.05345 0.02769
1258.76768 0.02763
1257.48191 0.02760
1256.19614 0.02759
1254.91037 0.02756
1253.62461 0.02751
1252.33884 0.02745
1251.05307 0.02740
1249.76730 0.02737
1248.48153 0.02733
1247.19576 0.02727
1245.90999 0.02718
1244.62422 0.02709
1243.33846 0.02700
1242.05269 0.02693
1240.76692 0.02685
1239.48115 0.02676
1238.19538 0.02667
1236.90961 0.02659
1235.62384 0.02653
1234.33807 0.02649
1233.05230 0.02644
1231.76654 0.02637
1230.48077 0.02627
1229.19500 0.02612
1227.90923 0.02595
1226.62346 0.02579
1225.33769 0.02569
1224.05192 0.02558
1222.76615 0.02543
1221.48039 0.02523
1220.19462 0.02501
1218.90885 0.02483
1217.62308 0.02469
1216.33731 0.02458
1215.05154 0.02450
1213.76577 0.02443
1212.48000 0.02438
1211.19423 0.02435
1209.90847 0.02432
1208.62270 0.02428
1207.33693 0.02424
1206.05116 0.02422
1204.76539 0.02422
1203.47962 0.02419
1202.19385 0.02410
1200.90808 0.02405
1199.62232 0.02438
1198.33655 0.02439
1197.05078 0.02437
1195.76501 0.02434
1194.47924 0.02429
1193.19347 0.02422
1191.90770 0.02413
1190.62193 0.02404
1189.33616 0.02400
1188.05040 0.02401
1186.76463 0.02403
1185.47886 0.02402
1184.19309 0.02394
1182.90732 0.02385
1181.62155 0.02381
1180.33578 0.02385
1179.05001 0.02391
1177.76425 0.02395
1176.47848 0.02398
1175.19271 0.02404
1173.90694 0.02415
1172.62117 0.02432
1171.33540 0.02451
1170.04963 0.02471
1168.76386 0.02489
1167.47809 0.02507
1166.19233 0.02525
1164.90656 0.02540
1163.62079 0.02553
1162.33502 0.02564
1161.04925 0.02575
1159.76348 0.02586
1158.47771 0.02604
1157.19194 0.02635
1155.90618 0.02678
1154.62041 0.02726
1153.33464 0.02770
1152.04887 0.02803
1150.76310 0.02830
1149.47733 0.02859
1148.19156 0.02899
1146.90579 0.02955
1145.62002 0.03023
1144.33426 0.03096
1143.04849 0.03170
1141.76272 0.03248
1140.47695 0.03336
1139.19118 0.03434
1137.90541 0.03539
1136.61964 0.03656
1135.33387 0.03789
1134.04811 0.03942
1132.76234 0.04117
1131.47657 0.04313
1130.19080 0.04532
1128.90503 0.04778
1127.61926 0.05049
1126.33349 0.05340
1125.04772 0.05646
1123.76195 0.05967
1122.47619 0.06301
1121.19042 0.06644
1119.90465 0.06989
1118.61888 0.07334
1117.33311 0.07686
1116.04734 0.08050
1114.76157 0.08427
1113.47580 0.08802
1112.19004 0.09162
1110.90427 0.09503
1109.61850 0.09833
1108.33273 0.10161
1107.04696 0.10490
1105.76119 0.10818
1104.47542 0.11142
1103.18965 0.11461
1101.90388 0.11767
1100.61812 0.12056
1099.33235 0.12332
1098.04658 0.12600
1096.76081 0.12863
1095.47504 0.13116
1094.18927 0.13352
1092.90350 0.13567
1091.61773 0.13768
1090.33197 0.13964
1089.04620 0.14160
1087.76043 0.14354
1086.47466 0.14543
1085.18889 0.14730
1083.90312 0.14923
1082.61735 0.15130
1081.33158 0.15355
1080.04581 0.15596
1078.76005 0.15850
1077.47428 0.16119
1076.18851 0.16404
1074.90274 0.16701
1073.61697 0.17005
1072.33120 0.17313
1071.04543 0.17630
1069.75966 0.17960
1068.47390 0.18304
1067.18813 0.18660
1065.90236 0.19021
1064.61659 0.19382
1063.33082 0.19744
1062.04505 0.20114
1060.75928 0.20494
1059.47351 0.20880
1058.18774 0.21260
1056.90198 0.21623
1055.61621 0.21971
1054.33044 0.22313
1053.04467 0.22660
1051.75890 0.23015
1050.47313 0.23378
1049.18736 0.23750
1047.90159 0.24134
1046.61583 0.24526
1045.33006 0.24924
1044.04429 0.25326
1042.75852 0.25734
1041.47275 0.26150
1040.18698 0.26571
1038.90121 0.26996
1037.61544 0.27420
1036.32967 0.27844
1035.04391 0.28266
1033.75814 0.28679
1032.47237 0.29072
1031.18660 0.29436
1029.90083 0.29770
1028.61506 0.30076
1027.32929 0.30356
1026.04352 0.30611
1024.75775 0.30835
1023.47199 0.31023
1022.18622 0.31171
1020.90045 0.31278
1019.61468 0.31336
1018.32891 0.31341
1017.04314 0.31295
1015.75737 0.31210
1014.47160 0.31088
1013.18584 0.30920
1011.90007 0.30692
1010.61430 0.30397
1009.32853 0.30041
1008.04276 0.29634
1006.75699 0.29182
1005.47122 0.28686
1004.18545 0.28145
1002.89968 0.27561
1001.61392 0.26940
1000.32815 0.26284
999.04238 0.25594
997.75661 0.24873
996.47084 0.24126
995.18507 0.23365
993.89930 0.22602
992.61353 0.21843
991.32777 0.21089
990.04200 0.20338
988.75623 0.19593
987.47046 0.18864
986.18469 0.18163
984.89892 0.17497
983.61315 0.16861
982.32738 0.16250
981.04161 0.15662
979.75585 0.15102
978.47008 0.14579
977.18431 0.14095
975.89854 0.13655
974.61277 0.13268
973.32700 0.12944
972.04123 0.12690
970.75546 0.12505
969.46970 0.12384
968.18393 0.12327
966.89816 0.12333
965.61239 0.12390
964.32662 0.12474
963.04085 0.12546
961.75508 0.12570
960.46931 0.12528
959.18354 0.12418
957.89778 0.12247
956.61201 0.12027
955.32624 0.11772
954.04047 0.11496
952.75470 0.11215
951.46893 0.10939
950.18316 0.10663
948.89739 0.10380
947.61163 0.10090
946.32586 0.09802
945.04009 0.09526
943.75432 0.09267
942.46855 0.09021
941.18278 0.08783
939.89701 0.08552
938.61124 0.08330
937.32547 0.08118
936.03971 0.07918
934.75394 0.07737
933.46817 0.07578
932.18240 0.07437
930.89663 0.07305
929.61086 0.07171
928.32509 0.07037
927.03932 0.06911
925.75356 0.06799
924.46779 0.06699
923.18202 0.06607
921.89625 0.06525
920.61048 0.06447
919.32471 0.06365
918.03894 0.06274
916.75317 0.06182
915.46740 0.06101
914.18164 0.06033
912.89587 0.05970
911.61010 0.05903
910.32433 0.05833
909.03856 0.05767
907.75279 0.05707
906.46702 0.05651
905.18125 0.05593
903.89549 0.05535
902.60972 0.05479
901.32395 0.05427
900.03818 0.05377
898.75241 0.05330
897.46664 0.05287
896.18087 0.05249
894.89510 0.05213
893.60933 0.05180
892.32357 0.05155
891.03780 0.05140
889.75203 0.05141
888.46626 0.05168
887.18049 0.05234
885.89472 0.05351
884.60895 0.05535
883.32318 0.05791
882.03742 0.06102
880.75165 0.06421
879.46588 0.06696
878.18011 0.06909
876.89434 0.07084
875.60857 0.07262
874.32280 0.07452
873.03703 0.07623
871.75126 0.07727
870.46550 0.07731
869.17973 0.07633
867.89396 0.07457
866.60819 0.07234
865.32242 0.06985
864.03665 0.06724
862.75088 0.06465
861.46511 0.06217
860.17935 0.05989
858.89358 0.05789
857.60781 0.05622
856.32204 0.05486
855.03627 0.05373
853.75050 0.05275
852.46473 0.05192
851.17896 0.05124
849.89319 0.05069
848.60743 0.05022
847.32166 0.04976
846.03589 0.04929
844.75012 0.04881
843.46435 0.04835
842.17858 0.04793
840.89281 0.04760
839.60704 0.04738
838.32128 0.04721
837.03551 0.04700
835.74974 0.04670
834.46397 0.04634
833.17820 0.04598
831.89243 0.04569
830.60666 0.04544
829.32089 0.04522
828.03512 0.04500
826.74936 0.04478
825.46359 0.04459
824.17782 0.04448
822.89205 0.04449
821.60628 0.04461
820.32051 0.04475
819.03474 0.04480
817.74897 0.04469
816.46321 0.04443
815.17744 0.04413
813.89167 0.04388
812.60590 0.04370
811.32013 0.04355
810.03436 0.04340
808.74859 0.04324
807.46282 0.04307
806.17705 0.04290
804.89129 0.04276
803.60552 0.04268
802.31975 0.04268
801.03398 0.04275
799.74821 0.04278
798.46244 0.04273
797.17667 0.04261
795.89090 0.04249
794.60513 0.04240
793.31937 0.04230
792.03360 0.04218
790.74783 0.04207
789.46206 0.04201
788.17629 0.04202
786.89052 0.04207
785.60475 0.04213
784.31898 0.04211
783.03322 0.04195
781.74745 0.04171
780.46168 0.04150
779.17591 0.04142
777.89014 0.04143
776.60437 0.04146
775.31860 0.04145
774.03283 0.04139
772.74706 0.04134
771.46130 0.04132
770.17553 0.04138
768.88976 0.04148
767.60399 0.04157
766.31822 0.04162
765.03245 0.04166
763.74668 0.04175
762.46091 0.04189
761.17515 0.04199
759.88938 0.04199
758.60361 0.04187
757.31784 0.04172
756.03207 0.04165
754.74630 0.04176
753.46053 0.04198
752.17476 0.04215
750.88899 0.04211
749.60323 0.04189
748.31746 0.04162
747.03169 0.04141
745.74592 0.04128
744.46015 0.04122
743.17438 0.04119
741.88861 0.04116
740.60284 0.04111
739.31708 0.04105
738.03131 0.04098
736.74554 0.04087
735.45977 0.04071
734.17400 0.04054
732.88823 0.04039
731.60246 0.04027
730.31669 0.04023
729.03092 0.04031
727.74516 0.04050
726.45939 0.04068
725.17362 0.04077
723.88785 0.04094
722.60208 0.04081
721.31631 0.04081
720.03054 0.04092
718.74477 0.04102
717.45901 0.04106
716.17324 0.04100
714.88747 0.04085
713.60170 0.04065
712.31593 0.04047
711.03016 0.04036
709.74439 0.04031
708.45862 0.04032
707.17285 0.04034
705.88709 0.04038
704.60132 0.04042
703.31555 0.04046
702.02978 0.04051
700.74401 0.04054
699.45824 0.04053
698.17247 0.04046
696.88670 0.04037
695.60094 0.04029
694.31517 0.04026
693.02940 0.04024
691.74363 0.04022
690.45786 0.04016
689.17209 0.04007
687.88632 0.03996
686.60055 0.03982
685.31478 0.03965
684.02902 0.03946
682.74325 0.03928
681.45748 0.03913
680.17171 0.03902
678.88594 0.03892
677.60017 0.03885
676.31440 0.03882
675.02863 0.03889
673.74287 0.03903
672.45710 0.03925
671.17133 0.03953
669.88556 0.03978
668.59979 0.03967
667.31402 0.03952
666.02825 0.03958
664.74248 0.03925
663.45671 0.03890
662.17095 0.03867
660.88518 0.03855
659.59941 0.03851
658.31364 0.03845
657.02787 0.03832
655.74210 0.03810
654.45633 0.03787
653.17056 0.03769
651.88480 0.03758
650.59903 0.03751
649.31326 0.03744
648.02749 0.03737
646.74172 0.03733
645.45595 0.03733
644.17018 0.03738
642.88441 0.03740
641.59864 0.03736
640.31288 0.03730
639.02711 0.03730
637.74134 0.03742
636.45557 0.03766
635.16980 0.03801
633.88403 0.03850
632.59826 0.03907
631.31249 0.03887
630.02673 0.03680
628.74096 0.03590
627.45519 0.03980
626.16942 0.04049
624.88365 0.03874
623.59788 0.03708
622.31211 0.03650
621.02634 0.03769
619.74057 0.04110
618.45481 0.04638
617.16904 0.05260
615.88327 0.05912
614.59750 0.06598
613.31173 0.07342
612.02596 0.08105
610.74019 0.08781
609.45442 0.09309
608.16866 0.09762
606.88289 0.10246
605.59712 0.10753
604.31135 0.11178
603.02558 0.11426
601.73981 0.11480
600.45404 0.11384
599.16827 0.11198
597.88250 0.10957
596.59674 0.10676
595.31097 0.10368
594.02520 0.10066
592.73943 0.09811
591.45366 0.09626
590.16789 0.09509
588.88212 0.09452
587.59635 0.09457
586.31059 0.09533
585.02482 0.09683
583.73905 0.09905
582.45328 0.10189
581.16751 0.10519
579.88174 0.10870
578.59597 0.11209
577.31020 0.11513
576.02443 0.11785
574.73867 0.12039
573.45290 0.12288
572.16713 0.12542
570.88136 0.12819
569.59559 0.13142
568.30982 0.13525
567.02405 0.13952
565.73828 0.14382
564.45251 0.14768
563.16675 0.15070
561.88098 0.15245
560.59521 0.15259
559.30944 0.15088
558.02367 0.14738
556.73790 0.14239
555.45213 0.13629
554.16636 0.12949
552.88060 0.12243
551.59483 0.11548
550.30906 0.10887
549.02329 0.10272
547.73752 0.09715
546.45175 0.09225
545.16598 0.08809
543.88021 0.08456
542.59444 0.08152
541.30868 0.07879
540.02291 0.07628
538.73714 0.07390
537.45137 0.07160
536.16560 0.06939
534.87983 0.06728
533.59406 0.06534
532.30829 0.06359
531.02253 0.06199
529.73676 0.06047
528.45099 0.05892
527.16522 0.05735
525.87945 0.05586
524.59368 0.05456
523.30791 0.05350
522.02214 0.05261
520.73637 0.05178
519.45061 0.05090
518.16484 0.04996
516.87907 0.04899
515.59330 0.04803
514.30753 0.04715
513.02176 0.04635
511.73599 0.04560
510.45022 0.04486
509.16446 0.04415
507.87869 0.04348
506.59292 0.04288
505.30715 0.04235
504.02138 0.04190
502.73561 0.04147
501.44984 0.04101
500.16407 0.04047
498.87830 0.03988
497.59254 0.03931
496.30677 0.03883
495.02100 0.03844
493.73523 0.03811
492.44946 0.03782
491.16369 0.03757
489.87792 0.03732
488.59215 0.03709
487.30639 0.03688
486.02062 0.03673
484.73485 0.03662
483.44908 0.03654
482.16331 0.03646
480.87754 0.03639
479.59177 0.03636
478.30600 0.03644
477.02023 0.03666
475.73447 0.03702
474.44870 0.03744
473.16293 0.03782
471.87716 0.03807
470.59139 0.03814
469.30562 0.03803
468.01985 0.03778
466.73408 0.03744
465.44832 0.03702
464.16255 0.03650
462.87678 0.03590
461.59101 0.03531
460.30524 0.03481
459.01947 0.03442
457.73370 0.03408
456.44793 0.03375
455.16216 0.03340
453.87640 0.03306
452.59063 0.03273
451.30486 0.03244
450.01909 0.03217
448.73332 0.03192
447.44755 0.03169
446.16178 0.03145
444.87601 0.03121
443.59025 0.03098
442.30448 0.03079
441.01871 0.03065
439.73294 0.03054
438.44717 0.03043
437.16140 0.03031
435.87563 0.03019
434.58986 0.03009
433.30409 0.02998
432.01833 0.02981
430.73256 0.02956
429.44679 0.02930
428.16102 0.02908
426.87525 0.02891
425.58948 0.02875
424.30371 0.02859
423.01794 0.02845
421.73218 0.02837
420.44641 0.02833
419.16064 0.02830
417.87487 0.02824
416.58910 0.02814
415.30333 0.02800
414.01756 0.02786
412.73179 0.02776
411.44602 0.02771
410.16026 0.02769
408.87449 0.02770
407.58872 0.02774
406.30295 0.02782
405.01718 0.02793
403.73141 0.02801
402.44564 0.02803
401.15987 0.02801
399.87411 0.02797
