3997.45528 0.04014
3996.16951 0.04110
3994.88374 0.04151
3993.59798 0.04117
3992.31221 0.04027
3991.02644 0.03939
3989.74067 0.03924
3988.45490 0.04006
3987.16913 0.04137
3985.88336 0.04237
3984.59759 0.04255
3983.31183 0.04213
3982.02606 0.04172
3980.74029 0.04176
3979.45452 0.04209
3978.16875 0.04223
3976.88298 0.04184
3975.59721 0.04102
3974.31144 0.04008
3973.02567 0.03926
3971.73991 0.03859
3970.45414 0.03802
3969.16837 0.03748
3967.88260 0.03689
3966.59683 0.03623
3965.31106 0.03570
3964.02529 0.03563
3962.73952 0.03627
3961.45376 0.03740
3960.16799 0.03845
3958.88222 0.03897
3957.59645 0.03896
3956.31068 0.03884
3955.02491 0.03899
3953.73914 0.03937
3952.45337 0.03977
3951.16760 0.04012
3949.88184 0.04043
3948.59607 0.04055
3947.31030 0.04014
3946.02453 0.03914
3944.73876 0.03808
3943.45299 0.03763
3942.16722 0.03801
3940.88145 0.03879
3939.59569 0.03941
3938.30992 0.03968
3937.02415 0.03976
3935.73838 0.03973
3934.45261 0.03951
3933.16684 0.03916
3931.88107 0.03882
3930.59530 0.03848
3929.30953 0.03789
3928.02377 0.03702
3926.73800 0.03622
3925.45223 0.03574
3924.16646 0.03544
3922.88069 0.03508
3921.59492 0.03467
3920.30915 0.03456
3919.02338 0.03502
3917.73762 0.03597
3916.45185 0.03693
3915.16608 0.03756
3913.88031 0.03790
3912.59454 0.03811
3911.30877 0.03817
3910.02300 0.03805
3908.73723 0.03807
3907.45146 0.03868
3906.16570 0.03984
3904.87993 0.04094
3903.59416 0.04135
3902.30839 0.04087
3901.02262 0.03988
3899.73685 0.03903
3898.45108 0.03881
3897.16531 0.03926
3895.87955 0.03995
3894.59378 0.04041
3893.30801 0.04047
3892.02224 0.04033
3890.73647 0.04014
3889.45070 0.03991
3888.16493 0.03959
3886.87916 0.03915
3885.59339 0.03864
3884.30763 0.03819
3883.02186 0.03805
3881.73609 0.03833
3880.45032 0.03874
3879.16455 0.03881
3877.87878 0.03832
3876.59301 0.03751
3875.30724 0.03676
3874.02148 0.03631
3872.73571 0.03620
3871.44994 0.03632
3870.16417 0.03637
3868.87840 0.03620
3867.59263 0.03613
3866.30686 0.03666
3865.02109 0.03769
3863.73532 0.03852
3862.44956 0.03862
3861.16379 0.03819
3859.87802 0.03784
3858.59225 0.03788
3857.30648 0.03810
3856.02071 0.03816
3854.73494 0.03787
3853.44917 0.03710
3852.16341 0.03602
3850.87764 0.03527
3849.59187 0.03546
3848.30610 0.03646
3847.02033 0.03747
3845.73456 0.03780
3844.44879 0.03748
3843.16302 0.03696
3841.87725 0.03652
3840.59149 0.03623
3839.30572 0.03622
3838.01995 0.03654
3836.73418 0.03701
3835.44841 0.03733
3834.16264 0.03727
3832.87687 0.03682
3831.59110 0.03621
3830.30534 0.03575
3829.01957 0.03554
3827.73380 0.03536
3826.44803 0.03489
3825.16226 0.03423
3823.87649 0.03396
3822.59072 0.03448
3821.30495 0.03542
3820.01918 0.03594
3818.73342 0.03576
3817.44765 0.03527
3816.16188 0.03485
3814.87611 0.03456
3813.59034 0.03447
3812.30457 0.03488
3811.01880 0.03591
3809.73303 0.03710
3808.44726 0.03750
3807.16150 0.03653
3805.87573 0.03485
3804.58996 0.03405
3803.30419 0.03515
3802.01842 0.03741
3800.73265 0.03906
3799.44688 0.03900
3798.16111 0.03756
3796.87535 0.03576
3795.58958 0.03440
3794.30381 0.03375
3793.01804 0.03364
3791.73227 0.03397
3790.44650 0.03479
3789.16073 0.03596
3787.87496 0.03690
3786.58919 0.03699
3785.30343 0.03631
3784.01766 0.03554
3782.73189 0.03523
3781.44612 0.03540
3780.16035 0.03575
3778.87458 0.03603
3777.58881 0.03610
3776.30304 0.03597
3775.01728 0.03579
3773.73151 0.03583
3772.44574 0.03622
3771.15997 0.03680
3769.87420 0.03722
3768.58843 0.03706
3767.30266 0.03621
3766.01689 0.03498
3764.73112 0.03404
3763.44536 0.03390
3762.15959 0.03445
3760.87382 0.03506
3759.58805 0.03524
3758.30228 0.03508
3757.01651 0.03490
3755.73074 0.03493
3754.44497 0.03518
3753.15921 0.03558
3751.87344 0.03599
3750.58767 0.03614
3749.30190 0.03582
3748.01613 0.03524
3746.73036 0.03509
3745.44459 0.03574
3744.15882 0.03664
3742.87305 0.03713
3741.58729 0.03704
3740.30152 0.03651
3739.01575 0.03561
3737.72998 0.03448
3736.44421 0.03351
3735.15844 0.03320
3733.87267 0.03375
3732.58690 0.03472
3731.30114 0.03530
3730.01537 0.03502
3728.72960 0.03401
3727.44383 0.03269
3726.15806 0.03145
3724.87229 0.03069
3723.58652 0.03062
3722.30075 0.03118
3721.01498 0.03217
3719.72922 0.03351
3718.44345 0.03513
3717.15768 0.03664
3715.87191 0.03752
3714.58614 0.03765
3713.30037 0.03729
3712.01460 0.03668
3710.72883 0.03586
3709.44307 0.03497
3708.15730 0.03432
3706.87153 0.03396
3705.58576 0.03357
3704.29999 0.03293
3703.01422 0.03234
3701.72845 0.03226
3700.44268 0.03251
3699.15691 0.03245
3697.87115 0.03175
3696.58538 0.03089
3695.29961 0.03069
3694.01384 0.03158
3692.72807 0.03319
3691.44230 0.03474
3690.15653 0.03565
3688.87076 0.03586
3687.58500 0.03565
3686.29923 0.03530
3685.01346 0.03486
3683.72769 0.03427
3682.44192 0.03370
3681.15615 0.03350
3679.87038 0.03378
3678.58461 0.03433
3677.29884 0.03483
3676.01308 0.03511
3674.72731 0.03522
3673.44154 0.03551
3672.15577 0.03615
3670.87000 0.03673
3669.58423 0.03668
3668.29846 0.03600
3667.01269 0.03518
3665.72693 0.03468
3664.44116 0.03454
3663.15539 0.03462
3661.86962 0.03477
3660.58385 0.03499
3659.29808 0.03534
3658.01231 0.03580
3656.72654 0.03608
3655.44077 0.03591
3654.15501 0.03532
3652.86924 0.03469
3651.58347 0.03429
3650.29770 0.03414
3649.01193 0.03423
3647.72616 0.03467
3646.44039 0.03558
3645.15462 0.03674
3643.86886 0.03762
3642.58309 0.03771
3641.29732 0.03706
3640.01155 0.03625
3638.72578 0.03591
3637.44001 0.03611
3636.15424 0.03649
3634.86847 0.03686
3633.58270 0.03736
3632.29694 0.03821
3631.01117 0.03931
3629.72540 0.04019
3628.43963 0.04041
3627.15386 0.03995
3625.86809 0.03925
3624.58232 0.03875
3623.29655 0.03869
3622.01079 0.03913
3620.72502 0.03988
3619.43925 0.04049
3618.15348 0.04052
3616.86771 0.03997
3615.58194 0.03933
3614.29617 0.03912
3613.01040 0.03941
3611.72463 0.04005
3610.43887 0.04090
3609.15310 0.04188
3607.86733 0.04278
3606.58156 0.04331
3605.29579 0.04334
3604.01002 0.04306
3602.72425 0.04277
3601.43848 0.04264
3600.15272 0.04251
3598.86695 0.04218
3597.58118 0.04175
3596.29541 0.04162
3595.00964 0.04208
3593.72387 0.04296
3592.43810 0.04385
3591.15233 0.04461
3589.86656 0.04534
3588.58080 0.04607
3587.29503 0.04652
3586.00926 0.04642
3584.72349 0.04586
3583.43772 0.04520
3582.15195 0.04470
3580.86618 0.04435
3579.58041 0.04408
3578.29464 0.04416
3577.00888 0.04491
3575.72311 0.04624
3574.43734 0.04744
3573.15157 0.04784
3571.86580 0.04748
3570.58003 0.04698
3569.29426 0.04677
3568.00849 0.04667
3566.72273 0.04634
3565.43696 0.04586
3564.15119 0.04561
3562.86542 0.04572
3561.57965 0.04595
3560.29388 0.04599
3559.00811 0.04581
3557.72234 0.04579
3556.43657 0.04631
3555.15081 0.04730
3553.86504 0.04822
3552.57927 0.04857
3551.29350 0.04837
3550.00773 0.04815
3548.72196 0.04838
3547.43619 0.04918
3546.15042 0.05031
3544.86466 0.05138
3543.57889 0.05200
3542.29312 0.05198
3541.00735 0.05139
3539.72158 0.05060
3538.43581 0.04997
3537.15004 0.04967
3535.86427 0.04964
3534.57850 0.04994
3533.29274 0.05077
3532.00697 0.05223
3530.72120 0.05391
3529.43543 0.05514
3528.14966 0.05556
3526.86389 0.05534
3525.57812 0.05485
3524.29235 0.05433
3523.00659 0.05387
3521.72082 0.05361
3520.43505 0.05364
3519.14928 0.05395
3517.86351 0.05441
3516.57774 0.05491
3515.29197 0.05530
3514.00620 0.05538
3512.72043 0.05510
3511.43467 0.05465
3510.14890 0.05433
3508.86313 0.05429
3507.57736 0.05445
3506.29159 0.05465
3505.00582 0.05492
3503.72005 0.05537
3502.43428 0.05590
3501.14852 0.05619
3499.86275 0.05607
3498.57698 0.05579
3497.29121 0.05589
3496.00544 0.05666
3494.71967 0.05792
3493.43390 0.05922
3492.14813 0.06010
3490.86236 0.06031
3489.57660 0.05984
3488.29083 0.05905
3487.00506 0.05840
3485.71929 0.05817
3484.43352 0.05831
3483.14775 0.05864
3481.86198 0.05898
3480.57621 0.05926
3479.29045 0.05955
3478.00468 0.06004
3476.71891 0.06079
3475.43314 0.06154
3474.14737 0.06179
3472.86160 0.06137
3471.57583 0.06056
3470.29006 0.05981
3469.00429 0.05935
3467.71853 0.05924
3466.43276 0.05949
3465.14699 0.05995
3463.86122 0.06029
3462.57545 0.06029
3461.28968 0.06010
3460.00391 0.06011
3458.71814 0.06048
3457.43238 0.06101
3456.14661 0.06134
3454.86084 0.06121
3453.57507 0.06061
3452.28930 0.05986
3451.00353 0.05932
3449.71776 0.05921
3448.43199 0.05947
3447.14622 0.06002
3445.86046 0.06087
3444.57469 0.06197
3443.28892 0.06300
3442.00315 0.06359
3440.71738 0.06368
3439.43161 0.06359
3438.14584 0.06376
3436.86007 0.06434
3435.57431 0.06517
3434.28854 0.06583
3433.00277 0.06596
3431.71700 0.06555
3430.43123 0.06498
3429.14546 0.06466
3427.85969 0.06473
3426.57392 0.06508
3425.28815 0.06557
3424.00239 0.06602
3422.71662 0.06619
3421.43085 0.06595
3420.14508 0.06540
3418.85931 0.06485
3417.57354 0.06447
3416.28777 0.06429
3415.00200 0.06424
3413.71624 0.06436
3412.43047 0.06474
3411.14470 0.06546
3409.85893 0.06632
3408.57316 0.06702
3407.28739 0.06730
3406.00162 0.06721
3404.71585 0.06695
3403.43008 0.06665
3402.14432 0.06635
3400.85855 0.06609
3399.57278 0.06600
3398.28701 0.06620
3397.00124 0.06651
3395.71547 0.06668
3394.42970 0.06662
3393.14393 0.06656
3391.85817 0.06677
3390.57240 0.06726
3389.28663 0.06775
3388.00086 0.06790
3386.71509 0.06768
3385.42932 0.06741
3384.14355 0.06750
3382.85778 0.06799
3381.57201 0.06861
3380.28625 0.06903
3379.00048 0.06914
3377.71471 0.06902
3376.42894 0.06880
3375.14317 0.06865
3373.85740 0.06887
3372.57163 0.06958
3371.28586 0.07051
3370.00010 0.07106
3368.71433 0.07084
3367.42856 0.07002
3366.14279 0.06918
3364.85702 0.06875
3363.57125 0.06872
3362.28548 0.06883
3360.99971 0.06892
3359.71394 0.06906
3358.42818 0.06931
3357.14241 0.06957
3355.85664 0.06971
3354.57087 0.06969
3353.28510 0.06959
3351.99933 0.06946
3350.71356 0.06926
3349.42779 0.06902
3348.14202 0.06891
3346.85626 0.06907
3345.57049 0.06950
3344.28472 0.07001
3342.99895 0.07040
3341.71318 0.07053
3340.42741 0.07034
3339.14164 0.07006
3337.85587 0.07003
3336.57011 0.07037
3335.28434 0.07083
3333.99857 0.07114
3332.71280 0.07137
3331.42703 0.07178
3330.14126 0.07226
3328.85549 0.07240
3327.56972 0.07205
3326.28395 0.07160
3324.99819 0.07154
3323.71242 0.07190
3322.42665 0.07233
3321.14088 0.07249
3319.85511 0.07228
3318.56934 0.07172
3317.28357 0.07095
3315.99780 0.07024
3314.71204 0.06990
3313.42627 0.07000
3312.14050 0.07034
3310.85473 0.07068
3309.56896 0.07095
3308.28319 0.07121
3306.99742 0.07154
3305.71165 0.07193
3304.42588 0.07225
3303.14012 0.07224
3301.85435 0.07179
3300.56858 0.07117
3299.28281 0.07089
3297.99704 0.07110
3296.71127 0.07141
3295.42550 0.07126
3294.13973 0.07057
3292.85397 0.06984
3291.56820 0.06965
3290.28243 0.07012
3288.99666 0.07087
3287.71089 0.07144
3286.42512 0.07169
3285.13935 0.07174
3283.85358 0.07173
3282.56781 0.07166
3281.28205 0.07150
3279.99628 0.07127
3278.71051 0.07100
3277.42474 0.07072
3276.13897 0.07054
3274.85320 0.07063
3273.56743 0.07112
3272.28166 0.07181
3270.99590 0.07222
3269.71013 0.07200
3268.42436 0.07132
3267.13859 0.07062
3265.85282 0.07026
3264.56705 0.07028
3263.28128 0.07050
3261.99551 0.07067
3260.70974 0.07052
3259.42398 0.07002
3258.13821 0.06950
3256.85244 0.06931
3255.56667 0.06945
3254.28090 0.06955
3252.99513 0.06941
3251.70936 0.06909
3250.42359 0.06884
3249.13783 0.06881
3247.85206 0.06910
3246.56629 0.06963
3245.28052 0.07018
3243.99475 0.07046
3242.70898 0.07038
3241.42321 0.07017
3240.13744 0.07007
3238.85167 0.07007
3237.56591 0.06982
3236.28014 0.06913
3234.99437 0.06816
3233.70860 0.06733
3232.42283 0.06697
3231.13706 0.06703
3229.85129 0.06723
3228.56552 0.06731
3227.27976 0.06721
3225.99399 0.06700
3224.70822 0.06672
3223.42245 0.06633
3222.13668 0.06589
3220.85091 0.06556
3219.56514 0.06553
3218.27937 0.06585
3216.99360 0.06647
3215.70784 0.06725
3214.42207 0.06793
3213.13630 0.06824
3211.85053 0.06813
3210.56476 0.06781
3209.27899 0.06751
3207.99322 0.06725
3206.70745 0.06695
3205.42169 0.06674
3204.13592 0.06682
3202.85015 0.06709
3201.56438 0.06715
3200.27861 0.06676
3198.99284 0.06617
3197.70707 0.06579
3196.42130 0.06574
3195.13553 0.06579
3193.84977 0.06568
3192.56400 0.06538
3191.27823 0.06493
3189.99246 0.06441
3188.70669 0.06391
3187.42092 0.06361
3186.13515 0.06359
3184.84938 0.06375
3183.56362 0.06382
3182.27785 0.06373
3180.99208 0.06363
3179.70631 0.06372
3178.42054 0.06399
3177.13477 0.06423
3175.84900 0.06427
3174.56323 0.06407
3173.27746 0.06371
3171.99170 0.06342
3170.70593 0.06346
3169.42016 0.06387
3168.13439 0.06430
3166.84862 0.06429
3165.56285 0.06376
3164.27708 0.06308
3162.99131 0.06263
3161.70555 0.06239
3160.41978 0.06217
3159.13401 0.06189
3157.84824 0.06168
3156.56247 0.06164
3155.27670 0.06170
3153.99093 0.06176
3152.70516 0.06178
3151.41939 0.06171
3150.13363 0.06148
3148.84786 0.06112
3147.56209 0.06079
3146.27632 0.06064
3144.99055 0.06067
3143.70478 0.06071
3142.41901 0.06069
3141.13324 0.06065
3139.84748 0.06058
3138.56171 0.06039
3137.27594 0.05997
3135.99017 0.05939
3134.70440 0.05885
3133.41863 0.05846
3132.13286 0.05814
3130.84709 0.05788
3129.56132 0.05780
3128.27556 0.05812
3126.98979 0.05883
3125.70402 0.05969
3124.41825 0.06035
3123.13248 0.06058
3121.84671 0.06036
3120.56094 0.05983
3119.27517 0.05914
3117.98940 0.05840
3116.70364 0.05773
3115.41787 0.05730
3114.13210 0.05726
3112.84633 0.05756
3111.56056 0.05797
3110.27479 0.05829
3108.98902 0.05842
3107.70325 0.05833
3106.41749 0.05802
3105.13172 0.05757
3103.84595 0.05722
3102.56018 0.05727
3101.27441 0.05774
3099.98864 0.05836
3098.70287 0.05879
3097.41710 0.05885
3096.13133 0.05859
3094.84557 0.05818
3093.55980 0.05775
3092.27403 0.05743
3090.98826 0.05725
3089.70249 0.05711
3088.41672 0.05692
3087.13095 0.05669
3085.84518 0.05655
3084.55942 0.05661
3083.27365 0.05678
3081.98788 0.05688
3080.70211 0.05678
3079.41634 0.05655
3078.13057 0.05630
3076.84480 0.05606
3075.55903 0.05582
3074.27326 0.05561
3072.98750 0.05556
3071.70173 0.05574
3070.41596 0.05602
3069.13019 0.05625
3067.84442 0.05644
3066.55865 0.05671
3065.27288 0.05705
3063.98711 0.05728
3062.70135 0.05725
3061.41558 0.05704
3060.12981 0.05681
3058.84404 0.05661
3057.55827 0.05631
3056.27250 0.05585
3054.98673 0.05535
3053.70096 0.05500
3052.41519 0.05486
3051.12943 0.05482
3049.84366 0.05477
3048.55789 0.05471
3047.27212 0.05468
3045.98635 0.05468
3044.70058 0.05464
3043.41481 0.05443
3042.12904 0.05401
3040.84328 0.05342
3039.55751 0.05288
3038.27174 0.05261
3036.98597 0.05269
3035.70020 0.05291
3034.41443 0.05301
3033.12866 0.05289
3031.84289 0.05263
3030.55712 0.05232
3029.27136 0.05198
3027.98559 0.05160
3026.69982 0.05123
3025.41405 0.05097
3024.12828 0.05096
3022.84251 0.05124
3021.55674 0.05170
3020.27097 0.05208
3018.98521 0.05215
3017.69944 0.05193
3016.41367 0.05161
3015.12790 0.05135
3013.84213 0.05113
3012.55636 0.05083
3011.27059 0.05047
3009.98482 0.05024
3008.69905 0.05029
3007.41329 0.05062
3006.12752 0.05108
3004.84175 0.05143
3003.55598 0.05155
3002.27021 0.05139
3000.98444 0.05103
2999.69867 0.05060
2998.41290 0.05027
2997.12714 0.05006
2995.84137 0.04984
2994.55560 0.04948
2993.26983 0.04904
2991.98406 0.04876
2990.69829 0.04874
2989.41252 0.04886
2988.12675 0.04907
2986.84098 0.04953
2985.55522 0.05038
2984.26945 0.05139
2982.98368 0.05208
2981.69791 0.05217
2980.41214 0.05182
2979.12637 0.05142
2977.84060 0.05134
2976.55483 0.05170
2975.26907 0.05240
2973.98330 0.05317
2972.69753 0.05378
2971.41176 0.05409
2970.12599 0.05414
2968.84022 0.05412
2967.55445 0.05419
2966.26868 0.05445
2964.98291 0.05479
2963.69715 0.05508
2962.41138 0.05524
2961.12561 0.05521
2959.83984 0.05496
2958.55407 0.05463
2957.26830 0.05453
2955.98253 0.05490
2954.69676 0.05571
2953.41100 0.05677
2952.12523 0.05786
2950.83946 0.05882
2949.55369 0.05942
2948.26792 0.05958
2946.98215 0.05947
2945.69638 0.05934
2944.41061 0.05931
2943.12484 0.05936
2941.83908 0.05943
2940.55331 0.05946
2939.26754 0.05935
2937.98177 0.05901
2936.69600 0.05853
2935.41023 0.05802
2934.12446 0.05755
2932.83869 0.05705
2931.55293 0.05640
2930.26716 0.05552
2928.98139 0.05441
2927.69562 0.05304
2926.40985 0.05125
2925.12408 0.04881
2923.83831 0.04561
2922.55254 0.04180
2921.26677 0.03770
2919.98101 0.03371
2918.69524 0.03036
2917.40947 0.02831
2916.12370 0.02824
2914.83793 0.03036
2913.55216 0.03416
2912.26639 0.03860
2910.98062 0.04276
2909.69486 0.04619
2908.40909 0.04880
2907.12332 0.05062
2905.83755 0.05180
2904.55178 0.05258
2903.26601 0.05312
2901.98024 0.05339
2900.69447 0.05334
2899.40870 0.05308
2898.12294 0.05286
2896.83717 0.05287
2895.55140 0.05311
2894.26563 0.05342
2892.97986 0.05363
2891.69409 0.05370
2890.40832 0.05369
2889.12255 0.05364
2887.83678 0.05352
2886.55102 0.05333
2885.26525 0.05315
2883.97948 0.05300
2882.69371 0.05277
2881.40794 0.05243
2880.12217 0.05213
2878.83640 0.05209
2877.55063 0.05231
2876.26487 0.05265
2874.97910 0.05294
2873.69333 0.05322
2872.40756 0.05361
2871.12179 0.05416
2869.83602 0.05476
2868.55025 0.05519
2867.26448 0.05524
2865.97871 0.05490
2864.69295 0.05429
2863.40718 0.05355
2862.12141 0.05279
2860.83564 0.05204
2859.54987 0.05130
2858.26410 0.05043
2856.97833 0.04910
2855.69256 0.04698
2854.40680 0.04389
2853.12103 0.03994
2851.83526 0.03569
2850.54949 0.03222
2849.26372 0.03082
2847.97795 0.03216
2846.69218 0.03566
2845.40641 0.03990
2844.12064 0.04352
2842.83488 0.04593
2841.54911 0.04727
2840.26334 0.04799
2838.97757 0.04838
2837.69180 0.04854
2836.40603 0.04853
2835.12026 0.04848
2833.83449 0.04845
2832.54873 0.04839
2831.26296 0.04819
2829.97719 0.04787
2828.69142 0.04752
2827.40565 0.04726
2826.11988 0.04711
2824.83411 0.04695
2823.54834 0.04663
2822.26257 0.04609
2820.97681 0.04551
2819.69104 0.04514
2818.40527 0.04507
2817.11950 0.04515
2815.83373 0.04515
2814.54796 0.04502
2813.26219 0.04485
2811.97642 0.04473
2810.69066 0.04461
2809.40489 0.04446
2808.11912 0.04435
2806.83335 0.04430
2805.54758 0.04430
2804.26181 0.04437
2802.97604 0.04455
2801.69027 0.04473
2800.40450 0.04465
2799.11874 0.04421
2797.83297 0.04364
2796.54720 0.04327
2795.26143 0.04323
2793.97566 0.04335
2792.68989 0.04342
2791.40412 0.04339
2790.11835 0.04337
2788.83259 0.04341
2787.54682 0.04341
2786.26105 0.04327
2784.97528 0.04308
2783.68951 0.04293
2782.40374 0.04283
2781.11797 0.04271
2779.83220 0.04265
2778.54643 0.04272
2777.26067 0.04285
2775.97490 0.04282
2774.68913 0.04250
2773.40336 0.04202
2772.11759 0.04163
2770.83182 0.04146
2769.54605 0.04144
2768.26028 0.04147
2766.97452 0.04152
2765.68875 0.04166
2764.40298 0.04186
2763.11721 0.04198
2761.83144 0.04190
2760.54567 0.04166
2759.25990 0.04139
2757.97413 0.04121
2756.68836 0.04112
2755.40260 0.04109
2754.11683 0.04109
2752.83106 0.04106
2751.54529 0.04097
2750.25952 0.04083
2748.97375 0.04069
2747.68798 0.04055
2746.40221 0.04040
2745.11645 0.04023
2743.83068 0.04009
2742.54491 0.04000
2741.25914 0.04000
2739.97337 0.04010
2738.68760 0.04024
2737.40183 0.04032
2736.11606 0.04032
2734.83029 0.04026
2733.54453 0.04022
2732.25876 0.04022
2730.97299 0.04021
2729.68722 0.04012
2728.40145 0.03994
2727.11568 0.03976
2725.82991 0.03968
2724.54414 0.03970
2723.25838 0.03973
2721.97261 0.03970
2720.68684 0.03959
2719.40107 0.03951
2718.11530 0.03951
2716.82953 0.03960
2715.54376 0.03970
2714.25799 0.03968
2712.97222 0.03953
2711.68646 0.03932
2710.40069 0.03916
2709.11492 0.03910
2707.82915 0.03912
2706.54338 0.03912
2705.25761 0.03901
2703.97184 0.03875
2702.68607 0.03836
2701.40031 0.03797
2700.11454 0.03777
2698.82877 0.03786
2697.54300 0.03814
2696.25723 0.03847
2694.97146 0.03873
2693.68569 0.03890
2692.39992 0.03897
2691.11415 0.03888
2689.82839 0.03867
2688.54262 0.03848
2687.25685 0.03842
2685.97108 0.03842
2684.68531 0.03826
2683.39954 0.03786
2682.11377 0.03745
2680.82800 0.03725
2679.54224 0.03724
2678.25647 0.03724
2676.97070 0.03718
2675.68493 0.03715
2674.39916 0.03717
2673.11339 0.03715
2671.82762 0.03701
2670.54185 0.03680
2669.25608 0.03662
2667.97032 0.03657
2666.68455 0.03663
2665.39878 0.03675
2664.11301 0.03686
2662.82724 0.03691
2661.54147 0.03692
2660.25570 0.03692
2658.96993 0.03692
2657.68417 0.03685
2656.39840 0.03665
2655.11263 0.03631
2653.82686 0.03587
2652.54109 0.03539
2651.25532 0.03492
2649.96955 0.03456
2648.68378 0.03434
2647.39801 0.03422
2646.11225 0.03420
2644.82648 0.03427
2643.54071 0.03436
2642.25494 0.03445
2640.96917 0.03454
2639.68340 0.03469
2638.39763 0.03474
2637.11186 0.03452
2635.82609 0.03400
2634.54033 0.03337
2633.25456 0.03282
2631.96879 0.03241
2630.68302 0.03219
2629.39725 0.03222
2628.11148 0.03247
2626.82571 0.03276
2625.53994 0.03298
2624.25418 0.03310
2622.96841 0.03303
2621.68264 0.03267
2620.39687 0.03208
2619.11110 0.03159
2617.82533 0.03136
2616.53956 0.03130
2615.25379 0.03122
2613.96802 0.03110
2612.68226 0.03100
2611.39649 0.03091
2610.11072 0.03085
2608.82495 0.03091
2607.53918 0.03111
2606.25341 0.03128
2604.96764 0.03128
2603.68187 0.03115
2602.39611 0.03105
2601.11034 0.03105
2599.82457 0.03106
2598.53880 0.03102
2597.25303 0.03092
2595.96726 0.03083
2594.68149 0.03078
2593.39572 0.03082
2592.10995 0.03102
2590.82419 0.03137
2589.53842 0.03170
2588.25265 0.03170
2586.96688 0.03125
2585.68111 0.03056
2584.39534 0.03000
2583.10957 0.02973
2581.82380 0.02958
2580.53804 0.02935
2579.25227 0.02902
2577.96650 0.02873
2576.68073 0.02853
2575.39496 0.02837
2574.10919 0.02829
2572.82342 0.02839
2571.53765 0.02866
2570.25188 0.02893
2568.96612 0.02911
2567.68035 0.02924
2566.39458 0.02943
2565.10881 0.02968
2563.82304 0.02984
2562.53727 0.02979
2561.25150 0.02950
2559.96573 0.02903
2558.67997 0.02848
2557.39420 0.02801
2556.10843 0.02773
2554.82266 0.02771
2553.53689 0.02791
2552.25112 0.02831
2550.96535 0.02885
2549.67958 0.02938
2548.39381 0.02972
2547.10805 0.02979
2545.82228 0.02967
2544.53651 0.02953
2543.25074 0.02946
2541.96497 0.02953
2540.67920 0.02969
2539.39343 0.02975
2538.10766 0.02956
2536.82190 0.02913
2535.53613 0.02862
2534.25036 0.02818
2532.96459 0.02793
2531.67882 0.02795
2530.39305 0.02819
2529.10728 0.02845
2527.82151 0.02850
2526.53574 0.02821
2525.24998 0.02768
2523.96421 0.02720
2522.67844 0.02708
2521.39267 0.02736
2520.10690 0.02769
2518.82113 0.02775
2517.53536 0.02759
2516.24959 0.02743
2514.96383 0.02731
2513.67806 0.02710
2512.39229 0.02683
2511.10652 0.02682
2509.82075 0.02730
2508.53498 0.02811
2507.24921 0.02871
2505.96344 0.02869
2504.67767 0.02808
2503.39191 0.02731
2502.10614 0.02681
2500.82037 0.02678
2499.53460 0.02719
2498.24883 0.02784
2496.96306 0.02840
2495.67729 0.02852
2494.39152 0.02815
2493.10576 0.02758
2491.81999 0.02723
2490.53422 0.02723
2489.24845 0.02748
2487.96268 0.02782
2486.67691 0.02814
2485.39114 0.02827
2484.10537 0.02807
2482.81960 0.02760
2481.53384 0.02714
2480.24807 0.02698
2478.96230 0.02718
2477.67653 0.02749
2476.39076 0.02763
2475.10499 0.02750
2473.81922 0.02723
2472.53345 0.02698
2471.24769 0.02685
2469.96192 0.02686
2468.67615 0.02703
2467.39038 0.02733
2466.10461 0.02767
2464.81884 0.02800
2463.53307 0.02820
2462.24730 0.02813
2460.96153 0.02769
2459.67577 0.02696
2458.39000 0.02625
2457.10423 0.02586
2455.81846 0.02587
2454.53269 0.02612
2453.24692 0.02640
2451.96115 0.02663
2450.67538 0.02684
2449.38962 0.02699
2448.10385 0.02697
2446.81808 0.02669
2445.53231 0.02623
2444.24654 0.02583
2442.96077 0.02565
2441.67500 0.02559
2440.38923 0.02540
2439.10346 0.02507
2437.81770 0.02487
2436.53193 0.02505
2435.24616 0.02559
2433.96039 0.02619
2432.67462 0.02658
2431.38885 0.02663
2430.10308 0.02638
2428.81731 0.02596
2427.53155 0.02560
2426.24578 0.02546
2424.96001 0.02554
2423.67424 0.02583
2422.38847 0.02629
2421.10270 0.02681
2419.81693 0.02718
2418.53116 0.02722
2417.24539 0.02699
2415.95963 0.02660
2414.67386 0.02621
2413.38809 0.02594
2412.10232 0.02587
2410.81655 0.02590
2409.53078 0.02589
2408.24501 0.02577
2406.95924 0.02564
2405.67347 0.02561
2404.38771 0.02566
2403.10194 0.02565
2401.81617 0.02546
2400.53040 0.02517
2399.24463 0.02488
2397.95886 0.02476
2396.67309 0.02475
2395.38732 0.02482
2394.10156 0.02501
2392.81579 0.02534
2391.53002 0.02579
2390.24425 0.02629
2388.95848 0.02670
2387.67271 0.02689
2386.38694 0.02676
2385.10117 0.02633
2383.81540 0.02583
2382.52964 0.02548
2381.24387 0.02540
2379.95810 0.02552
2378.67233 0.02570
2377.38656 0.02585
2376.10079 0.02592
2374.81502 0.02593
2373.52925 0.02593
2372.24349 0.02599
2370.95772 0.02607
2369.67195 0.02604
2368.38618 0.02585
2367.10041 0.02561
2365.81464 0.02552
2364.52887 0.02572
2363.24310 0.02614
2361.95733 0.02659
2360.67157 0.02688
2359.38580 0.02698
2358.10003 0.02703
2356.81426 0.02711
2355.52849 0.02717
2354.24272 0.02707
2352.95695 0.02679
2351.67118 0.02645
2350.38542 0.02619
2349.09965 0.02605
2347.81388 0.02594
2346.52811 0.02577
2345.24234 0.02556
2343.95657 0.02545
2342.67080 0.02553
2341.38503 0.02571
2340.09926 0.02586
2338.81350 0.02592
2337.52773 0.02589
2336.24196 0.02580
2334.95619 0.02567
2333.67042 0.02558
2332.38465 0.02559
2331.09888 0.02565
2329.81311 0.02568
2328.52735 0.02565
2327.24158 0.02563
2325.95581 0.02562
2324.67004 0.02555
2323.38427 0.02537
2322.09850 0.02516
2320.81273 0.02499
2319.52696 0.02486
2318.24119 0.02470
2316.95543 0.02449
2315.66966 0.02429
2314.38389 0.02415
2313.09812 0.02412
2311.81235 0.02420
2310.52658 0.02436
2309.24081 0.02454
2307.95504 0.02469
2306.66928 0.02475
2305.38351 0.02462
2304.09774 0.02425
2302.81197 0.02371
2301.52620 0.02324
2300.24043 0.02303
2298.95466 0.02307
2297.66889 0.02312
2296.38312 0.02290
2295.09736 0.02235
2293.81159 0.02171
2292.52582 0.02128
2291.24005 0.02120
2289.95428 0.02134
2288.66851 0.02142
2287.38274 0.02127
2286.09697 0.02088
2284.81121 0.02040
2283.52544 0.02004
2282.23967 0.01992
2280.95390 0.02000
2279.66813 0.02019
2278.38236 0.02045
2277.09659 0.02070
2275.81082 0.02070
2274.52505 0.02032
2273.23929 0.01969
2271.95352 0.01919
2270.66775 0.01910
2269.38198 0.01938
2268.09621 0.01975
2266.81044 0.02000
2265.52467 0.02015
2264.23890 0.02033
2262.95314 0.02050
2261.66737 0.02047
2260.38160 0.02012
2259.09583 0.01957
2257.81006 0.01899
2256.52429 0.01853
2255.23852 0.01820
2253.95275 0.01790
2252.66698 0.01744
2251.38122 0.01677
2250.09545 0.01620
2248.80968 0.01622
2247.52391 0.01687
2246.23814 0.01798
2244.95237 0.01893
2243.66660 0.01926
2242.38083 0.01898
2241.09507 0.01842
2239.80930 0.01791
2238.52353 0.01768
2237.23776 0.01789
2235.95199 0.01858
2234.66622 0.01943
2233.38045 0.01987
2232.09468 0.01951
2230.80891 0.01855
2229.52315 0.01753
2228.23738 0.01692
2226.95161 0.01688
2225.66584 0.01734
2224.38007 0.01801
2223.09430 0.01849
2221.80853 0.01859
2220.52276 0.01841
2219.23700 0.01816
2217.95123 0.01792
2216.66546 0.01771
2215.37969 0.01761
2214.09392 0.01754
2212.80815 0.01714
2211.52238 0.01613
2210.23661 0.01482
2208.95084 0.01392
2207.66508 0.01395
2206.37931 0.01462
2205.09354 0.01491
2203.80777 0.01405
2202.52200 0.01236
2201.23623 0.01100
2199.95046 0.01076
2198.66469 0.01128
2197.37893 0.01172
2196.09316 0.01171
2194.80739 0.01143
2193.52162 0.01114
2192.23585 0.01092
2190.95008 0.01073
2189.66431 0.01040
2188.37854 0.00970
2187.09277 0.00880
2185.80701 0.00846
2184.52124 0.00943
2183.23547 0.01150
2181.94970 0.01345
2180.66393 0.01424
2179.37816 0.01404
2178.09239 0.01373
2176.80662 0.01363
2175.52085 0.01328
2174.23509 0.01213
2172.94932 0.01022
2171.66355 0.00825
2170.37778 0.00715
2169.09201 0.00747
2167.80624 0.00875
2166.52047 0.00973
2165.23470 0.00962
2163.94894 0.00892
2162.66317 0.00873
2161.37740 0.00947
2160.09163 0.01061
2158.80586 0.01135
2157.52009 0.01131
2156.23432 0.01063
2154.94855 0.00973
2153.66278 0.00909
2152.37702 0.00897
2151.09125 0.00936
2149.80548 0.00997
2148.51971 0.01047
2147.23394 0.01081
2145.94817 0.01130
2144.66240 0.01221
2143.37663 0.01331
2142.09087 0.01401
2140.80510 0.01399
2139.51933 0.01347
2138.23356 0.01296
2136.94779 0.01276
2135.66202 0.01282
2134.37625 0.01300
2133.09048 0.01329
2131.80471 0.01363
2130.51895 0.01391
2129.23318 0.01406
2127.94741 0.01421
2126.66164 0.01444
2125.37587 0.01463
2124.09010 0.01464
2122.80433 0.01453
2121.51856 0.01453
2120.23280 0.01470
2118.94703 0.01492
2117.66126 0.01496
2116.37549 0.01473
2115.08972 0.01432
2113.80395 0.01402
2112.51818 0.01408
2111.23241 0.01444
2109.94664 0.01470
2108.66088 0.01451
2107.37511 0.01386
2106.08934 0.01299
2104.80357 0.01228
2103.51780 0.01201
2102.23203 0.01227
2100.94626 0.01289
2099.66049 0.01402
2098.37473 0.01456
2097.08896 0.01456
2095.80319 0.01443
2094.51742 0.01433
2093.23165 0.01419
2091.94588 0.01392
2090.66011 0.01350
2089.37434 0.01303
2088.08857 0.01265
2086.80281 0.01257
2085.51704 0.01285
2084.23127 0.01340
2082.94550 0.01395
2081.65973 0.01420
2080.37396 0.01403
2079.08819 0.01356
2077.80242 0.01299
2076.51666 0.01252
2075.23089 0.01224
2073.94512 0.01229
2072.65935 0.01267
2071.37358 0.01324
2070.08781 0.01368
2068.80204 0.01376
2067.51627 0.01351
2066.23050 0.01312
2064.94474 0.01281
2063.65897 0.01269
2062.37320 0.01267
2061.08743 0.01259
2059.80166 0.01227
2058.51589 0.01173
2057.23012 0.01109
2055.94435 0.01051
2054.65859 0.01012
2053.37282 0.01004
2052.08705 0.01036
2050.80128 0.01101
2049.51551 0.01162
2048.22974 0.01179
2046.94397 0.01144
2045.65820 0.01086
2044.37243 0.01036
2043.08667 0.00989
2041.80090 0.00929
2040.51513 0.00855
2039.22936 0.00784
2037.94359 0.00718
2036.65782 0.00651
2035.37205 0.00583
2034.08628 0.00549
2032.80052 0.00597
2031.51475 0.00731
2030.22898 0.00892
2028.94321 0.01000
2027.65744 0.01021
2026.37167 0.00988
2025.08590 0.00955
2023.80013 0.00940
2022.51436 0.00925
2021.22860 0.00900
2019.94283 0.00880
2018.65706 0.00873
2017.37129 0.00868
2016.08552 0.00848
2014.79975 0.00813
2013.51398 0.00789
2012.22821 0.00815
2010.94245 0.00893
2009.65668 0.00974
2008.37091 0.00995
2007.08514 0.00951
2005.79937 0.00907
2004.51360 0.00921
2003.22783 0.00980
2001.94206 0.01035
2000.65629 0.01061
1999.37053 0.01069
1998.08476 0.01076
1996.79899 0.01085
1995.51322 0.01086
1994.22745 0.01076
1992.94168 0.01063
1991.65591 0.01056
1990.37014 0.01041
1989.08438 0.00985
1987.79861 0.00881
1986.51284 0.00775
1985.22707 0.00735
1983.94130 0.00792
1982.65553 0.00914
1981.36976 0.01037
1980.08399 0.01111
1978.79822 0.01117
1977.51246 0.01078
1976.22669 0.01050
1974.94092 0.01096
1973.65515 0.01224
1972.36938 0.01370
1971.08361 0.01453
1969.79784 0.01443
1968.51207 0.01376
1967.22631 0.01308
1965.94054 0.01272
1964.65477 0.01274
1963.36900 0.01303
1962.08323 0.01340
1960.79746 0.01358
1959.51169 0.01332
1958.22592 0.01271
1956.94015 0.01215
1955.65439 0.01202
1954.36862 0.01231
1953.08285 0.01272
1951.79708 0.01298
1950.51131 0.01301
1949.22554 0.01282
1947.93977 0.01253
1946.65400 0.01241
1945.36823 0.01271
1944.08247 0.01344
1942.79670 0.01428
1941.51093 0.01480
1940.22516 0.01481
1938.93939 0.01443
1937.65362 0.01400
1936.36785 0.01378
1935.08208 0.01380
1933.79632 0.01386
1932.51055 0.01380
1931.22478 0.01365
1929.93901 0.01355
1928.65324 0.01362
1927.36747 0.01385
1926.08170 0.01419
1924.79593 0.01451
1923.51016 0.01462
1922.22440 0.01435
1920.93863 0.01380
1919.65286 0.01325
1918.36709 0.01293
1917.08132 0.01282
1915.79555 0.01287
1914.50978 0.01312
1913.22401 0.01360
1911.93825 0.01418
1910.65248 0.01463
1909.36671 0.01482
1908.08094 0.01475
1906.79517 0.01454
1905.50940 0.01435
1904.22363 0.01434
1902.93786 0.01452
1901.65209 0.01481
1900.36633 0.01508
1899.08056 0.01519
1897.79479 0.01509
1896.50902 0.01485
1895.22325 0.01460
1893.93748 0.01443
1892.65171 0.01434
1891.36594 0.01428
1890.08018 0.01426
1888.79441 0.01426
1887.50864 0.01429
1886.22287 0.01437
1884.93710 0.01454
1883.65133 0.01485
1882.36556 0.01519
1881.07979 0.01528
1879.79402 0.01491
1878.50826 0.01424
1877.22249 0.01366
1875.93672 0.01347
1874.65095 0.01363
1873.36518 0.01394
1872.07941 0.01424
1870.79364 0.01452
1869.50787 0.01476
1868.22211 0.01487
1866.93634 0.01483
1865.65057 0.01472
1864.36480 0.01468
1863.07903 0.01476
1861.79326 0.01489
1860.50749 0.01497
1859.22172 0.01500
1857.93595 0.01503
1856.65019 0.01509
1855.36442 0.01516
1854.07865 0.01518
1852.79288 0.01515
1851.50711 0.01511
1850.22134 0.01504
1848.93557 0.01494
1847.64980 0.01484
1846.36404 0.01484
1845.07827 0.01496
1843.79250 0.01510
1842.50673 0.01513
1841.22096 0.01505
1839.93519 0.01496
1838.64942 0.01487
1837.36365 0.01476
1836.07788 0.01462
1834.79212 0.01450
1833.50635 0.01445
1832.22058 0.01446
1830.93481 0.01449
1829.64904 0.01449
1828.36327 0.01448
1827.07750 0.01456
1825.79173 0.01475
1824.50597 0.01500
1823.22020 0.01527
1821.93443 0.01557
1820.64866 0.01588
1819.36289 0.01607
1818.07712 0.01605
1816.79135 0.01584
1815.50558 0.01555
1814.21981 0.01532
1812.93405 0.01515
1811.64828 0.01499
1810.36251 0.01483
1809.07674 0.01473
1807.79097 0.01473
1806.50520 0.01474
1805.21943 0.01471
1803.93366 0.01464
1802.64790 0.01464
1801.36213 0.01471
1800.07636 0.01481
1798.79059 0.01488
1797.50482 0.01491
1796.21905 0.01495
1794.93328 0.01503
1793.64751 0.01517
1792.36174 0.01531
1791.07598 0.01534
1789.79021 0.01527
1788.50444 0.01514
1787.21867 0.01504
1785.93290 0.01498
1784.64713 0.01493
1783.36136 0.01487
1782.07559 0.01484
1780.78983 0.01483
1779.50406 0.01484
1778.21829 0.01483
1776.93252 0.01484
1775.64675 0.01491
1774.36098 0.01508
1773.07521 0.01526
1771.78944 0.01535
1770.50367 0.01536
1769.21791 0.01537
1767.93214 0.01542
1766.64637 0.01545
1765.36060 0.01544
1764.07483 0.01542
1762.78906 0.01538
1761.50329 0.01530
1760.21752 0.01522
1758.93176 0.01521
1757.64599 0.01532
1756.36022 0.01546
1755.07445 0.01555
1753.78868 0.01557
1752.50291 0.01554
1751.21714 0.01544
1749.93137 0.01530
1748.64560 0.01520
1747.35984 0.01519
1746.07407 0.01527
1744.78830 0.01533
1743.50253 0.01535
1742.21676 0.01535
1740.93099 0.01535
1739.64522 0.01534
1738.35945 0.01531
1737.07369 0.01536
1735.78792 0.01558
1734.50215 0.01587
1733.21638 0.01606
1731.93061 0.01608
1730.64484 0.01605
1729.35907 0.01603
1728.07330 0.01606
1726.78753 0.01614
1725.50177 0.01629
1724.21600 0.01646
1722.93023 0.01663
1721.64446 0.01679
1720.35869 0.01702
1719.07292 0.01730
1717.78715 0.01758
1716.50138 0.01783
1715.21561 0.01807
1713.92985 0.01834
1712.64408 0.01864
1711.35831 0.01895
1710.07254 0.01927
1708.78677 0.01965
1707.50100 0.02009
1706.21523 0.02059
1704.92946 0.02111
1703.64370 0.02174
1702.35793 0.02262
1701.07216 0.02367
1699.78639 0.02464
1698.50062 0.02543
1697.21485 0.02615
1695.92908 0.02685
1694.64331 0.02745
1693.35754 0.02803
1692.07178 0.02871
1690.78601 0.02950
1689.50024 0.03032
1688.21447 0.03113
1686.92870 0.03207
1685.64293 0.03316
1684.35716 0.03424
1683.07139 0.03512
1681.78563 0.03579
1680.49986 0.03638
1679.21409 0.03703
1677.92832 0.03780
1676.64255 0.03868
1675.35678 0.03958
1674.07101 0.04040
1672.78524 0.04118
1671.49947 0.04204
1670.21371 0.04295
1668.92794 0.04384
1667.64217 0.04462
1666.35640 0.04533
1665.07063 0.04603
1663.78486 0.04673
1662.49909 0.04740
1661.21332 0.04804
1659.92756 0.04864
1658.64179 0.04922
1657.35602 0.04980
1656.07025 0.05046
1654.78448 0.05126
1653.49871 0.05205
1652.21294 0.05255
1650.92717 0.05273
1649.64140 0.05282
1648.35564 0.05304
1647.06987 0.05338
1645.78410 0.05369
1644.49833 0.05387
1643.21256 0.05390
1641.92679 0.05382
1640.64102 0.05370
1639.35525 0.05361
1638.06949 0.05361
1636.78372 0.05367
1635.49795 0.05362
1634.21218 0.05331
1632.92641 0.05280
1631.64064 0.05224
1630.35487 0.05168
1629.06910 0.05111
1627.78333 0.05053
1626.49757 0.04996
1625.21180 0.04944
1623.92603 0.04893
1622.64026 0.04836
1621.35449 0.04776
1620.06872 0.04720
1618.78295 0.04679
1617.49718 0.04647
1616.21142 0.04609
1614.92565 0.04561
1613.63988 0.04509
1612.35411 0.04466
1611.06834 0.04431
1609.78257 0.04401
1608.49680 0.04370
1607.21103 0.04335
1605.92526 0.04302
1604.63950 0.04278
1603.35373 0.04264
1602.06796 0.04256
1600.78219 0.04248
1599.49642 0.04237
1598.21065 0.04226
1596.92488 0.04214
1595.63911 0.04204
1594.35335 0.04193
1593.06758 0.04183
1591.78181 0.04170
1590.49604 0.04154
1589.21027 0.04138
1587.92450 0.04123
1586.63873 0.04111
1585.35296 0.04099
1584.06719 0.04081
1582.78143 0.04059
1581.49566 0.04036
1580.20989 0.04019
1578.92412 0.04018
1577.63835 0.04039
1576.35258 0.04068
1575.06681 0.04091
1573.78104 0.04107
1572.49528 0.04130
1571.20951 0.04169
1569.92374 0.04214
1568.63797 0.04253
1567.35220 0.04279
1566.06643 0.04297
1564.78066 0.04311
1563.49489 0.04324
1562.20912 0.04345
1560.92336 0.04381
1559.63759 0.04422
1558.35182 0.04451
1557.06605 0.04464
1555.78028 0.04473
1554.49451 0.04483
1553.20874 0.04487
1551.92297 0.04480
1550.63721 0.04464
1549.35144 0.04440
1548.06567 0.04411
1546.77990 0.04384
1545.49413 0.04358
1544.20836 0.04334
1542.92259 0.04316
1541.63682 0.04311
1540.35105 0.04320
1539.06529 0.04335
1537.77952 0.04350
1536.49375 0.04373
1535.20798 0.04410
1533.92221 0.04453
1532.63644 0.04491
1531.35067 0.04516
1530.06490 0.04533
1528.77914 0.04549
1527.49337 0.04570
1526.20760 0.04596
1524.92183 0.04626
1523.63606 0.04660
1522.35029 0.04697
1521.06452 0.04730
1519.77875 0.04754
1518.49298 0.04779
1517.20722 0.04811
1515.92145 0.04849
1514.63568 0.04888
1513.34991 0.04928
1512.06414 0.04968
1510.77837 0.05011
1509.49260 0.05062
1508.20683 0.05125
1506.92107 0.05188
1505.63530 0.05235
1504.34953 0.05264
1503.06376 0.05289
1501.77799 0.05321
1500.49222 0.05358
1499.20645 0.05395
1497.92068 0.05428
1496.63491 0.05454
1495.34915 0.05471
1494.06338 0.05480
1492.77761 0.05489
1491.49184 0.05506
1490.20607 0.05531
1488.92030 0.05564
1487.63453 0.05599
1486.34876 0.05637
1485.06299 0.05675
1483.77723 0.05717
1482.49146 0.05763
1481.20569 0.05812
1479.91992 0.05861
1478.63415 0.05902
1477.34838 0.05933
1476.06261 0.05956
1474.77684 0.05981
1473.49108 0.06018
1472.20531 0.06067
1470.91954 0.06120
1469.63377 0.06171
1468.34800 0.06218
1467.06223 0.06264
1465.77646 0.06309
1464.49069 0.06356
1463.20492 0.06410
1461.91916 0.06475
1460.63339 0.06557
1459.34762 0.06653
1458.06185 0.06756
1456.77608 0.06848
1455.49031 0.06919
1454.20454 0.06972
1452.91877 0.07016
1451.63301 0.07053
1450.34724 0.07082
1449.06147 0.07106
1447.77570 0.07125
1446.48993 0.07134
1445.20416 0.07133
1443.91839 0.07123
1442.63262 0.07107
1441.34685 0.07091
1440.06109 0.07076
1438.77532 0.07070
1437.48955 0.07071
1436.20378 0.07075
1434.91801 0.07080
1433.63224 0.07091
1432.34647 0.07111
1431.06070 0.07144
1429.77494 0.07190
1428.48917 0.07247
1427.20340 0.07311
1425.91763 0.07374
1424.63186 0.07433
1423.34609 0.07490
1422.06032 0.07553
1420.77455 0.07624
1419.48878 0.07694
1418.20302 0.07752
1416.91725 0.07795
1415.63148 0.07829
1414.34571 0.07855
1413.05994 0.07873
1411.77417 0.07879
1410.48840 0.07875
1409.20263 0.07864
1407.91687 0.07846
1406.63110 0.07820
1405.34533 0.07784
1404.05956 0.07734
1402.77379 0.07670
1401.48802 0.07594
1400.20225 0.07509
1398.91648 0.07416
1397.63071 0.07316
1396.34495 0.07208
1395.05918 0.07094
1393.77341 0.06978
1392.48764 0.06867
1391.20187 0.06765
1389.91610 0.06671
1388.63033 0.06577
1387.34456 0.06478
1386.05880 0.06372
1384.77303 0.06263
1383.48726 0.06156
1382.20149 0.06052
1380.91572 0.05949
1379.62995 0.05845
1378.34418 0.05737
1377.05841 0.05626
1375.77264 0.05509
1374.48688 0.05388
1373.20111 0.05264
1371.91534 0.05142
1370.62957 0.05025
1369.34380 0.04915
1368.05803 0.04809
1366.77226 0.04707
1365.48649 0.04610
1364.20073 0.04518
1362.91496 0.04430
1361.62919 0.04342
1360.34342 0.04256
1359.05765 0.04176
1357.77188 0.04107
1356.48611 0.04048
1355.20034 0.03993
1353.91457 0.03939
1352.62881 0.03887
1351.34304 0.03839
1350.05727 0.03797
1348.77150 0.03760
1347.48573 0.03724
1346.19996 0.03690
1344.91419 0.03658
1343.62842 0.03628
1342.34266 0.03599
1341.05689 0.03570
1339.77112 0.03539
1338.48535 0.03504
1337.19958 0.03469
1335.91381 0.03434
1334.62804 0.03401
1333.34227 0.03368
1332.05650 0.03334
1330.77074 0.03298
1329.48497 0.03264
1328.19920 0.03232
1326.91343 0.03203
1325.62766 0.03175
1324.34189 0.03149
1323.05612 0.03127
1321.77035 0.03105
1320.48459 0.03081
1319.19882 0.03054
1317.91305 0.03026
1316.62728 0.03002
1315.34151 0.02979
1314.05574 0.02955
1312.76997 0.02926
1311.48420 0.02894
1310.19843 0.02862
1308.91267 0.02834
1307.62690 0.02809
1306.34113 0.02787
1305.05536 0.02765
1303.76959 0.02747
1302.48382 0.02734
1301.19805 0.02724
1299.91228 0.02713
1298.62652 0.02698
1297.34075 0.02681
1296.05498 0.02664
1294.76921 0.02650
1293.48344 0.02637
1292.19767 0.02627
1290.91190 0.02620
1289.62613 0.02613
1288.34036 0.02605
1287.05460 0.02595
1285.76883 0.02588
1284.48306 0.02583
1283.19729 0.02578
1281.91152 0.02568
1280.62575 0.02556
1279.33998 0.02543
1278.05421 0.02531
1276.76845 0.02523
1275.48268 0.02516
1274.19691 0.02510
1272.91114 0.02500
1271.62537 0.02486
1270.33960 0.02471
1269.05383 0.02459
1267.76806 0.02450
1266.48229 0.02441
1265.19653 0.02434
1263.91076 0.02431
1262.62499 0.02436
1261.33922 0.02446
1260.05345 0.02455
1258.76768 0.02458
1257.48191 0.02454
1256.19614 0.02448
1254.91037 0.02441
1253.62461 0.02438
1252.33884 0.02438
1251.05307 0.02440
1249.76730 0.02444
1248.48153 0.02448
1247.19576 0.02451
1245.90999 0.02453
1244.62422 0.02453
1243.33846 0.02454
1242.05269 0.02453
1240.76692 0.02448
1239.48115 0.02436
1238.19538 0.02420
1236.90961 0.02405
1235.62384 0.02394
1234.33807 0.02388
1233.05230 0.02384
1231.76654 0.02381
1230.48077 0.02378
1229.19500 0.02374
1227.90923 0.02365
1226.62346 0.02351
1225.33769 0.02329
1224.05192 0.02302
1222.76615 0.02276
1221.48039 0.02253
1220.19462 0.02236
1218.90885 0.02223
1217.62308 0.02211
1216.33731 0.02202
1215.05154 0.02197
1213.76577 0.02197
1212.48000 0.02198
1211.19423 0.02200
1209.90847 0.02201
1208.62270 0.02203
1207.33693 0.02206
1206.05116 0.02210
1204.76539 0.02214
1203.47962 0.02219
1202.19385 0.02225
1200.90808 0.02227
1199.62232 0.02225
1198.33655 0.02231
1197.05078 0.02235
1195.76501 0.02236
1194.47924 0.02234
1193.19347 0.02229
1191.90770 0.02220
1190.62193 0.02209
1189.33616 0.02202
1188.05040 0.02201
1186.76463 0.02202
1185.47886 0.02198
1184.19309 0.02187
1182.90732 0.02175
1181.62155 0.02170
1180.33578 0.02171
1179.05001 0.02171
1177.76425 0.02169
1176.47848 0.02168
1175.19271 0.02175
1173.90694 0.02186
1172.62117 0.02196
1171.33540 0.02200
1170.04963 0.02200
1168.76386 0.02199
1167.47809 0.02201
1166.19233 0.02207
1164.90656 0.02216
1163.62079 0.02228
1162.33502 0.02238
1161.04925 0.02244
1159.76348 0.02246
1158.47771 0.02246
1157.19194 0.02245
1155.90618 0.02242
1154.62041 0.02240
1153.33464 0.02244
1152.04887 0.02255
1150.76310 0.02275
1149.47733 0.02301
1148.19156 0.02334
1146.90579 0.02370
1145.62002 0.02406
1144.33426 0.02441
1143.04849 0.02477
1141.76272 0.02519
1140.47695 0.02567
1139.19118 0.02620
1137.90541 0.02675
1136.61964 0.02738
1135.33387 0.02815
1134.04811 0.02907
1132.76234 0.03008
1131.47657 0.03112
1130.19080 0.03223
1128.90503 0.03347
1127.61926 0.03489
1126.33349 0.03647
1125.04772 0.03813
1123.76195 0.03984
1122.47619 0.04160
1121.19042 0.04345
1119.90465 0.04541
1118.61888 0.04750
1117.33311 0.04965
1116.04734 0.05180
1114.76157 0.05388
1113.47580 0.05586
1112.19004 0.05780
1110.90427 0.05978
1109.61850 0.06184
1108.33273 0.06390
1107.04696 0.06590
1105.76119 0.06778
1104.47542 0.06958
1103.18965 0.07128
1101.90388 0.07290
1100.61812 0.07446
1099.33235 0.07599
1098.04658 0.07752
1096.76081 0.07904
1095.47504 0.08053
1094.18927 0.08192
1092.90350 0.08317
1091.61773 0.08430
1090.33197 0.08534
1089.04620 0.08632
1087.76043 0.08724
1086.47466 0.08816
1085.18889 0.08916
1083.90312 0.09028
1082.61735 0.09149
1081.33158 0.09274
1080.04581 0.09402
1078.76005 0.09534
1077.47428 0.09674
1076.18851 0.09820
1074.90274 0.09970
1073.61697 0.10127
1072.33120 0.10295
1071.04543 0.10476
1069.75966 0.10662
1068.47390 0.10848
1067.18813 0.11028
1065.90236 0.11208
1064.61659 0.11393
1063.33082 0.11583
1062.04505 0.11769
1060.75928 0.11944
1059.47351 0.12112
1058.18774 0.12283
1056.90198 0.12462
1055.61621 0.12645
1054.33044 0.12825
1053.04467 0.13000
1051.75890 0.13174
1050.47313 0.13349
1049.18736 0.13522
1047.90159 0.13697
1046.61583 0.13874
1045.33006 0.14058
1044.04429 0.14247
1042.75852 0.14440
1041.47275 0.14636
1040.18698 0.14833
1038.90121 0.15024
1037.61544 0.15205
1036.32967 0.15377
1035.04391 0.15550
1033.75814 0.15727
1032.47237 0.15901
1031.18660 0.16060
1029.90083 0.16199
1028.61506 0.16321
1027.32929 0.16430
1026.04352 0.16532
1024.75775 0.16626
1023.47199 0.16707
1022.18622 0.16766
1020.90045 0.16797
1019.61468 0.16795
1018.32891 0.16764
1017.04314 0.16707
1015.75737 0.16631
1014.47160 0.16540
1013.18584 0.16432
1011.90007 0.16306
1010.61430 0.16161
1009.32853 0.15995
1008.04276 0.15809
1006.75699 0.15602
1005.47122 0.15376
1004.18545 0.15135
1002.89968 0.14880
1001.61392 0.14611
1000.32815 0.14327
999.04238 0.14031
997.75661 0.13724
996.47084 0.13411
995.18507 0.13096
993.89930 0.12785
992.61353 0.12479
991.32777 0.12174
990.04200 0.11865
988.75623 0.11557
987.47046 0.11260
986.18469 0.10980
984.89892 0.10713
983.61315 0.10447
982.32738 0.10179
981.04161 0.09914
979.75585 0.09658
978.47008 0.09418
977.18431 0.09197
975.89854 0.08998
974.61277 0.08818
973.32700 0.08654
972.04123 0.08505
970.75546 0.08378
969.46970 0.08282
968.18393 0.08225
966.89816 0.08204
965.61239 0.08204
964.32662 0.08209
963.04085 0.08205
961.75508 0.08188
960.46931 0.08154
959.18354 0.08095
957.89778 0.08005
956.61201 0.07893
955.32624 0.07772
954.04047 0.07652
952.75470 0.07529
951.46893 0.07399
950.18316 0.07263
948.89739 0.07128
947.61163 0.06999
946.32586 0.06874
945.04009 0.06750
943.75432 0.06626
942.46855 0.06501
941.18278 0.06376
939.89701 0.06251
938.61124 0.06131
937.32547 0.06018
936.03971 0.05912
934.75394 0.05817
933.46817 0.05732
932.18240 0.05659
930.89663 0.05589
929.61086 0.05516
928.32509 0.05439
927.03932 0.05363
925.75356 0.05290
924.46779 0.05219
923.18202 0.05147
921.89625 0.05079
920.61048 0.05020
919.32471 0.04967
918.03894 0.04917
916.75317 0.04869
915.46740 0.04823
914.18164 0.04780
912.89587 0.04741
911.61010 0.04705
910.32433 0.04663
909.03856 0.04607
907.75279 0.04538
906.46702 0.04471
905.18125 0.04419
903.89549 0.04379
902.60972 0.04341
901.32395 0.04298
900.03818 0.04253
898.75241 0.04211
897.46664 0.04177
896.18087 0.04148
894.89510 0.04125
893.60933 0.04105
892.32357 0.04083
891.03780 0.04055
889.75203 0.04025
888.46626 0.04007
887.18049 0.04012
885.89472 0.04048
884.60895 0.04118
883.32318 0.04230
882.03742 0.04385
880.75165 0.04563
879.46588 0.04732
878.18011 0.04876
876.89434 0.05001
875.60857 0.05125
874.32280 0.05248
873.03703 0.05352
871.75126 0.05412
870.46550 0.05416
869.17973 0.05370
867.89396 0.05284
866.60819 0.05169
865.32242 0.05032
864.03665 0.04881
862.75088 0.04726
861.46511 0.04575
860.17935 0.04436
858.89358 0.04313
857.60781 0.04206
856.32204 0.04115
855.03627 0.04039
853.75050 0.03978
852.46473 0.03927
851.17896 0.03883
849.89319 0.03843
848.60743 0.03804
847.32166 0.03765
846.03589 0.03731
844.75012 0.03705
843.46435 0.03687
842.17858 0.03671
840.89281 0.03649
839.60704 0.03621
838.32128 0.03591
837.03551 0.03566
835.74974 0.03547
834.46397 0.03529
833.17820 0.03508
831.89243 0.03482
830.60666 0.03454
829.32089 0.03429
828.03512 0.03405
826.74936 0.03384
825.46359 0.03367
824.17782 0.03357
822.89205 0.03352
821.60628 0.03351
820.32051 0.03349
819.03474 0.03342
817.74897 0.03335
816.46321 0.03334
815.17744 0.03342
813.89167 0.03351
812.60590 0.03353
811.32013 0.03347
810.03436 0.03338
808.74859 0.03333
807.46282 0.03334
806.17705 0.03339
804.89129 0.03341
803.60552 0.03341
802.31975 0.03341
801.03398 0.03344
799.74821 0.03349
798.46244 0.03349
797.17667 0.03344
795.89090 0.03338
794.60513 0.03332
793.31937 0.03325
792.03360 0.03319
790.74783 0.03318
789.46206 0.03323
788.17629 0.03331
786.89052 0.03336
785.60475 0.03338
784.31898 0.03335
783.03322 0.03327
781.74745 0.03311
780.46168 0.03294
779.17591 0.03286
777.89014 0.03290
776.60437 0.03300
775.31860 0.03303
774.03283 0.03294
772.74706 0.03280
771.46130 0.03273
770.17553 0.03272
768.88976 0.03270
767.60399 0.03263
766.31822 0.03255
765.03245 0.03251
763.74668 0.03250
762.46091 0.03245
761.17515 0.03239
759.88938 0.03240
758.60361 0.03254
757.31784 0.03272
756.03207 0.03283
754.74630 0.03282
753.46053 0.03273
752.17476 0.03260
750.88899 0.03247
749.60323 0.03234
748.31746 0.03221
747.03169 0.03208
745.74592 0.03200
744.46015 0.03200
743.17438 0.03203
741.88861 0.03204
740.60284 0.03196
739.31708 0.03179
738.03131 0.03164
736.74554 0.03160
735.45977 0.03166
734.17400 0.03174
732.88823 0.03177
731.60246 0.03174
730.31669 0.03164
729.03092 0.03152
727.74516 0.03143
726.45939 0.03140
725.17362 0.03145
723.88785 0.03148
722.60208 0.03157
721.31631 0.03166
720.03054 0.03170
718.74477 0.03178
717.45901 0.03192
716.17324 0.03209
714.88747 0.03218
713.60170 0.03217
712.31593 0.03206
711.03016 0.03193
709.74439 0.03182
708.45862 0.03172
707.17285 0.03162
705.88709 0.03150
704.60132 0.03137
703.31555 0.03126
702.02978 0.03118
700.74401 0.03114
699.45824 0.03116
698.17247 0.03124
696.88670 0.03137
695.60094 0.03150
694.31517 0.03158
693.02940 0.03159
691.74363 0.03155
690.45786 0.03150
689.17209 0.03145
687.88632 0.03142
686.60055 0.03137
685.31478 0.03126
684.02902 0.03107
682.74325 0.03084
681.45748 0.03063
680.17171 0.03047
678.88594 0.03036
677.60017 0.03027
676.31440 0.03020
675.02863 0.03017
673.74287 0.03021
672.45710 0.03033
671.17133 0.03048
669.88556 0.03064
668.59979 0.03075
667.31402 0.03077
666.02825 0.03067
664.74248 0.03046
663.45671 0.03020
662.17095 0.02993
660.88518 0.02970
659.59941 0.02954
658.31364 0.02946
657.02787 0.02947
655.74210 0.02952
654.45633 0.02953
653.17056 0.02947
651.88480 0.02934
650.59903 0.02919
649.31326 0.02909
648.02749 0.02907
646.74172 0.02911
645.45595 0.02917
644.17018 0.02920
642.88441 0.02915
641.59864 0.02901
640.31288 0.02880
639.02711 0.02860
637.74134 0.02847
636.45557 0.02842
635.16980 0.02842
633.88403 0.02839
632.59826 0.02830
631.31249 0.02825
630.02673 0.02867
628.74096 0.02946
627.45519 0.02937
626.16942 0.03104
624.88365 0.03409
623.59788 0.03714
622.31211 0.03909
621.02634 0.03953
619.74057 0.03913
618.45481 0.03896
617.16904 0.03936
615.88327 0.03999
614.59750 0.04080
613.31173 0.04258
612.02596 0.04642
610.74019 0.05211
609.45442 0.05772
608.16866 0.06154
606.88289 0.06400
605.59712 0.06662
604.31135 0.06989
603.02558 0.07283
601.73981 0.07424
600.45404 0.07379
599.16827 0.07200
597.88250 0.06955
596.59674 0.06700
595.31097 0.06470
594.02520 0.06286
592.73943 0.06153
591.45366 0.06062
590.16789 0.06002
588.88212 0.05970
587.59635 0.05975
586.31059 0.06019
585.02482 0.06101
583.73905 0.06212
582.45328 0.06344
581.16751 0.06485
579.88174 0.06632
578.59597 0.06785
577.31020 0.06945
576.02443 0.07104
574.73867 0.07250
573.45290 0.07377
572.16713 0.07492
570.88136 0.07618
569.59559 0.07775
568.30982 0.07971
567.02405 0.08195
565.73828 0.08417
564.45251 0.08607
563.16675 0.08741
561.88098 0.08799
560.59521 0.08775
559.30944 0.08668
558.02367 0.08489
556.73790 0.08257
555.45213 0.07988
554.16636 0.07699
552.88060 0.07404
551.59483 0.07112
550.30906 0.06835
549.02329 0.06582
547.73752 0.06355
546.45175 0.06156
545.16598 0.05985
543.88021 0.05840
542.59444 0.05714
541.30868 0.05595
540.02291 0.05475
538.73714 0.05357
537.45137 0.05244
536.16560 0.05135
534.87983 0.05026
533.59406 0.04918
532.30829 0.04817
531.02253 0.04729
529.73676 0.04656
528.45099 0.04597
527.16522 0.04549
525.87945 0.04503
524.59368 0.04452
523.30791 0.04394
522.02214 0.04331
520.73637 0.04269
519.45061 0.04212
518.16484 0.04160
516.87907 0.04110
515.59330 0.04062
514.30753 0.04017
513.02176 0.03973
511.73599 0.03927
510.45022 0.03875
509.16446 0.03817
507.87869 0.03759
506.59292 0.03713
505.30715 0.03689
504.02138 0.03678
502.73561 0.03662
501.44984 0.03629
500.16407 0.03585
498.87830 0.03546
497.59254 0.03522
496.30677 0.03505
495.02100 0.03483
493.73523 0.03456
492.44946 0.03431
491.16369 0.03415
489.87792 0.03407
488.59215 0.03401
487.30639 0.03393
486.02062 0.03383
484.73485 0.03373
483.44908 0.03364
482.16331 0.03362
480.87754 0.03371
479.59177 0.03389
478.30600 0.03411
477.02023 0.03434
475.73447 0.03456
474.44870 0.03477
473.16293 0.03500
471.87716 0.03521
470.59139 0.03540
469.30562 0.03555
468.01985 0.03564
466.73408 0.03563
465.44832 0.03549
464.16255 0.03525
462.87678 0.03493
461.59101 0.03456
460.30524 0.03418
459.01947 0.03381
457.73370 0.03347
456.44793 0.03316
455.16216 0.03285
453.87640 0.03255
452.59063 0.03222
451.30486 0.03185
450.01909 0.03143
448.73332 0.03100
447.44755 0.03058
446.16178 0.03020
444.87601 0.02989
443.59025 0.02967
442.30448 0.02949
441.01871 0.02928
439.73294 0.02898
438.44717 0.02867
437.16140 0.02843
435.87563 0.02830
434.58986 0.02827
433.30409 0.02825
432.01833 0.02820
430.73256 0.02809
429.44679 0.02789
428.16102 0.02762
426.87525 0.02734
425.58948 0.02710
424.30371 0.02690
423.01794 0.02672
421.73218 0.02654
420.44641 0.02637
419.16064 0.02617
417.87487 0.02591
416.58910 0.02557
415.30333 0.02521
414.01756 0.02493
412.73179 0.02475
411.44602 0.02465
410.16026 0.02460
408.87449 0.02452
407.58872 0.02437
406.30295 0.02415
405.01718 0.02390
403.73141 0.02368
402.44564 0.02353
401.15987 0.02345
399.87411 0.02343
