3997.45528	0.06004
3996.16951	0.05986
3994.88374	0.05930
3993.59798	0.05875
3992.31221	0.05869
3991.02644	0.05893
3989.74067	0.05878
3988.45490	0.05779
3987.16913	0.05620
3985.88336	0.05463
3984.59759	0.05353
3983.31183	0.05291
3982.02606	0.05263
3980.74029	0.05272
3979.45452	0.05333
3978.16875	0.05431
3976.88298	0.05512
3975.59721	0.05530
3974.31144	0.05498
3973.02567	0.05486
3971.73991	0.05551
3970.45414	0.05681
3969.16837	0.05806
3967.88260	0.05858
3966.59683	0.05834
3965.31106	0.05783
3964.02529	0.05761
3962.73952	0.05785
3961.45376	0.05827
3960.16799	0.05832
3958.88222	0.05765
3957.59645	0.05646
3956.31068	0.05537
3955.02491	0.05485
3953.73914	0.05486
3952.45337	0.05511
3951.16760	0.05551
3949.88184	0.05606
3948.59607	0.05656
3947.31030	0.05663
3946.02453	0.05619
3944.73876	0.05568
3943.45299	0.05557
3942.16722	0.05587
3940.88145	0.05617
3939.59569	0.05618
3938.30992	0.05598
3937.02415	0.05592
3935.73838	0.05618
3934.45261	0.05664
3933.16684	0.05696
3931.88107	0.05697
3930.59530	0.05676
3929.30953	0.05656
3928.02377	0.05642
3926.73800	0.05617
3925.45223	0.05570
3924.16646	0.05526
3922.88069	0.05534
3921.59492	0.05621
3920.30915	0.05744
3919.02338	0.05830
3917.73762	0.05842
3916.45185	0.05811
3915.16608	0.05792
3913.88031	0.05798
3912.59454	0.05799
3911.30877	0.05765
3910.02300	0.05702
3908.73723	0.05642
3907.45146	0.05614
3906.16570	0.05620
3904.87993	0.05637
3903.59416	0.05639
3902.30839	0.05633
3901.02262	0.05643
3899.73685	0.05675
3898.45108	0.05703
3897.16531	0.05701
3895.87955	0.05675
3894.59378	0.05639
3893.30801	0.05596
3892.02224	0.05530
3890.73647	0.05448
3889.45070	0.05395
3888.16493	0.05423
3886.87916	0.05518
3885.59339	0.05611
3884.30763	0.05651
3883.02186	0.05643
3881.73609	0.05600
3880.45032	0.05517
3879.16455	0.05402
3877.87878	0.05288
3876.59301	0.05206
3875.30724	0.05147
3874.02148	0.05093
3872.73571	0.05053
3871.44994	0.05064
3870.16417	0.05139
3868.87840	0.05255
3867.59263	0.05372
3866.30686	0.05445
3865.02109	0.05452
3863.73532	0.05406
3862.44956	0.05335
3861.16379	0.05259
3859.87802	0.05188
3858.59225	0.05140
3857.30648	0.05135
3856.02071	0.05182
3854.73494	0.05265
3853.44917	0.05340
3852.16341	0.05366
3850.87764	0.05331
3849.59187	0.05265
3848.30610	0.05203
3847.02033	0.05165
3845.73456	0.05142
3844.44879	0.05120
3843.16302	0.05095
3841.87725	0.05077
3840.59149	0.05084
3839.30572	0.05116
3838.01995	0.05147
3836.73418	0.05159
3835.44841	0.05179
3834.16264	0.05246
3832.87687	0.05352
3831.59110	0.05446
3830.30534	0.05489
3829.01957	0.05480
3827.73380	0.05433
3826.44803	0.05355
3825.16226	0.05267
3823.87649	0.05205
3822.59072	0.05172
3821.30495	0.05134
3820.01918	0.05078
3818.73342	0.05052
3817.44765	0.05096
3816.16188	0.05177
3814.87611	0.05228
3813.59034	0.05233
3812.30457	0.05233
3811.01880	0.05271
3809.73303	0.05362
3808.44726	0.05481
3807.16150	0.05569
3805.87573	0.05579
3804.58996	0.05512
3803.30419	0.05402
3802.01842	0.05273
3800.73265	0.05137
3799.44688	0.05023
3798.16111	0.04955
3796.87535	0.04924
3795.58958	0.04901
3794.30381	0.04892
3793.01804	0.04925
3791.73227	0.05000
3790.44650	0.05072
3789.16073	0.05085
3787.87496	0.05037
3786.58919	0.04984
3785.30343	0.04989
3784.01766	0.05054
3782.73189	0.05123
3781.44612	0.05134
3780.16035	0.05071
3778.87458	0.04963
3777.58881	0.04857
3776.30304	0.04804
3775.01728	0.04836
3773.73151	0.04949
3772.44574	0.05078
3771.15997	0.05140
3769.87420	0.05100
3768.58843	0.05008
3767.30266	0.04954
3766.01689	0.04978
3764.73112	0.05041
3763.44536	0.05074
3762.15959	0.05050
3760.87382	0.05002
3759.58805	0.04985
3758.30228	0.05032
3757.01651	0.05126
3755.73074	0.05217
3754.44497	0.05261
3753.15921	0.05230
3751.87344	0.05127
3750.58767	0.04989
3749.30190	0.04864
3748.01613	0.04800
3746.73036	0.04828
3745.44459	0.04924
3744.15882	0.05008
3742.87305	0.05027
3741.58729	0.05007
3740.30152	0.04999
3739.01575	0.05032
3737.72998	0.05096
3736.44421	0.05150
3735.15844	0.05158
3733.87267	0.05126
3732.58690	0.05071
3731.30114	0.05001
3730.01537	0.04936
3728.72960	0.04907
3727.44383	0.04916
3726.15806	0.04922
3724.87229	0.04883
3723.58652	0.04796
3722.30075	0.04701
3721.01498	0.04655
3719.72922	0.04702
3718.44345	0.04822
3717.15768	0.04952
3715.87191	0.05035
3714.58614	0.05069
3713.30037	0.05076
3712.01460	0.05069
3710.72883	0.05054
3709.44307	0.05028
3708.15730	0.04974
3706.87153	0.04874
3705.58576	0.04734
3704.29999	0.04588
3703.01422	0.04477
3701.72845	0.04423
3700.44268	0.04419
3699.15691	0.04440
3697.87115	0.04459
3696.58538	0.04465
3695.29961	0.04480
3694.01384	0.04538
3692.72807	0.04648
3691.44230	0.04794
3690.15653	0.04935
3688.87076	0.05004
3687.58500	0.04973
3686.29923	0.04892
3685.01346	0.04834
3683.72769	0.04825
3682.44192	0.04842
3681.15615	0.04845
3679.87038	0.04821
3678.58461	0.04799
3677.29884	0.04810
3676.01308	0.04851
3674.72731	0.04883
3673.44154	0.04871
3672.15577	0.04819
3670.87000	0.04757
3669.58423	0.04729
3668.29846	0.04756
3667.01269	0.04799
3665.72693	0.04793
3664.44116	0.04726
3663.15539	0.04655
3661.86962	0.04661
3660.58385	0.04772
3659.29808	0.04945
3658.01231	0.05091
3656.72654	0.05138
3655.44077	0.05082
3654.15501	0.04979
3652.86924	0.04872
3651.58347	0.04769
3650.29770	0.04677
3649.01193	0.04636
3647.72616	0.04675
3646.44039	0.04755
3645.15462	0.04803
3643.86886	0.04788
3642.58309	0.04767
3641.29732	0.04812
3640.01155	0.04917
3638.72578	0.04990
3637.44001	0.04939
3636.15424	0.04766
3634.86847	0.04564
3633.58270	0.04448
3632.29694	0.04485
3631.01117	0.04661
3629.72540	0.04875
3628.43963	0.05016
3627.15386	0.05047
3625.86809	0.05024
3624.58232	0.05018
3623.29655	0.05053
3622.01079	0.05105
3620.72502	0.05138
3619.43925	0.05131
3618.15348	0.05089
3616.86771	0.05029
3615.58194	0.04977
3614.29617	0.04951
3613.01040	0.04956
3611.72463	0.04988
3610.43887	0.05050
3609.15310	0.05144
3607.86733	0.05246
3606.58156	0.05303
3605.29579	0.05278
3604.01002	0.05196
3602.72425	0.05125
3601.43848	0.05102
3600.15272	0.05112
3598.86695	0.05127
3597.58118	0.05136
3596.29541	0.05132
3595.00964	0.05113
3593.72387	0.05096
3592.43810	0.05102
3591.15233	0.05127
3589.86656	0.05137
3588.58080	0.05108
3587.29503	0.05061
3586.00926	0.05046
3584.72349	0.05093
3583.43772	0.05187
3582.15195	0.05286
3580.86618	0.05358
3579.58041	0.05387
3578.29464	0.05377
3577.00888	0.05341
3575.72311	0.05289
3574.43734	0.05243
3573.15157	0.05235
3571.86580	0.05279
3570.58003	0.05353
3569.29426	0.05409
3568.00849	0.05419
3566.72273	0.05395
3565.43696	0.05378
3564.15119	0.05395
3562.86542	0.05437
3561.57965	0.05468
3560.29388	0.05456
3559.00811	0.05406
3557.72234	0.05357
3556.43657	0.05339
3555.15081	0.05346
3553.86504	0.05343
3552.57927	0.05312
3551.29350	0.05267
3550.00773	0.05238
3548.72196	0.05237
3547.43619	0.05263
3546.15042	0.05314
3544.86466	0.05388
3543.57889	0.05474
3542.29312	0.05549
3541.00735	0.05591
3539.72158	0.05597
3538.43581	0.05586
3537.15004	0.05582
3535.86427	0.05599
3534.57850	0.05631
3533.29274	0.05661
3532.00697	0.05675
3530.72120	0.05673
3529.43543	0.05677
3528.14966	0.05711
3526.86389	0.05760
3525.57812	0.05772
3524.29235	0.05708
3523.00659	0.05585
3521.72082	0.05463
3520.43505	0.05402
3519.14928	0.05433
3517.86351	0.05543
3516.57774	0.05688
3515.29197	0.05815
3514.00620	0.05880
3512.72043	0.05862
3511.43467	0.05769
3510.14890	0.05640
3508.86313	0.05530
3507.57736	0.05472
3506.29159	0.05464
3505.00582	0.05482
3503.72005	0.05519
3502.43428	0.05584
3501.14852	0.05665
3499.86275	0.05719
3498.57698	0.05703
3497.29121	0.05631
3496.00544	0.05559
3494.71967	0.05527
3493.43390	0.05524
3492.14813	0.05523
3490.86236	0.05526
3489.57660	0.05561
3488.29083	0.05631
3487.00506	0.05703
3485.71929	0.05744
3484.43352	0.05756
3483.14775	0.05770
3481.86198	0.05804
3480.57621	0.05846
3479.29045	0.05877
3478.00468	0.05893
3476.71891	0.05906
3475.43314	0.05910
3474.14737	0.05892
3472.86160	0.05853
3471.57583	0.05825
3470.29006	0.05828
3469.00429	0.05856
3467.71853	0.05883
3466.43276	0.05905
3465.14699	0.05937
3463.86122	0.05988
3462.57545	0.06044
3461.28968	0.06073
3460.00391	0.06057
3458.71814	0.06001
3457.43238	0.05941
3456.14661	0.05917
3454.86084	0.05947
3453.57507	0.06018
3452.28930	0.06098
3451.00353	0.06158
3449.71776	0.06183
3448.43199	0.06168
3447.14622	0.06122
3445.86046	0.06063
3444.57469	0.06011
3443.28892	0.05977
3442.00315	0.05958
3440.71738	0.05942
3439.43161	0.05936
3438.14584	0.05954
3436.86007	0.06001
3435.57431	0.06053
3434.28854	0.06080
3433.00277	0.06075
3431.71700	0.06049
3430.43123	0.06016
3429.14546	0.05988
3427.85969	0.05976
3426.57392	0.05986
3425.28815	0.06018
3424.00239	0.06063
3422.71662	0.06109
3421.43085	0.06152
3420.14508	0.06194
3418.85931	0.06238
3417.57354	0.06280
3416.28777	0.06299
3415.00200	0.06271
3413.71624	0.06191
3412.43047	0.06081
3411.14470	0.05978
3409.85893	0.05908
3408.57316	0.05881
3407.28739	0.05897
3406.00162	0.05959
3404.71585	0.06057
3403.43008	0.06162
3402.14432	0.06237
3400.85855	0.06263
3399.57278	0.06248
3398.28701	0.06207
3397.00124	0.06166
3395.71547	0.06142
3394.42970	0.06140
3393.14393	0.06151
3391.85817	0.06156
3390.57240	0.06142
3389.28663	0.06120
3388.00086	0.06116
3386.71509	0.06145
3385.42932	0.06197
3384.14355	0.06247
3382.85778	0.06280
3381.57201	0.06290
3380.28625	0.06277
3379.00048	0.06244
3377.71471	0.06196
3376.42894	0.06138
3375.14317	0.06080
3373.85740	0.06031
3372.57163	0.06000
3371.28586	0.05987
3370.00010	0.05995
3368.71433	0.06023
3367.42856	0.06062
3366.14279	0.06095
3364.85702	0.06110
3363.57125	0.06120
3362.28548	0.06152
3360.99971	0.06215
3359.71394	0.06283
3358.42818	0.06318
3357.14241	0.06307
3355.85664	0.06279
3354.57087	0.06279
3353.28510	0.06321
3351.99933	0.06379
3350.71356	0.06412
3349.42779	0.06397
3348.14202	0.06340
3346.85626	0.06262
3345.57049	0.06189
3344.28472	0.06149
3342.99895	0.06164
3341.71318	0.06234
3340.42741	0.06323
3339.14164	0.06385
3337.85587	0.06401
3336.57011	0.06375
3335.28434	0.06323
3333.99857	0.06256
3332.71280	0.06197
3331.42703	0.06167
3330.14126	0.06169
3328.85549	0.06189
3327.56972	0.06212
3326.28395	0.06237
3324.99819	0.06271
3323.71242	0.06310
3322.42665	0.06341
3321.14088	0.06344
3319.85511	0.06313
3318.56934	0.06253
3317.28357	0.06181
3315.99780	0.06126
3314.71204	0.06117
3313.42627	0.06159
3312.14050	0.06234
3310.85473	0.06316
3309.56896	0.06381
3308.28319	0.06411
3306.99742	0.06403
3305.71165	0.06362
3304.42588	0.06298
3303.14012	0.06231
3301.85435	0.06192
3300.56858	0.06209
3299.28281	0.06272
3297.99704	0.06336
3296.71127	0.06360
3295.42550	0.06342
3294.13973	0.06308
3292.85397	0.06275
3291.56820	0.06248
3290.28243	0.06243
3288.99666	0.06274
3287.71089	0.06330
3286.42512	0.06367
3285.13935	0.06352
3283.85358	0.06298
3282.56781	0.06252
3281.28205	0.06246
3279.99628	0.06278
3278.71051	0.06317
3277.42474	0.06343
3276.13897	0.06355
3274.85320	0.06366
3273.56743	0.06383
3272.28166	0.06400
3270.99590	0.06404
3269.71013	0.06387
3268.42436	0.06342
3267.13859	0.06276
3265.85282	0.06218
3264.56705	0.06207
3263.28128	0.06249
3261.99551	0.06296
3260.70974	0.06289
3259.42398	0.06222
3258.13821	0.06147
3256.85244	0.06116
3255.56667	0.06134
3254.28090	0.06166
3252.99513	0.06175
3251.70936	0.06153
3250.42359	0.06118
3249.13783	0.06090
3247.85206	0.06075
3246.56629	0.06072
3245.28052	0.06084
3243.99475	0.06113
3242.70898	0.06148
3241.42321	0.06168
3240.13744	0.06154
3238.85167	0.06104
3237.56591	0.06041
3236.28014	0.05991
3234.99437	0.05971
3233.70860	0.05978
3232.42283	0.05998
3231.13706	0.06016
3229.85129	0.06024
3228.56552	0.06030
3227.27976	0.06043
3225.99399	0.06066
3224.70822	0.06091
3223.42245	0.06111
3222.13668	0.06117
3220.85091	0.06101
3219.56514	0.06056
3218.27937	0.05992
3216.99360	0.05937
3215.70784	0.05918
3214.42207	0.05945
3213.13630	0.05999
3211.85053	0.06059
3210.56476	0.06111
3209.27899	0.06151
3207.99322	0.06177
3206.70745	0.06172
3205.42169	0.06120
3204.13592	0.06025
3202.85015	0.05919
3201.56438	0.05844
3200.27861	0.05823
3198.99284	0.05845
3197.70707	0.05883
3196.42130	0.05922
3195.13553	0.05952
3193.84977	0.05951
3192.56400	0.05899
3191.27823	0.05795
3189.99246	0.05679
3188.70669	0.05602
3187.42092	0.05590
3186.13515	0.05632
3184.84938	0.05692
3183.56362	0.05742
3182.27785	0.05772
3180.99208	0.05781
3179.70631	0.05767
3178.42054	0.05735
3177.13477	0.05697
3175.84900	0.05669
3174.56323	0.05657
3173.27746	0.05654
3171.99170	0.05653
3170.70593	0.05653
3169.42016	0.05655
3168.13439	0.05657
3166.84862	0.05655
3165.56285	0.05649
3164.27708	0.05643
3162.99131	0.05629
3161.70555	0.05592
3160.41978	0.05534
3159.13401	0.05485
3157.84824	0.05483
3156.56247	0.05538
3155.27670	0.05619
3153.99093	0.05687
3152.70516	0.05716
3151.41939	0.05703
3150.13363	0.05659
3148.84786	0.05603
3147.56209	0.05551
3146.27632	0.05513
3144.99055	0.05483
3143.70478	0.05450
3142.41901	0.05408
3141.13324	0.05355
3139.84748	0.05302
3138.56171	0.05261
3137.27594	0.05245
3135.99017	0.05253
3134.70440	0.05276
3133.41863	0.05299
3132.13286	0.05313
3130.84709	0.05318
3129.56132	0.05324
3128.27556	0.05331
3126.98979	0.05326
3125.70402	0.05298
3124.41825	0.05257
3123.13248	0.05224
3121.84671	0.05213
3120.56094	0.05212
3119.27517	0.05209
3117.98940	0.05197
3116.70364	0.05178
3115.41787	0.05155
3114.13210	0.05145
3112.84633	0.05172
3111.56056	0.05239
3110.27479	0.05310
3108.98902	0.05340
3107.70325	0.05313
3106.41749	0.05256
3105.13172	0.05209
3103.84595	0.05195
3102.56018	0.05207
3101.27441	0.05221
3099.98864	0.05219
3098.70287	0.05202
3097.41710	0.05187
3096.13133	0.05189
3094.84557	0.05205
3093.55980	0.05212
3092.27403	0.05195
3090.98826	0.05163
3089.70249	0.05143
3088.41672	0.05154
3087.13095	0.05185
3085.84518	0.05211
3084.55942	0.05216
3083.27365	0.05202
3081.98788	0.05185
3080.70211	0.05172
3079.41634	0.05161
3078.13057	0.05147
3076.84480	0.05135
3075.55903	0.05130
3074.27326	0.05132
3072.98750	0.05135
3071.70173	0.05136
3070.41596	0.05138
3069.13019	0.05149
3067.84442	0.05172
3066.55865	0.05191
3065.27288	0.05185
3063.98711	0.05145
3062.70135	0.05085
3061.41558	0.05036
3060.12981	0.05018
3058.84404	0.05038
3057.55827	0.05081
3056.27250	0.05121
3054.98673	0.05134
3053.70096	0.05108
3052.41519	0.05058
3051.12943	0.05010
3049.84366	0.04985
3048.55789	0.04984
3047.27212	0.04995
3045.98635	0.05003
3044.70058	0.04999
3043.41481	0.04983
3042.12904	0.04960
3040.84328	0.04946
3039.55751	0.04950
3038.27174	0.04966
3036.98597	0.04978
3035.70020	0.04971
3034.41443	0.04947
3033.12866	0.04915
3031.84289	0.04878
3030.55712	0.04842
3029.27136	0.04815
3027.98559	0.04809
3026.69982	0.04828
3025.41405	0.04866
3024.12828	0.04907
3022.84251	0.04928
3021.55674	0.04913
3020.27097	0.04863
3018.98521	0.04800
3017.69944	0.04758
3016.41367	0.04755
3015.12790	0.04782
3013.84213	0.04813
3012.55636	0.04828
3011.27059	0.04829
3009.98482	0.04826
3008.69905	0.04825
3007.41329	0.04826
3006.12752	0.04827
3004.84175	0.04825
3003.55598	0.04816
3002.27021	0.04794
3000.98444	0.04762
2999.69867	0.04727
2998.41290	0.04702
2997.12714	0.04691
2995.84137	0.04691
2994.55560	0.04701
2993.26983	0.04715
2991.98406	0.04726
2990.69829	0.04724
2989.41252	0.04714
2988.12675	0.04705
2986.84098	0.04705
2985.55522	0.04713
2984.26945	0.04720
2982.98368	0.04722
2981.69791	0.04722
2980.41214	0.04735
2979.12637	0.04769
2977.84060	0.04816
2976.55483	0.04857
2975.26907	0.04870
2973.98330	0.04851
2972.69753	0.04816
2971.41176	0.04803
2970.12599	0.04834
2968.84022	0.04899
2967.55445	0.04963
2966.26868	0.05006
2964.98291	0.05032
2963.69715	0.05049
2962.41138	0.05058
2961.12561	0.05059
2959.83984	0.05053
2958.55407	0.05049
2957.26830	0.05054
2955.98253	0.05074
2954.69676	0.05104
2953.41100	0.05134
2952.12523	0.05154
2950.83946	0.05165
2949.55369	0.05167
2948.26792	0.05164
2946.98215	0.05161
2945.69638	0.05165
2944.41061	0.05176
2943.12484	0.05185
2941.83908	0.05187
2940.55331	0.05186
2939.26754	0.05191
2937.98177	0.05201
2936.69600	0.05207
2935.41023	0.05202
2934.12446	0.05192
2932.83869	0.05187
2931.55293	0.05195
2930.26716	0.05226
2928.98139	0.05273
2927.69562	0.05320
2926.40985	0.05344
2925.12408	0.05345
2923.83831	0.05338
2922.55254	0.05332
2921.26677	0.05324
2919.98101	0.05311
2918.69524	0.05294
2917.40947	0.05277
2916.12370	0.05266
2914.83793	0.05266
2913.55216	0.05277
2912.26639	0.05285
2910.98062	0.05268
2909.69486	0.05223
2908.40909	0.05163
2907.12332	0.05111
2905.83755	0.05077
2904.55178	0.05051
2903.26601	0.05018
2901.98024	0.04973
2900.69447	0.04938
2899.40870	0.04927
2898.12294	0.04926
2896.83717	0.04906
2895.55140	0.04857
2894.26563	0.04794
2892.97986	0.04740
2891.69409	0.04708
2890.40832	0.04704
2889.12255	0.04727
2887.83678	0.04762
2886.55102	0.04781
2885.26525	0.04774
2883.97948	0.04754
2882.69371	0.04742
2881.40794	0.04742
2880.12217	0.04746
2878.83640	0.04748
2877.55063	0.04747
2876.26487	0.04744
2874.97910	0.04737
2873.69333	0.04728
2872.40756	0.04721
2871.12179	0.04718
2869.83602	0.04719
2868.55025	0.04721
2867.26448	0.04719
2865.97871	0.04709
2864.69295	0.04697
2863.40718	0.04695
2862.12141	0.04708
2860.83564	0.04735
2859.54987	0.04765
2858.26410	0.04791
2856.97833	0.04806
2855.69256	0.04801
2854.40680	0.04775
2853.12103	0.04737
2851.83526	0.04703
2850.54949	0.04680
2849.26372	0.04668
2847.97795	0.04662
2846.69218	0.04654
2845.40641	0.04638
2844.12064	0.04612
2842.83488	0.04581
2841.54911	0.04551
2840.26334	0.04521
2838.97757	0.04485
2837.69180	0.04441
2836.40603	0.04399
2835.12026	0.04369
2833.83449	0.04351
2832.54873	0.04337
2831.26296	0.04323
2829.97719	0.04309
2828.69142	0.04297
2827.40565	0.04291
2826.11988	0.04287
2824.83411	0.04283
2823.54834	0.04277
2822.26257	0.04276
2820.97681	0.04279
2819.69104	0.04278
2818.40527	0.04260
2817.11950	0.04225
2815.83373	0.04185
2814.54796	0.04153
2813.26219	0.04137
2811.97642	0.04134
2810.69066	0.04144
2809.40489	0.04161
2808.11912	0.04181
2806.83335	0.04191
2805.54758	0.04180
2804.26181	0.04146
2802.97604	0.04108
2801.69027	0.04090
2800.40450	0.04097
2799.11874	0.04113
2797.83297	0.04121
2796.54720	0.04119
2795.26143	0.04115
2793.97566	0.04109
2792.68989	0.04095
2791.40412	0.04073
2790.11835	0.04051
2788.83259	0.04034
2787.54682	0.04018
2786.26105	0.03999
2784.97528	0.03983
2783.68951	0.03979
2782.40374	0.03988
2781.11797	0.03999
2779.83220	0.04002
2778.54643	0.03999
2777.26067	0.03996
2775.97490	0.03998
2774.68913	0.04001
2773.40336	0.04001
2772.11759	0.03998
2770.83182	0.03991
2769.54605	0.03980
2768.26028	0.03971
2766.97452	0.03964
2765.68875	0.03953
2764.40298	0.03930
2763.11721	0.03899
2761.83144	0.03877
2760.54567	0.03869
2759.25990	0.03863
2757.97413	0.03845
2756.68836	0.03815
2755.40260	0.03786
2754.11683	0.03772
2752.83106	0.03777
2751.54529	0.03795
2750.25952	0.03819
2748.97375	0.03842
2747.68798	0.03862
2746.40221	0.03871
2745.11645	0.03864
2743.83068	0.03849
2742.54491	0.03842
2741.25914	0.03850
2739.97337	0.03869
2738.68760	0.03884
2737.40183	0.03885
2736.11606	0.03872
2734.83029	0.03850
2733.54453	0.03829
2732.25876	0.03824
2730.97299	0.03841
2729.68722	0.03866
2728.40145	0.03872
2727.11568	0.03848
2725.82991	0.03811
2724.54414	0.03789
2723.25838	0.03792
2721.97261	0.03799
2720.68684	0.03787
2719.40107	0.03752
2718.11530	0.03712
2716.82953	0.03688
2715.54376	0.03688
2714.25799	0.03703
2712.97222	0.03711
2711.68646	0.03701
2710.40069	0.03679
2709.11492	0.03668
2707.82915	0.03683
2706.54338	0.03717
2705.25761	0.03752
2703.97184	0.03776
2702.68607	0.03782
2701.40031	0.03768
2700.11454	0.03731
2698.82877	0.03681
2697.54300	0.03639
2696.25723	0.03616
2694.97146	0.03611
2693.68569	0.03614
2692.39992	0.03616
2691.11415	0.03611
2689.82839	0.03603
2688.54262	0.03604
2687.25685	0.03618
2685.97108	0.03635
2684.68531	0.03643
2683.39954	0.03639
2682.11377	0.03625
2680.82800	0.03609
2679.54224	0.03594
2678.25647	0.03582
2676.97070	0.03574
2675.68493	0.03570
2674.39916	0.03570
2673.11339	0.03573
2671.82762	0.03578
2670.54185	0.03583
2669.25608	0.03591
2667.97032	0.03600
2666.68455	0.03607
2665.39878	0.03607
2664.11301	0.03598
2662.82724	0.03587
2661.54147	0.03583
2660.25570	0.03587
2658.96993	0.03592
2657.68417	0.03593
2656.39840	0.03591
2655.11263	0.03584
2653.82686	0.03570
2652.54109	0.03551
2651.25532	0.03536
2649.96955	0.03534
2648.68378	0.03542
2647.39801	0.03544
2646.11225	0.03526
2644.82648	0.03486
2643.54071	0.03438
2642.25494	0.03404
2640.96917	0.03395
2639.68340	0.03396
2638.39763	0.03386
2637.11186	0.03355
2635.82609	0.03318
2634.54033	0.03290
2633.25456	0.03278
2631.96879	0.03281
2630.68302	0.03297
2629.39725	0.03317
2628.11148	0.03326
2626.82571	0.03305
2625.53994	0.03252
2624.25418	0.03186
2622.96841	0.03138
2621.68264	0.03124
2620.39687	0.03142
2619.11110	0.03171
2617.82533	0.03192
2616.53956	0.03193
2615.25379	0.03173
2613.96802	0.03144
2612.68226	0.03123
2611.39649	0.03110
2610.11072	0.03096
2608.82495	0.03075
2607.53918	0.03057
2606.25341	0.03053
2604.96764	0.03059
2603.68187	0.03066
2602.39611	0.03072
2601.11034	0.03081
2599.82457	0.03093
2598.53880	0.03103
2597.25303	0.03103
2595.96726	0.03087
2594.68149	0.03060
2593.39572	0.03031
2592.10995	0.03015
2590.82419	0.03020
2589.53842	0.03043
2588.25265	0.03068
2586.96688	0.03080
2585.68111	0.03079
2584.39534	0.03075
2583.10957	0.03071
2581.82380	0.03054
2580.53804	0.03019
2579.25227	0.02977
2577.96650	0.02948
2576.68073	0.02942
2575.39496	0.02947
2574.10919	0.02941
2572.82342	0.02915
2571.53765	0.02882
2570.25188	0.02868
2568.96612	0.02888
2567.68035	0.02939
2566.39458	0.03003
2565.10881	0.03053
2563.82304	0.03069
2562.53727	0.03053
2561.25150	0.03030
2559.96573	0.03024
2558.67997	0.03030
2557.39420	0.03023
2556.10843	0.02992
2554.82266	0.02957
2553.53689	0.02944
2552.25112	0.02955
2550.96535	0.02970
2549.67958	0.02966
2548.39381	0.02940
2547.10805	0.02900
2545.82228	0.02870
2544.53651	0.02867
2543.25074	0.02884
2541.96497	0.02894
2540.67920	0.02879
2539.39343	0.02841
2538.10766	0.02800
2536.82190	0.02769
2535.53613	0.02759
2534.25036	0.02772
2532.96459	0.02805
2531.67882	0.02844
2530.39305	0.02876
2529.10728	0.02881
2527.82151	0.02853
2526.53574	0.02808
2525.24998	0.02778
2523.96421	0.02773
2522.67844	0.02771
2521.39267	0.02756
2520.10690	0.02735
2518.82113	0.02726
2517.53536	0.02725
2516.24959	0.02711
2514.96383	0.02682
2513.67806	0.02658
2512.39229	0.02659
2511.10652	0.02681
2509.82075	0.02702
2508.53498	0.02707
2507.24921	0.02691
2505.96344	0.02663
2504.67767	0.02641
2503.39191	0.02640
2502.10614	0.02655
2500.82037	0.02663
2499.53460	0.02654
2498.24883	0.02640
2496.96306	0.02634
2495.67729	0.02635
2494.39152	0.02638
2493.10576	0.02642
2491.81999	0.02650
2490.53422	0.02651
2489.24845	0.02640
2487.96268	0.02628
2486.67691	0.02636
2485.39114	0.02669
2484.10537	0.02714
2482.81960	0.02753
2481.53384	0.02776
2480.24807	0.02777
2478.96230	0.02756
2477.67653	0.02720
2476.39076	0.02686
2475.10499	0.02667
2473.81922	0.02667
2472.53345	0.02675
2471.24769	0.02682
2469.96192	0.02685
2468.67615	0.02693
2467.39038	0.02717
2466.10461	0.02751
2464.81884	0.02770
2463.53307	0.02752
2462.24730	0.02705
2460.96153	0.02662
2459.67577	0.02653
2458.39000	0.02681
2457.10423	0.02717
2455.81846	0.02731
2454.53269	0.02709
2453.24692	0.02665
2451.96115	0.02618
2450.67538	0.02577
2449.38962	0.02553
2448.10385	0.02559
2446.81808	0.02599
2445.53231	0.02647
2444.24654	0.02670
2442.96077	0.02663
2441.67500	0.02646
2440.38923	0.02637
2439.10346	0.02632
2437.81770	0.02618
2436.53193	0.02598
2435.24616	0.02584
2433.96039	0.02576
2432.67462	0.02560
2431.38885	0.02527
2430.10308	0.02486
2428.81731	0.02451
2427.53155	0.02430
2426.24578	0.02430
2424.96001	0.02455
2423.67424	0.02492
2422.38847	0.02528
2421.10270	0.02557
2419.81693	0.02584
2418.53116	0.02608
2417.24539	0.02623
2415.95963	0.02625
2414.67386	0.02609
2413.38809	0.02570
2412.10232	0.02514
2410.81655	0.02464
2409.53078	0.02440
2408.24501	0.02444
2406.95924	0.02466
2405.67347	0.02491
2404.38771	0.02506
2403.10194	0.02503
2401.81617	0.02489
2400.53040	0.02476
2399.24463	0.02467
2397.95886	0.02464
2396.67309	0.02473
2395.38732	0.02498
2394.10156	0.02537
2392.81579	0.02575
2391.53002	0.02601
2390.24425	0.02608
2388.95848	0.02600
2387.67271	0.02587
2386.38694	0.02578
2385.10117	0.02574
2383.81540	0.02570
2382.52964	0.02559
2381.24387	0.02541
2379.95810	0.02526
2378.67233	0.02518
2377.38656	0.02512
2376.10079	0.02505
2374.81502	0.02509
2373.52925	0.02524
2372.24349	0.02555
2370.95772	0.02575
2369.67195	0.02592
2368.38618	0.02592
2367.10041	0.02564
2365.81464	0.02517
2364.52887	0.02511
2363.24310	0.02539
2361.95733	0.02572
2360.67157	0.02571
2359.38580	0.02571
2358.10003	0.02563
2356.81426	0.02554
2355.52849	0.02548
2354.24272	0.02537
2352.95695	0.02538
2351.67118	0.02530
2350.38542	0.02501
2349.09965	0.02490
2347.81388	0.02534
2346.52811	0.02573
2345.24234	0.02582
2343.95657	0.02584
2342.67080	0.02612
2341.38503	0.02607
2340.09926	0.02555
2338.81350	0.02543
2337.52773	0.02580
2336.24196	0.02584
2334.95619	0.02552
2333.67042	0.02553
2332.38465	0.02609
2331.09888	0.02573
2329.81311	0.02522
2328.52735	0.02604
2327.24158	0.02616
2325.95581	0.02584
2324.67004	0.02640
2323.38427	0.02619
2322.09850	0.02519
2320.81273	0.02534
2319.52696	0.02513
2318.24119	0.02474
2316.95543	0.02519
2315.66966	0.02530
2314.38389	0.02532
2313.09812	0.02563
2311.81235	0.02549
2310.52658	0.02551
2309.24081	0.02546
2307.95504	0.02508
2306.66928	0.02488
2305.38351	0.02464
2304.09774	0.02468
2302.81197	0.02504
2301.52620	0.02534
2300.24043	0.02551
2298.95466	0.02532
2297.66889	0.02486
2296.38312	0.02418
2295.09736	0.02339
2293.81159	0.02278
2292.52582	0.02246
2291.24005	0.02242
2289.95428	0.02240
2288.66851	0.02222
2287.38274	0.02186
2286.09697	0.02153
2284.81121	0.02146
2283.52544	0.02179
2282.23967	0.02237
2280.95390	0.02283
2279.66813	0.02289
2278.38236	0.02256
2277.09659	0.02212
2275.81082	0.02182
2274.52505	0.02170
2273.23929	0.02163
2271.95352	0.02143
2270.66775	0.02107
2269.38198	0.02065
2268.09621	0.02033
2266.81044	0.02019
2265.52467	0.02018
2264.23890	0.02027
2262.95314	0.02036
2261.66737	0.02035
2260.38160	0.02019
2259.09583	0.01988
2257.81006	0.01954
2256.52429	0.01937
2255.23852	0.01943
2253.95275	0.01958
2252.66698	0.01962
2251.38122	0.01952
2250.09545	0.01937
2248.80968	0.01923
2247.52391	0.01905
2246.23814	0.01879
2244.95237	0.01871
2243.66660	0.01899
2242.38083	0.01942
2241.09507	0.01958
2239.80930	0.01935
2238.52353	0.01905
2237.23776	0.01904
2235.95199	0.01928
2234.66622	0.01938
2233.38045	0.01906
2232.09468	0.01850
2230.80891	0.01809
2229.52315	0.01797
2228.23738	0.01801
2226.95161	0.01804
2225.66584	0.01807
2224.38007	0.01811
2223.09430	0.01807
2221.80853	0.01780
2220.52276	0.01720
2219.23700	0.01643
2217.95123	0.01601
2216.66546	0.01626
2215.37969	0.01682
2214.09392	0.01685
2212.80815	0.01611
2211.52238	0.01515
2210.23661	0.01461
2208.95084	0.01442
2207.66508	0.01425
2206.37931	0.01421
2205.09354	0.01475
2203.80777	0.01598
2202.52200	0.01726
2201.23623	0.01781
2199.95046	0.01743
2198.66469	0.01649
2197.37893	0.01550
2196.09316	0.01487
2194.80739	0.01487
2193.52162	0.01544
2192.23585	0.01599
2190.95008	0.01588
2189.66431	0.01508
2188.37854	0.01423
2187.09277	0.01388
2185.80701	0.01403
2184.52124	0.01436
2183.23547	0.01467
2181.94970	0.01488
2180.66393	0.01491
2179.37816	0.01468
2178.09239	0.01423
2176.80662	0.01376
2175.52085	0.01351
2174.23509	0.01357
2172.94932	0.01387
2171.66355	0.01423
2170.37778	0.01453
2169.09201	0.01469
2167.80624	0.01464
2166.52047	0.01426
2165.23470	0.01362
2163.94894	0.01291
2162.66317	0.01217
2161.37740	0.01116
2160.09163	0.00978
2158.80586	0.00853
2157.52009	0.00824
2156.23432	0.00911
2154.94855	0.01042
2153.66278	0.01117
2152.37702	0.01083
2151.09125	0.00970
2149.80548	0.00860
2148.51971	0.00823
2147.23394	0.00884
2145.94817	0.01009
2144.66240	0.01130
2143.37663	0.01190
2142.09087	0.01204
2140.80510	0.01258
2139.51933	0.01407
2138.23356	0.01590
2136.94779	0.01683
2135.66202	0.01640
2134.37625	0.01528
2133.09048	0.01434
2131.80471	0.01386
2130.51895	0.01366
2129.23318	0.01357
2127.94741	0.01364
2126.66164	0.01399
2125.37587	0.01466
2124.09010	0.01553
2122.80433	0.01632
2121.51856	0.01679
2120.23280	0.01684
2118.94703	0.01649
2117.66126	0.01591
2116.37549	0.01545
2115.08972	0.01538
2113.80395	0.01565
2112.51818	0.01593
2111.23241	0.01602
2109.94664	0.01598
2108.66088	0.01595
2107.37511	0.01594
2106.08934	0.01594
2104.80357	0.01590
2103.51780	0.01579
2102.23203	0.01558
2100.94626	0.01524
2099.66049	0.01548
2098.37473	0.01538
2097.08896	0.01515
2095.80319	0.01518
2094.51742	0.01555
2093.23165	0.01603
2091.94588	0.01632
2090.66011	0.01632
2089.37434	0.01617
2088.08857	0.01607
2086.80281	0.01600
2085.51704	0.01584
2084.23127	0.01562
2082.94550	0.01553
2081.65973	0.01560
2080.37396	0.01562
2079.08819	0.01539
2077.80242	0.01503
2076.51666	0.01483
2075.23089	0.01497
2073.94512	0.01523
2072.65935	0.01528
2071.37358	0.01499
2070.08781	0.01464
2068.80204	0.01457
2067.51627	0.01481
2066.23050	0.01499
2064.94474	0.01470
2063.65897	0.01388
2062.37320	0.01290
2061.08743	0.01213
2059.80166	0.01163
2058.51589	0.01118
2057.23012	0.01067
2055.94435	0.01024
2054.65859	0.01018
2053.37282	0.01065
2052.08705	0.01153
2050.80128	0.01243
2049.51551	0.01286
2048.22974	0.01253
2046.94397	0.01154
2045.65820	0.01036
2044.37243	0.00946
2043.08667	0.00902
2041.80090	0.00896
2040.51513	0.00913
2039.22936	0.00944
2037.94359	0.00989
2036.65782	0.01054
2035.37205	0.01133
2034.08628	0.01199
2032.80052	0.01202
2031.51475	0.01117
2030.22898	0.00971
2028.94321	0.00826
2027.65744	0.00733
2026.37167	0.00709
2025.08590	0.00732
2023.80013	0.00774
2022.51436	0.00815
2021.22860	0.00855
2019.94283	0.00890
2018.65706	0.00904
2017.37129	0.00894
2016.08552	0.00882
2014.79975	0.00887
2013.51398	0.00897
2012.22821	0.00884
2010.94245	0.00845
2009.65668	0.00807
2008.37091	0.00797
2007.08514	0.00821
2005.79937	0.00874
2004.51360	0.00938
2003.22783	0.00981
2001.94206	0.00970
2000.65629	0.00906
1999.37053	0.00838
1998.08476	0.00830
1996.79899	0.00907
1995.51322	0.01041
1994.22745	0.01168
1992.94168	0.01226
1991.65591	0.01191
1990.37014	0.01097
1989.08438	0.01021
1987.79861	0.01018
1986.51284	0.01085
1985.22707	0.01171
1983.94130	0.01229
1982.65553	0.01246
1981.36976	0.01246
1980.08399	0.01271
1978.79822	0.01341
1977.51246	0.01425
1976.22669	0.01456
1974.94092	0.01403
1973.65515	0.01301
1972.36938	0.01216
1971.08361	0.01188
1969.79784	0.01205
1968.51207	0.01238
1967.22631	0.01265
1965.94054	0.01278
1964.65477	0.01273
1963.36900	0.01243
1962.08323	0.01186
1960.79746	0.01111
1959.51169	0.01054
1958.22592	0.01051
1956.94015	0.01112
1955.65439	0.01207
1954.36862	0.01300
1953.08285	0.01371
1951.79708	0.01409
1950.51131	0.01409
1949.22554	0.01379
1947.93977	0.01349
1946.65400	0.01357
1945.36823	0.01417
1944.08247	0.01510
1942.79670	0.01592
1941.51093	0.01618
1940.22516	0.01569
1938.93939	0.01471
1937.65362	0.01384
1936.36785	0.01360
1935.08208	0.01400
1933.79632	0.01462
1932.51055	0.01500
1931.22478	0.01505
1929.93901	0.01494
1928.65324	0.01483
1927.36747	0.01467
1926.08170	0.01437
1924.79593	0.01399
1923.51016	0.01369
1922.22440	0.01357
1920.93863	0.01365
1919.65286	0.01380
1918.36709	0.01386
1917.08132	0.01380
1915.79555	0.01372
1914.50978	0.01375
1913.22401	0.01390
1911.93825	0.01406
1910.65248	0.01417
1909.36671	0.01420
1908.08094	0.01411
1906.79517	0.01395
1905.50940	0.01382
1904.22363	0.01372
1902.93786	0.01363
1901.65209	0.01353
1900.36633	0.01344
1899.08056	0.01338
1897.79479	0.01335
1896.50902	0.01338
1895.22325	0.01351
1893.93748	0.01372
1892.65171	0.01392
1891.36594	0.01404
1890.08018	0.01414
1888.79441	0.01427
1887.50864	0.01446
1886.22287	0.01469
1884.93710	0.01489
1883.65133	0.01502
1882.36556	0.01504
1881.07979	0.01501
1879.79402	0.01501
1878.50826	0.01507
1877.22249	0.01515
1875.93672	0.01511
1874.65095	0.01488
1873.36518	0.01455
1872.07941	0.01433
1870.79364	0.01436
1869.50787	0.01455
1868.22211	0.01468
1866.93634	0.01469
1865.65057	0.01465
1864.36480	0.01465
1863.07903	0.01472
1861.79326	0.01484
1860.50749	0.01500
1859.22172	0.01517
1857.93595	0.01529
1856.65019	0.01525
1855.36442	0.01503
1854.07865	0.01473
1852.79288	0.01452
1851.50711	0.01446
1850.22134	0.01450
1848.93557	0.01457
1847.64980	0.01464
1846.36404	0.01475
1845.07827	0.01485
1843.79250	0.01485
1842.50673	0.01477
1841.22096	0.01471
1839.93519	0.01469
1838.64942	0.01462
1837.36365	0.01441
1836.07788	0.01409
1834.79212	0.01376
1833.50635	0.01352
1832.22058	0.01340
1830.93481	0.01337
1829.64904	0.01339
1828.36327	0.01344
1827.07750	0.01355
1825.79173	0.01374
1824.50597	0.01398
1823.22020	0.01427
1821.93443	0.01456
1820.64866	0.01476
1819.36289	0.01479
1818.07712	0.01470
1816.79135	0.01454
1815.50558	0.01440
1814.21981	0.01430
1812.93405	0.01425
1811.64828	0.01420
1810.36251	0.01411
1809.07674	0.01398
1807.79097	0.01389
1806.50520	0.01389
1805.21943	0.01399
1803.93366	0.01411
1802.64790	0.01420
1801.36213	0.01424
1800.07636	0.01424
1798.79059	0.01426
1797.50482	0.01428
1796.21905	0.01429
1794.93328	0.01426
1793.64751	0.01424
1792.36174	0.01424
1791.07598	0.01423
1789.79021	0.01422
1788.50444	0.01423
1787.21867	0.01428
1785.93290	0.01438
1784.64713	0.01448
1783.36136	0.01450
1782.07559	0.01445
1780.78983	0.01440
1779.50406	0.01440
1778.21829	0.01444
1776.93252	0.01444
1775.64675	0.01439
1774.36098	0.01437
1773.07521	0.01440
1771.78944	0.01442
1770.50367	0.01436
1769.21791	0.01422
1767.93214	0.01401
1766.64637	0.01382
1765.36060	0.01373
1764.07483	0.01377
1762.78906	0.01389
1761.50329	0.01396
1760.21752	0.01398
1758.93176	0.01400
1757.64599	0.01408
1756.36022	0.01419
1755.07445	0.01430
1753.78868	0.01440
1752.50291	0.01448
1751.21714	0.01449
1749.93137	0.01443
1748.64560	0.01433
1747.35984	0.01426
1746.07407	0.01423
1744.78830	0.01425
1743.50253	0.01428
1742.21676	0.01431
1740.93099	0.01432
1739.64522	0.01433
1738.35945	0.01432
1737.07369	0.01441
1735.78792	0.01463
1734.50215	0.01489
1733.21638	0.01501
1731.93061	0.01497
1730.64484	0.01488
1729.35907	0.01479
1728.07330	0.01469
1726.78753	0.01461
1725.50177	0.01461
1724.21600	0.01467
1722.93023	0.01477
1721.64446	0.01490
1720.35869	0.01513
1719.07292	0.01546
1717.78715	0.01576
1716.50138	0.01591
1715.21561	0.01592
1713.92985	0.01591
1712.64408	0.01596
1711.35831	0.01612
1710.07254	0.01636
1708.78677	0.01668
1707.50100	0.01707
1706.21523	0.01750
1704.92946	0.01794
1703.64370	0.01839
1702.35793	0.01891
1701.07216	0.01943
1699.78639	0.01984
1698.50062	0.02025
1697.21485	0.02082
1695.92908	0.02150
1694.64331	0.02206
1693.35754	0.02250
1692.07178	0.02301
1690.78601	0.02366
1689.50024	0.02440
1688.21447	0.02519
1686.92870	0.02603
1685.64293	0.02682
1684.35716	0.02738
1683.07139	0.02768
1681.78563	0.02789
1680.49986	0.02822
1679.21409	0.02871
1677.92832	0.02936
1676.64255	0.03015
1675.35678	0.03096
1674.07101	0.03168
1672.78524	0.03232
1671.49947	0.03300
1670.21371	0.03373
1668.92794	0.03442
1667.64217	0.03497
1666.35640	0.03541
1665.07063	0.03585
1663.78486	0.03632
1662.49909	0.03680
1661.21332	0.03726
1659.92756	0.03771
1658.64179	0.03816
1657.35602	0.03863
1656.07025	0.03919
1654.78448	0.03985
1653.49871	0.04047
1652.21294	0.04086
1650.92717	0.04105
1649.64140	0.04125
1648.35564	0.04156
1647.06987	0.04189
1645.78410	0.04211
1644.49833	0.04221
1643.21256	0.04222
1641.92679	0.04220
1640.64102	0.04216
1639.35525	0.04214
1638.06949	0.04214
1636.78372	0.04212
1635.49795	0.04195
1634.21218	0.04162
1632.92641	0.04125
1631.64064	0.04092
1630.35487	0.04057
1629.06910	0.04015
1627.78333	0.03966
1626.49757	0.03915
1625.21180	0.03871
1623.92603	0.03831
1622.64026	0.03790
1621.35449	0.03745
1620.06872	0.03701
1618.78295	0.03662
1617.49718	0.03624
1616.21142	0.03576
1614.92565	0.03521
1613.63988	0.03470
1612.35411	0.03428
1611.06834	0.03391
1609.78257	0.03356
1608.49680	0.03323
1607.21103	0.03294
1605.92526	0.03268
1604.63950	0.03243
1603.35373	0.03221
1602.06796	0.03202
1600.78219	0.03186
1599.49642	0.03177
1598.21065	0.03173
1596.92488	0.03173
1595.63911	0.03173
1594.35335	0.03168
1593.06758	0.03158
1591.78181	0.03148
1590.49604	0.03142
1589.21027	0.03144
1587.92450	0.03150
1586.63873	0.03159
1585.35296	0.03167
1584.06719	0.03178
1582.78143	0.03196
1581.49566	0.03219
1580.20989	0.03243
1578.92412	0.03266
1577.63835	0.03288
1576.35258	0.03303
1575.06681	0.03308
1573.78104	0.03313
1572.49528	0.03329
1571.20951	0.03357
1569.92374	0.03387
1568.63797	0.03415
1567.35220	0.03443
1566.06643	0.03475
1564.78066	0.03506
1563.49489	0.03534
1562.20912	0.03565
1560.92336	0.03602
1559.63759	0.03636
1558.35182	0.03655
1557.06605	0.03659
1555.78028	0.03660
1554.49451	0.03662
1553.20874	0.03666
1551.92297	0.03674
1550.63721	0.03690
1549.35144	0.03707
1548.06567	0.03718
1546.77990	0.03724
1545.49413	0.03723
1544.20836	0.03717
1542.92259	0.03712
1541.63682	0.03716
1540.35105	0.03724
1539.06529	0.03720
1537.77952	0.03698
1536.49375	0.03670
1535.20798	0.03653
1533.92221	0.03649
1532.63644	0.03647
1531.35067	0.03644
1530.06490	0.03639
1528.77914	0.03636
1527.49337	0.03634
1526.20760	0.03634
1524.92183	0.03634
1523.63606	0.03639
1522.35029	0.03649
1521.06452	0.03658
1519.77875	0.03663
1518.49298	0.03667
1517.20722	0.03672
1515.92145	0.03673
1514.63568	0.03672
1513.34991	0.03673
1512.06414	0.03678
1510.77837	0.03691
1509.49260	0.03718
1508.20683	0.03758
1506.92107	0.03797
1505.63530	0.03817
1504.34953	0.03819
1503.06376	0.03821
1501.77799	0.03832
1500.49222	0.03850
1499.20645	0.03865
1497.92068	0.03875
1496.63491	0.03877
1495.34915	0.03871
1494.06338	0.03866
1492.77761	0.03870
1491.49184	0.03886
1490.20607	0.03906
1488.92030	0.03926
1487.63453	0.03947
1486.34876	0.03973
1485.06299	0.04002
1483.77723	0.04031
1482.49146	0.04061
1481.20569	0.04095
1479.91992	0.04135
1478.63415	0.04180
1477.34838	0.04229
1476.06261	0.04277
1474.77684	0.04327
1473.49108	0.04377
1472.20531	0.04422
1470.91954	0.04457
1469.63377	0.04487
1468.34800	0.04517
1467.06223	0.04552
1465.77646	0.04592
1464.49069	0.04632
1463.20492	0.04668
1461.91916	0.04702
1460.63339	0.04742
1459.34762	0.04794
1458.06185	0.04856
1456.77608	0.04911
1455.49031	0.04948
1454.20454	0.04974
1452.91877	0.04997
1451.63301	0.05023
1450.34724	0.05048
1449.06147	0.05068
1447.77570	0.05077
1446.48993	0.05074
1445.20416	0.05066
1443.91839	0.05058
1442.63262	0.05049
1441.34685	0.05037
1440.06109	0.05024
1438.77532	0.05015
1437.48955	0.05007
1436.20378	0.04994
1434.91801	0.04973
1433.63224	0.04955
1432.34647	0.04949
1431.06070	0.04959
1429.77494	0.04983
1428.48917	0.05017
1427.20340	0.05058
1425.91763	0.05101
1424.63186	0.05143
1423.34609	0.05185
1422.06032	0.05232
1420.77455	0.05286
1419.48878	0.05339
1418.20302	0.05380
1416.91725	0.05408
1415.63148	0.05428
1414.34571	0.05446
1413.05994	0.05462
1411.77417	0.05473
1410.48840	0.05476
1409.20263	0.05470
1407.91687	0.05455
1406.63110	0.05432
1405.34533	0.05403
1404.05956	0.05368
1402.77379	0.05327
1401.48802	0.05280
1400.20225	0.05225
1398.91648	0.05162
1397.63071	0.05090
1396.34495	0.05016
1395.05918	0.04943
1393.77341	0.04870
1392.48764	0.04800
1391.20187	0.04733
1389.91610	0.04669
1388.63033	0.04607
1387.34456	0.04542
1386.05880	0.04476
1384.77303	0.04408
1383.48726	0.04336
1382.20149	0.04260
1380.91572	0.04183
1379.62995	0.04109
1378.34418	0.04041
1377.05841	0.03972
1375.77264	0.03899
1374.48688	0.03818
1373.20111	0.03730
1371.91534	0.03642
1370.62957	0.03558
1369.34380	0.03480
1368.05803	0.03409
1366.77226	0.03343
1365.48649	0.03283
1364.20073	0.03226
1362.91496	0.03167
1361.62919	0.03110
1360.34342	0.03057
1359.05765	0.03013
1357.77188	0.02977
1356.48611	0.02944
1355.20034	0.02911
1353.91457	0.02876
1352.62881	0.02840
1351.34304	0.02807
1350.05727	0.02781
1348.77150	0.02762
1347.48573	0.02747
1346.19996	0.02732
1344.91419	0.02714
1343.62842	0.02695
1342.34266	0.02679
1341.05689	0.02667
1339.77112	0.02658
1338.48535	0.02645
1337.19958	0.02625
1335.91381	0.02599
1334.62804	0.02572
1333.34227	0.02550
1332.05650	0.02532
1330.77074	0.02517
1329.48497	0.02499
1328.19920	0.02477
1326.91343	0.02453
1325.62766	0.02431
1324.34189	0.02412
1323.05612	0.02395
1321.77035	0.02379
1320.48459	0.02362
1319.19882	0.02348
1317.91305	0.02336
1316.62728	0.02327
1315.34151	0.02319
1314.05574	0.02310
1312.76997	0.02297
1311.48420	0.02281
1310.19843	0.02261
1308.91267	0.02236
1307.62690	0.02208
1306.34113	0.02182
1305.05536	0.02161
1303.76959	0.02147
1302.48382	0.02138
1301.19805	0.02130
1299.91228	0.02120
1298.62652	0.02108
1297.34075	0.02094
1296.05498	0.02078
1294.76921	0.02063
1293.48344	0.02053
1292.19767	0.02048
1290.91190	0.02046
1289.62613	0.02042
1288.34036	0.02036
1287.05460	0.02028
1285.76883	0.02022
1284.48306	0.02019
1283.19729	0.02019
1281.91152	0.02018
1280.62575	0.02013
1279.33998	0.02003
1278.05421	0.01993
1276.76845	0.01988
1275.48268	0.01986
1274.19691	0.01984
1272.91114	0.01977
1271.62537	0.01965
1270.33960	0.01955
1269.05383	0.01951
1267.76806	0.01955
1266.48229	0.01962
1265.19653	0.01966
1263.91076	0.01967
1262.62499	0.01969
1261.33922	0.01972
1260.05345	0.01976
1258.76768	0.01976
1257.48191	0.01972
1256.19614	0.01967
1254.91037	0.01968
1253.62461	0.01974
1252.33884	0.01982
1251.05307	0.01987
1249.76730	0.01989
1248.48153	0.01986
1247.19576	0.01982
1245.90999	0.01979
1244.62422	0.01979
1243.33846	0.01982
1242.05269	0.01984
1240.76692	0.01982
1239.48115	0.01977
1238.19538	0.01970
1236.90961	0.01965
1235.62384	0.01960
1234.33807	0.01953
1233.05230	0.01944
1231.76654	0.01930
1230.48077	0.01914
1229.19500	0.01896
1227.90923	0.01880
1226.62346	0.01865
1225.33769	0.01851
1224.05192	0.01837
1222.76615	0.01823
1221.48039	0.01808
1220.19462	0.01792
1218.90885	0.01774
1217.62308	0.01757
1216.33731	0.01742
1215.05154	0.01733
1213.76577	0.01731
1212.48000	0.01733
1211.19423	0.01736
1209.90847	0.01736
1208.62270	0.01734
1207.33693	0.01731
1206.05116	0.01726
1204.76539	0.01723
1203.47962	0.01724
1202.19385	0.01730
1200.90808	0.01734
1199.62232	0.01730
1198.33655	0.01730
1197.05078	0.01720
1195.76501	0.01704
1194.47924	0.01688
1193.19347	0.01675
1191.90770	0.01666
1190.62193	0.01657
1189.33616	0.01648
1188.05040	0.01644
1186.76463	0.01644
1185.47886	0.01645
1184.19309	0.01640
1182.90732	0.01629
1181.62155	0.01616
1180.33578	0.01607
1179.05001	0.01602
1177.76425	0.01597
1176.47848	0.01590
1175.19271	0.01582
1173.90694	0.01578
1172.62117	0.01581
1171.33540	0.01591
1170.04963	0.01604
1168.76386	0.01615
1167.47809	0.01623
1166.19233	0.01631
1164.90656	0.01640
1163.62079	0.01648
1162.33502	0.01653
1161.04925	0.01657
1159.76348	0.01660
1158.47771	0.01660
1157.19194	0.01656
1155.90618	0.01650
1154.62041	0.01644
1153.33464	0.01644
1152.04887	0.01652
1150.76310	0.01665
1149.47733	0.01680
1148.19156	0.01698
1146.90579	0.01718
1145.62002	0.01738
1144.33426	0.01755
1143.04849	0.01772
1141.76272	0.01792
1140.47695	0.01816
1139.19118	0.01846
1137.90541	0.01887
1136.61964	0.01944
1135.33387	0.02013
1134.04811	0.02088
1132.76234	0.02164
1131.47657	0.02240
1130.19080	0.02319
1128.90503	0.02403
1127.61926	0.02494
1126.33349	0.02601
1125.04772	0.02727
1123.76195	0.02867
1122.47619	0.03015
1121.19042	0.03166
1119.90465	0.03324
1118.61888	0.03489
1117.33311	0.03658
1116.04734	0.03825
1114.76157	0.03984
1113.47580	0.04134
1112.19004	0.04278
1110.90427	0.04416
1109.61850	0.04551
1108.33273	0.04686
1107.04696	0.04819
1105.76119	0.04950
1104.47542	0.05078
1103.18965	0.05205
1101.90388	0.05328
1100.61812	0.05442
1099.33235	0.05544
1098.04658	0.05635
1096.76081	0.05723
1095.47504	0.05812
1094.18927	0.05897
1092.90350	0.05971
1091.61773	0.06037
1090.33197	0.06101
1089.04620	0.06171
1087.76043	0.06246
1086.47466	0.06325
1085.18889	0.06405
1083.90312	0.06484
1082.61735	0.06560
1081.33158	0.06636
1080.04581	0.06720
1078.76005	0.06811
1077.47428	0.06904
1076.18851	0.06998
1074.90274	0.07095
1073.61697	0.07199
1072.33120	0.07317
1071.04543	0.07445
1069.75966	0.07576
1068.47390	0.07706
1067.18813	0.07833
1065.90236	0.07965
1064.61659	0.08105
1063.33082	0.08251
1062.04505	0.08395
1060.75928	0.08538
1059.47351	0.08682
1058.18774	0.08828
1056.90198	0.08969
1055.61621	0.09099
1054.33044	0.09219
1053.04467	0.09338
1051.75890	0.09464
1050.47313	0.09597
1049.18736	0.09732
1047.90159	0.09864
1046.61583	0.09991
1045.33006	0.10117
1044.04429	0.10247
1042.75852	0.10387
1041.47275	0.10533
1040.18698	0.10681
1038.90121	0.10828
1037.61544	0.10972
1036.32967	0.11114
1035.04391	0.11254
1033.75814	0.11394
1032.47237	0.11530
1031.18660	0.11653
1029.90083	0.11757
1028.61506	0.11843
1027.32929	0.11917
1026.04352	0.11986
1024.75775	0.12050
1023.47199	0.12103
1022.18622	0.12142
1020.90045	0.12163
1019.61468	0.12166
1018.32891	0.12151
1017.04314	0.12121
1015.75737	0.12078
1014.47160	0.12023
1013.18584	0.11952
1011.90007	0.11866
1010.61430	0.11762
1009.32853	0.11643
1008.04276	0.11505
1006.75699	0.11351
1005.47122	0.11180
1004.18545	0.10996
1002.89968	0.10801
1001.61392	0.10596
1000.32815	0.10382
999.04238	0.10162
997.75661	0.09934
996.47084	0.09698
995.18507	0.09453
993.89930	0.09203
992.61353	0.08956
991.32777	0.08717
990.04200	0.08483
988.75623	0.08247
987.47046	0.08009
986.18469	0.07778
984.89892	0.07558
983.61315	0.07351
982.32738	0.07156
981.04161	0.06971
979.75585	0.06799
978.47008	0.06638
977.18431	0.06486
975.89854	0.06339
974.61277	0.06196
973.32700	0.06062
972.04123	0.05943
970.75546	0.05849
969.46970	0.05781
968.18393	0.05738
966.89816	0.05717
965.61239	0.05717
964.32662	0.05732
963.04085	0.05758
961.75508	0.05783
960.46931	0.05797
959.18354	0.05794
957.89778	0.05766
956.61201	0.05708
955.32624	0.05625
954.04047	0.05527
952.75470	0.05424
951.46893	0.05317
950.18316	0.05203
948.89739	0.05086
947.61163	0.04975
946.32586	0.04876
945.04009	0.04785
943.75432	0.04697
942.46855	0.04612
941.18278	0.04539
939.89701	0.04476
938.61124	0.04415
937.32547	0.04345
936.03971	0.04262
934.75394	0.04175
933.46817	0.04089
932.18240	0.04009
930.89663	0.03935
929.61086	0.03867
928.32509	0.03808
927.03932	0.03757
925.75356	0.03716
924.46779	0.03685
923.18202	0.03661
921.89625	0.03636
920.61048	0.03606
919.32471	0.03569
918.03894	0.03527
916.75317	0.03482
915.46740	0.03438
914.18164	0.03398
912.89587	0.03368
911.61010	0.03343
910.32433	0.03319
909.03856	0.03288
907.75279	0.03248
906.46702	0.03205
905.18125	0.03168
903.89549	0.03140
902.60972	0.03119
901.32395	0.03099
900.03818	0.03077
898.75241	0.03052
897.46664	0.03025
896.18087	0.02994
894.89510	0.02963
893.60933	0.02935
892.32357	0.02915
891.03780	0.02900
889.75203	0.02890
888.46626	0.02890
887.18049	0.02909
885.89472	0.02951
884.60895	0.03017
883.32318	0.03103
882.03742	0.03200
880.75165	0.03298
879.46588	0.03385
878.18011	0.03460
876.89434	0.03530
875.60857	0.03605
874.32280	0.03686
873.03703	0.03758
871.75126	0.03801
870.46550	0.03804
869.17973	0.03770
867.89396	0.03713
866.60819	0.03639
865.32242	0.03547
864.03665	0.03437
862.75088	0.03323
861.46511	0.03219
860.17935	0.03136
858.89358	0.03068
857.60781	0.03006
856.32204	0.02948
855.03627	0.02897
853.75050	0.02864
852.46473	0.02849
851.17896	0.02842
849.89319	0.02831
848.60743	0.02810
847.32166	0.02783
846.03589	0.02752
844.75012	0.02723
843.46435	0.02698
842.17858	0.02680
840.89281	0.02668
839.60704	0.02659
838.32128	0.02644
837.03551	0.02625
835.74974	0.02607
834.46397	0.02596
833.17820	0.02591
831.89243	0.02583
830.60666	0.02565
829.32089	0.02541
828.03512	0.02516
826.74936	0.02495
825.46359	0.02481
824.17782	0.02476
822.89205	0.02480
821.60628	0.02488
820.32051	0.02491
819.03474	0.02485
817.74897	0.02475
816.46321	0.02467
815.17744	0.02461
813.89167	0.02457
812.60590	0.02452
811.32013	0.02448
810.03436	0.02443
808.74859	0.02435
807.46282	0.02426
806.17705	0.02424
804.89129	0.02432
803.60552	0.02445
802.31975	0.02451
801.03398	0.02446
799.74821	0.02435
798.46244	0.02431
797.17667	0.02445
795.89090	0.02472
794.60513	0.02497
793.31937	0.02506
792.03360	0.02495
790.74783	0.02477
789.46206	0.02465
788.17629	0.02462
786.89052	0.02462
785.60475	0.02459
784.31898	0.02452
783.03322	0.02449
781.74745	0.02454
780.46168	0.02464
779.17591	0.02472
777.89014	0.02472
776.60437	0.02464
775.31860	0.02451
774.03283	0.02434
772.74706	0.02417
771.46130	0.02404
770.17553	0.02401
768.88976	0.02408
767.60399	0.02418
766.31822	0.02424
765.03245	0.02424
763.74668	0.02419
762.46091	0.02416
761.17515	0.02416
759.88938	0.02416
758.60361	0.02412
757.31784	0.02406
756.03207	0.02401
754.74630	0.02406
753.46053	0.02420
752.17476	0.02436
750.88899	0.02446
749.60323	0.02446
748.31746	0.02439
747.03169	0.02428
745.74592	0.02418
744.46015	0.02404
743.17438	0.02387
741.88861	0.02370
740.60284	0.02356
739.31708	0.02346
738.03131	0.02341
736.74554	0.02341
735.45977	0.02343
734.17400	0.02347
732.88823	0.02351
731.60246	0.02358
730.31669	0.02367
729.03092	0.02379
727.74516	0.02392
726.45939	0.02401
725.17362	0.02405
723.88785	0.02412
722.60208	0.02417
721.31631	0.02418
720.03054	0.02410
718.74477	0.02395
717.45901	0.02381
716.17324	0.02374
714.88747	0.02373
713.60170	0.02375
712.31593	0.02378
711.03016	0.02379
709.74439	0.02379
708.45862	0.02379
707.17285	0.02380
705.88709	0.02383
704.60132	0.02385
703.31555	0.02386
702.02978	0.02387
700.74401	0.02384
699.45824	0.02374
698.17247	0.02360
696.88670	0.02349
695.60094	0.02350
694.31517	0.02363
693.02940	0.02378
691.74363	0.02386
690.45786	0.02383
689.17209	0.02371
687.88632	0.02358
686.60055	0.02348
685.31478	0.02342
684.02902	0.02339
682.74325	0.02335
681.45748	0.02330
680.17171	0.02323
678.88594	0.02317
677.60017	0.02312
676.31440	0.02309
675.02863	0.02309
673.74287	0.02315
672.45710	0.02323
671.17133	0.02321
669.88556	0.02320
668.59979	0.02366
667.31402	0.02382
666.02825	0.02337
664.74248	0.02345
663.45671	0.02347
662.17095	0.02334
660.88518	0.02320
659.59941	0.02309
658.31364	0.02301
657.02787	0.02295
655.74210	0.02289
654.45633	0.02281
653.17056	0.02270
651.88480	0.02255
650.59903	0.02244
649.31326	0.02242
648.02749	0.02250
646.74172	0.02265
645.45595	0.02276
644.17018	0.02277
642.88441	0.02270
641.59864	0.02263
640.31288	0.02261
639.02711	0.02263
637.74134	0.02266
636.45557	0.02268
635.16980	0.02270
633.88403	0.02274
632.59826	0.02278
631.31249	0.02289
630.02673	0.02342
628.74096	0.02417
627.45519	0.02366
626.16942	0.02460
624.88365	0.02645
623.59788	0.02804
622.31211	0.02896
621.02634	0.02925
619.74057	0.02913
618.45481	0.02872
617.16904	0.02814
615.88327	0.02768
614.59750	0.02805
613.31173	0.03003
612.02596	0.03394
610.74019	0.03921
609.45442	0.04451
608.16866	0.04859
606.88289	0.05104
605.59712	0.05234
604.31135	0.05321
603.02558	0.05401
601.73981	0.05461
600.45404	0.05467
599.16827	0.05399
597.88250	0.05267
596.59674	0.05101
595.31097	0.04938
594.02520	0.04812
592.73943	0.04731
591.45366	0.04680
590.16789	0.04640
588.88212	0.04607
587.59635	0.04590
586.31059	0.04599
585.02482	0.04639
583.73905	0.04705
582.45328	0.04795
581.16751	0.04909
579.88174	0.05044
578.59597	0.05189
577.31020	0.05332
576.02443	0.05468
574.73867	0.05593
573.45290	0.05707
572.16713	0.05815
570.88136	0.05931
569.59559	0.06073
568.30982	0.06244
567.02405	0.06428
565.73828	0.06602
564.45251	0.06752
563.16675	0.06870
561.88098	0.06943
560.59521	0.06949
559.30944	0.06874
558.02367	0.06723
556.73790	0.06521
555.45213	0.06298
554.16636	0.06067
552.88060	0.05832
551.59483	0.05594
550.30906	0.05364
549.02329	0.05162
547.73752	0.04994
546.45175	0.04849
545.16598	0.04711
543.88021	0.04573
542.59444	0.04442
541.30868	0.04321
540.02291	0.04214
538.73714	0.04120
537.45137	0.04035
536.16560	0.03956
534.87983	0.03885
533.59406	0.03824
532.30829	0.03773
531.02253	0.03720
529.73676	0.03660
528.45099	0.03594
527.16522	0.03532
525.87945	0.03478
524.59368	0.03427
523.30791	0.03373
522.02214	0.03316
520.73637	0.03260
519.45061	0.03215
518.16484	0.03182
516.87907	0.03159
515.59330	0.03136
514.30753	0.03107
513.02176	0.03070
511.73599	0.03027
510.45022	0.02980
509.16446	0.02936
507.87869	0.02895
506.59292	0.02856
505.30715	0.02818
504.02138	0.02780
502.73561	0.02747
501.44984	0.02719
500.16407	0.02694
498.87830	0.02666
497.59254	0.02638
496.30677	0.02614
495.02100	0.02595
493.73523	0.02582
492.44946	0.02572
491.16369	0.02564
489.87792	0.02553
488.59215	0.02540
487.30639	0.02527
486.02062	0.02514
484.73485	0.02503
483.44908	0.02492
482.16331	0.02483
480.87754	0.02478
479.59177	0.02479
478.30600	0.02489
477.02023	0.02507
475.73447	0.02529
474.44870	0.02547
473.16293	0.02557
471.87716	0.02559
470.59139	0.02559
469.30562	0.02562
468.01985	0.02568
466.73408	0.02569
465.44832	0.02560
464.16255	0.02539
462.87678	0.02512
461.59101	0.02484
460.30524	0.02458
459.01947	0.02431
457.73370	0.02396
456.44793	0.02355
455.16216	0.02313
453.87640	0.02278
452.59063	0.02249
451.30486	0.02224
450.01909	0.02204
448.73332	0.02190
447.44755	0.02182
446.16178	0.02174
444.87601	0.02159
443.59025	0.02139
442.30448	0.02119
441.01871	0.02102
439.73294	0.02086
438.44717	0.02071
437.16140	0.02058
435.87563	0.02045
434.58986	0.02033
433.30409	0.02024
432.01833	0.02020
430.73256	0.02022
429.44679	0.02023
428.16102	0.02017
426.87525	0.02003
425.58948	0.01984
424.30371	0.01963
423.01794	0.01940
421.73218	0.01919
420.44641	0.01900
419.16064	0.01885
417.87487	0.01869
416.58910	0.01852
415.30333	0.01835
414.01756	0.01822
412.73179	0.01815
411.44602	0.01810
410.16026	0.01804
408.87449	0.01795
407.58872	0.01781
406.30295	0.01767
405.01718	0.01756
403.73141	0.01750
402.44564	0.01749
401.15987	0.01751
399.87411	0.01753
