3997.45528 0.06076
3996.16951 0.06178
3994.88374 0.06205
3993.59798 0.06144
3992.31221 0.06063
3991.02644 0.06029
3989.74067 0.06031
3988.45490 0.06008
3987.16913 0.05929
3985.88336 0.05823
3984.59759 0.05734
3983.31183 0.05667
3982.02606 0.05601
3980.74029 0.05546
3979.45452 0.05541
3978.16875 0.05607
3976.88298 0.05717
3975.59721 0.05833
3974.31144 0.05934
3973.02567 0.05991
3971.73991 0.05961
3970.45414 0.05843
3969.16837 0.05721
3967.88260 0.05694
3966.59683 0.05785
3965.31106 0.05919
3964.02529 0.05995
3962.73952 0.05969
3961.45376 0.05880
3960.16799 0.05806
3958.88222 0.05788
3957.59645 0.05804
3956.31068 0.05803
3955.02491 0.05774
3953.73914 0.05744
3952.45337 0.05750
3951.16760 0.05797
3949.88184 0.05851
3948.59607 0.05865
3947.31030 0.05823
3946.02453 0.05755
3944.73876 0.05698
3943.45299 0.05676
3942.16722 0.05704
3940.88145 0.05785
3939.59569 0.05892
3938.30992 0.05982
3937.02415 0.06031
3935.73838 0.06038
3934.45261 0.06014
3933.16684 0.05959
3931.88107 0.05881
3930.59530 0.05798
3929.30953 0.05725
3928.02377 0.05673
3926.73800 0.05665
3925.45223 0.05720
3924.16646 0.05810
3922.88069 0.05872
3921.59492 0.05862
3920.30915 0.05790
3919.02338 0.05686
3917.73762 0.05574
3916.45185 0.05485
3915.16608 0.05453
3913.88031 0.05482
3912.59454 0.05532
3911.30877 0.05568
3910.02300 0.05587
3908.73723 0.05598
3907.45146 0.05593
3906.16570 0.05561
3904.87993 0.05520
3903.59416 0.05513
3902.30839 0.05564
3901.02262 0.05656
3899.73685 0.05756
3898.45108 0.05840
3897.16531 0.05900
3895.87955 0.05953
3894.59378 0.06022
3893.30801 0.06105
3892.02224 0.06164
3890.73647 0.06148
3889.45070 0.06039
3888.16493 0.05866
3886.87916 0.05706
3885.59339 0.05633
3884.30763 0.05654
3883.02186 0.05699
3881.73609 0.05690
3880.45032 0.05623
3879.16455 0.05554
3877.87878 0.05523
3876.59301 0.05516
3875.30724 0.05504
3874.02148 0.05501
3872.73571 0.05548
3871.44994 0.05657
3870.16417 0.05778
3868.87840 0.05827
3867.59263 0.05765
3866.30686 0.05637
3865.02109 0.05518
3863.73532 0.05435
3862.44956 0.05366
3861.16379 0.05305
3859.87802 0.05280
3858.59225 0.05305
3857.30648 0.05367
3856.02071 0.05451
3854.73494 0.05551
3853.44917 0.05651
3852.16341 0.05710
3850.87764 0.05717
3849.59187 0.05711
3848.30610 0.05741
3847.02033 0.05812
3845.73456 0.05888
3844.44879 0.05940
3843.16302 0.05948
3841.87725 0.05888
3840.59149 0.05744
3839.30572 0.05539
3838.01995 0.05340
3836.73418 0.05219
3835.44841 0.05195
3834.16264 0.05244
3832.87687 0.05326
3831.59110 0.05416
3830.30534 0.05497
3829.01957 0.05555
3827.73380 0.05568
3826.44803 0.05517
3825.16226 0.05397
3823.87649 0.05230
3822.59072 0.05071
3821.30495 0.04992
3820.01918 0.05026
3818.73342 0.05133
3817.44765 0.05246
3816.16188 0.05337
3814.87611 0.05414
3813.59034 0.05469
3812.30457 0.05483
3811.01880 0.05460
3809.73303 0.05430
3808.44726 0.05405
3807.16150 0.05369
3805.87573 0.05296
3804.58996 0.05192
3803.30419 0.05112
3802.01842 0.05126
3800.73265 0.05252
3799.44688 0.05432
3798.16111 0.05581
3796.87535 0.05658
3795.58958 0.05656
3794.30381 0.05582
3793.01804 0.05458
3791.73227 0.05325
3790.44650 0.05217
3789.16073 0.05138
3787.87496 0.05086
3786.58919 0.05085
3785.30343 0.05163
3784.01766 0.05297
3782.73189 0.05410
3781.44612 0.05433
3780.16035 0.05367
3778.87458 0.05271
3777.58881 0.05194
3776.30304 0.05141
3775.01728 0.05097
3773.73151 0.05062
3772.44574 0.05067
3771.15997 0.05153
3769.87420 0.05321
3768.58843 0.05512
3767.30266 0.05629
3766.01689 0.05613
3764.73112 0.05487
3763.44536 0.05338
3762.15959 0.05246
3760.87382 0.05240
3759.58805 0.05290
3758.30228 0.05349
3757.01651 0.05396
3755.73074 0.05428
3754.44497 0.05430
3753.15921 0.05385
3751.87344 0.05297
3750.58767 0.05197
3749.30190 0.05143
3748.01613 0.05170
3746.73036 0.05254
3745.44459 0.05331
3744.15882 0.05349
3742.87305 0.05310
3741.58729 0.05258
3740.30152 0.05252
3739.01575 0.05298
3737.72998 0.05342
3736.44421 0.05336
3735.15844 0.05281
3733.87267 0.05205
3732.58690 0.05130
3731.30114 0.05072
3730.01537 0.05040
3728.72960 0.05032
3727.44383 0.05038
3726.15806 0.05059
3724.87229 0.05102
3723.58652 0.05154
3722.30075 0.05179
3721.01498 0.05144
3719.72922 0.05065
3718.44345 0.04994
3717.15768 0.04959
3715.87191 0.04933
3714.58614 0.04878
3713.30037 0.04798
3712.01460 0.04727
3710.72883 0.04696
3709.44307 0.04705
3708.15730 0.04752
3706.87153 0.04827
3705.58576 0.04903
3704.29999 0.04947
3703.01422 0.04940
3701.72845 0.04892
3700.44268 0.04825
3699.15691 0.04772
3697.87115 0.04751
3696.58538 0.04750
3695.29961 0.04745
3694.01384 0.04731
3692.72807 0.04752
3691.44230 0.04842
3690.15653 0.04964
3688.87076 0.05030
3687.58500 0.04995
3686.29923 0.04903
3685.01346 0.04820
3683.72769 0.04772
3682.44192 0.04750
3681.15615 0.04757
3679.87038 0.04817
3678.58461 0.04929
3677.29884 0.05036
3676.01308 0.05081
3674.72731 0.05061
3673.44154 0.05030
3672.15577 0.05047
3670.87000 0.05136
3669.58423 0.05262
3668.29846 0.05359
3667.01269 0.05386
3665.72693 0.05337
3664.44116 0.05230
3663.15539 0.05109
3661.86962 0.05030
3660.58385 0.05030
3659.29808 0.05091
3658.01231 0.05164
3656.72654 0.05222
3655.44077 0.05255
3654.15501 0.05251
3652.86924 0.05199
3651.58347 0.05114
3650.29770 0.05033
3649.01193 0.04982
3647.72616 0.04961
3646.44039 0.04957
3645.15462 0.04971
3643.86886 0.05023
3642.58309 0.05123
3641.29732 0.05250
3640.01155 0.05364
3638.72578 0.05438
3637.44001 0.05459
3636.15424 0.05423
3634.86847 0.05348
3633.58270 0.05289
3632.29694 0.05295
3631.01117 0.05365
3629.72540 0.05451
3628.43963 0.05507
3627.15386 0.05506
3625.86809 0.05436
3624.58232 0.05311
3623.29655 0.05170
3622.01079 0.05058
3620.72502 0.05017
3619.43925 0.05054
3618.15348 0.05132
3616.86771 0.05189
3615.58194 0.05201
3614.29617 0.05208
3613.01040 0.05264
3611.72463 0.05370
3610.43887 0.05480
3609.15310 0.05564
3607.86733 0.05626
3606.58156 0.05663
3605.29579 0.05659
3604.01002 0.05625
3602.72425 0.05594
3601.43848 0.05599
3600.15272 0.05648
3598.86695 0.05738
3597.58118 0.05839
3596.29541 0.05910
3595.00964 0.05917
3593.72387 0.05875
3592.43810 0.05826
3591.15233 0.05786
3589.86656 0.05746
3588.58080 0.05688
3587.29503 0.05627
3586.00926 0.05600
3584.72349 0.05630
3583.43772 0.05703
3582.15195 0.05778
3580.86618 0.05833
3579.58041 0.05883
3578.29464 0.05963
3577.00888 0.06078
3575.72311 0.06194
3574.43734 0.06261
3573.15157 0.06254
3571.86580 0.06190
3570.58003 0.06111
3569.29426 0.06055
3568.00849 0.06040
3566.72273 0.06070
3565.43696 0.06144
3564.15119 0.06257
3562.86542 0.06387
3561.57965 0.06491
3560.29388 0.06542
3559.00811 0.06554
3557.72234 0.06562
3556.43657 0.06577
3555.15081 0.06572
3553.86504 0.06533
3552.57927 0.06494
3551.29350 0.06494
3550.00773 0.06517
3548.72196 0.06518
3547.43619 0.06486
3546.15042 0.06459
3544.86466 0.06464
3543.57889 0.06484
3542.29312 0.06495
3541.00735 0.06504
3539.72158 0.06542
3538.43581 0.06622
3537.15004 0.06716
3535.86427 0.06780
3534.57850 0.06788
3533.29274 0.06758
3532.00697 0.06725
3530.72120 0.06719
3529.43543 0.06739
3528.14966 0.06765
3526.86389 0.06776
3525.57812 0.06775
3524.29235 0.06783
3523.00659 0.06818
3521.72082 0.06873
3520.43505 0.06918
3519.14928 0.06928
3517.86351 0.06897
3516.57774 0.06848
3515.29197 0.06829
3514.00620 0.06876
3512.72043 0.06979
3511.43467 0.07087
3510.14890 0.07146
3508.86313 0.07145
3507.57736 0.07107
3506.29159 0.07070
3505.00582 0.07074
3503.72005 0.07137
3502.43428 0.07237
3501.14852 0.07322
3499.86275 0.07359
3498.57698 0.07355
3497.29121 0.07341
3496.00544 0.07333
3494.71967 0.07329
3493.43390 0.07319
3492.14813 0.07295
3490.86236 0.07265
3489.57660 0.07244
3488.29083 0.07245
3487.00506 0.07269
3485.71929 0.07311
3484.43352 0.07358
3483.14775 0.07393
3481.86198 0.07409
3480.57621 0.07422
3479.29045 0.07455
3478.00468 0.07500
3476.71891 0.07514
3475.43314 0.07469
3474.14737 0.07397
3472.86160 0.07363
3471.57583 0.07404
3470.29006 0.07495
3469.00429 0.07572
3467.71853 0.07590
3466.43276 0.07546
3465.14699 0.07483
3463.86122 0.07445
3462.57545 0.07445
3461.28968 0.07466
3460.00391 0.07484
3458.71814 0.07489
3457.43238 0.07480
3456.14661 0.07464
3454.86084 0.07455
3453.57507 0.07467
3452.28930 0.07494
3451.00353 0.07515
3449.71776 0.07525
3448.43199 0.07549
3447.14622 0.07602
3445.86046 0.07663
3444.57469 0.07694
3443.28892 0.07691
3442.00315 0.07680
3440.71738 0.07684
3439.43161 0.07708
3438.14584 0.07742
3436.86007 0.07785
3435.57431 0.07833
3434.28854 0.07878
3433.00277 0.07908
3431.71700 0.07912
3430.43123 0.07890
3429.14546 0.07845
3427.85969 0.07782
3426.57392 0.07714
3425.28815 0.07665
3424.00239 0.07664
3422.71662 0.07713
3421.43085 0.07788
3420.14508 0.07857
3418.85931 0.07901
3417.57354 0.07920
3416.28777 0.07929
3415.00200 0.07949
3413.71624 0.07987
3412.43047 0.08024
3411.14470 0.08034
3409.85893 0.08003
3408.57316 0.07951
3407.28739 0.07906
3406.00162 0.07891
3404.71585 0.07906
3403.43008 0.07946
3402.14432 0.08013
3400.85855 0.08112
3399.57278 0.08223
3398.28701 0.08299
3397.00124 0.08309
3395.71547 0.08263
3394.42970 0.08203
3393.14393 0.08161
3391.85817 0.08146
3390.57240 0.08149
3389.28663 0.08170
3388.00086 0.08204
3386.71509 0.08226
3385.42932 0.08205
3384.14355 0.08140
3382.85778 0.08072
3381.57201 0.08042
3380.28625 0.08054
3379.00048 0.08082
3377.71471 0.08096
3376.42894 0.08085
3375.14317 0.08055
3373.85740 0.08030
3372.57163 0.08035
3371.28586 0.08087
3370.00010 0.08167
3368.71433 0.08240
3367.42856 0.08276
3366.14279 0.08269
3364.85702 0.08233
3363.57125 0.08193
3362.28548 0.08173
3360.99971 0.08179
3359.71394 0.08200
3358.42818 0.08220
3357.14241 0.08234
3355.85664 0.08261
3354.57087 0.08313
3353.28510 0.08375
3351.99933 0.08407
3350.71356 0.08388
3349.42779 0.08334
3348.14202 0.08282
3346.85626 0.08247
3345.57049 0.08223
3344.28472 0.08201
3342.99895 0.08181
3341.71318 0.08170
3340.42741 0.08165
3339.14164 0.08166
3337.85587 0.08175
3336.57011 0.08197
3335.28434 0.08221
3333.99857 0.08221
3332.71280 0.08175
3331.42703 0.08098
3330.14126 0.08035
3328.85549 0.08021
3327.56972 0.08053
3326.28395 0.08097
3324.99819 0.08123
3323.71242 0.08131
3322.42665 0.08141
3321.14088 0.08170
3319.85511 0.08212
3318.56934 0.08245
3317.28357 0.08255
3315.99780 0.08248
3314.71204 0.08251
3313.42627 0.08274
3312.14050 0.08300
3310.85473 0.08297
3309.56896 0.08260
3308.28319 0.08218
3306.99742 0.08207
3305.71165 0.08229
3304.42588 0.08259
3303.14012 0.08275
3301.85435 0.08270
3300.56858 0.08253
3299.28281 0.08238
3297.99704 0.08232
3296.71127 0.08230
3295.42550 0.08217
3294.13973 0.08189
3292.85397 0.08156
3291.56820 0.08139
3290.28243 0.08144
3288.99666 0.08150
3287.71089 0.08136
3286.42512 0.08103
3285.13935 0.08078
3283.85358 0.08087
3282.56781 0.08126
3281.28205 0.08171
3279.99628 0.08202
3278.71051 0.08200
3277.42474 0.08156
3276.13897 0.08082
3274.85320 0.08017
3273.56743 0.07997
3272.28166 0.08029
3270.99590 0.08093
3269.71013 0.08159
3268.42436 0.08202
3267.13859 0.08211
3265.85282 0.08197
3264.56705 0.08182
3263.28128 0.08182
3261.99551 0.08193
3260.70974 0.08197
3259.42398 0.08173
3258.13821 0.08116
3256.85244 0.08043
3255.56667 0.07981
3254.28090 0.07952
3252.99513 0.07953
3251.70936 0.07971
3250.42359 0.07991
3249.13783 0.08001
3247.85206 0.07989
3246.56629 0.07951
3245.28052 0.07901
3243.99475 0.07862
3242.70898 0.07848
3241.42321 0.07854
3240.13744 0.07862
3238.85167 0.07861
3237.56591 0.07851
3236.28014 0.07842
3234.99437 0.07839
3233.70860 0.07834
3232.42283 0.07823
3231.13706 0.07823
3229.85129 0.07858
3228.56552 0.07926
3227.27976 0.07989
3225.99399 0.08011
3224.70822 0.07990
3223.42245 0.07950
3222.13668 0.07919
3220.85091 0.07906
3219.56514 0.07906
3218.27937 0.07907
3216.99360 0.07897
3215.70784 0.07875
3214.42207 0.07845
3213.13630 0.07817
3211.85053 0.07798
3210.56476 0.07793
3209.27899 0.07798
3207.99322 0.07800
3206.70745 0.07786
3205.42169 0.07751
3204.13592 0.07696
3202.85015 0.07635
3201.56438 0.07584
3200.27861 0.07564
3198.99284 0.07579
3197.70707 0.07614
3196.42130 0.07640
3195.13553 0.07641
3193.84977 0.07624
3192.56400 0.07607
3191.27823 0.07597
3189.99246 0.07585
3188.70669 0.07561
3187.42092 0.07538
3186.13515 0.07539
3184.84938 0.07570
3183.56362 0.07610
3182.27785 0.07635
3180.99208 0.07637
3179.70631 0.07619
3178.42054 0.07585
3177.13477 0.07539
3175.84900 0.07493
3174.56323 0.07462
3173.27746 0.07449
3171.99170 0.07447
3170.70593 0.07454
3169.42016 0.07474
3168.13439 0.07499
3166.84862 0.07511
3165.56285 0.07492
3164.27708 0.07448
3162.99131 0.07401
3161.70555 0.07375
3160.41978 0.07374
3159.13401 0.07388
3157.84824 0.07396
3156.56247 0.07395
3155.27670 0.07401
3153.99093 0.07423
3152.70516 0.07447
3151.41939 0.07447
3150.13363 0.07417
3148.84786 0.07375
3147.56209 0.07334
3146.27632 0.07298
3144.99055 0.07268
3143.70478 0.07252
3142.41901 0.07259
3141.13324 0.07283
3139.84748 0.07311
3138.56171 0.07333
3137.27594 0.07338
3135.99017 0.07325
3134.70440 0.07298
3133.41863 0.07269
3132.13286 0.07240
3130.84709 0.07209
3129.56132 0.07179
3128.27556 0.07158
3126.98979 0.07153
3125.70402 0.07164
3124.41825 0.07186
3123.13248 0.07202
3121.84671 0.07187
3120.56094 0.07128
3119.27517 0.07041
3117.98940 0.06956
3116.70364 0.06898
3115.41787 0.06877
3114.13210 0.06895
3112.84633 0.06945
3111.56056 0.07008
3110.27479 0.07057
3108.98902 0.07070
3107.70325 0.07048
3106.41749 0.07007
3105.13172 0.06967
3103.84595 0.06943
3102.56018 0.06946
3101.27441 0.06979
3099.98864 0.07022
3098.70287 0.07048
3097.41710 0.07035
3096.13133 0.06987
3094.84557 0.06919
3093.55980 0.06847
3092.27403 0.06785
3090.98826 0.06749
3089.70249 0.06747
3088.41672 0.06770
3087.13095 0.06793
3085.84518 0.06794
3084.55942 0.06771
3083.27365 0.06739
3081.98788 0.06721
3080.70211 0.06727
3079.41634 0.06748
3078.13057 0.06761
3076.84480 0.06753
3075.55903 0.06733
3074.27326 0.06728
3072.98750 0.06755
3071.70173 0.06794
3070.41596 0.06809
3069.13019 0.06780
3067.84442 0.06724
3066.55865 0.06681
3065.27288 0.06674
3063.98711 0.06700
3062.70135 0.06738
3061.41558 0.06772
3060.12981 0.06802
3058.84404 0.06835
3057.55827 0.06861
3056.27250 0.06860
3054.98673 0.06814
3053.70096 0.06736
3052.41519 0.06664
3051.12943 0.06633
3049.84366 0.06642
3048.55789 0.06660
3047.27212 0.06655
3045.98635 0.06620
3044.70058 0.06580
3043.41481 0.06558
3042.12904 0.06560
3040.84328 0.06571
3039.55751 0.06571
3038.27174 0.06556
3036.98597 0.06528
3035.70020 0.06492
3034.41443 0.06450
3033.12866 0.06407
3031.84289 0.06373
3030.55712 0.06353
3029.27136 0.06357
3027.98559 0.06384
3026.69982 0.06414
3025.41405 0.06421
3024.12828 0.06395
3022.84251 0.06356
3021.55674 0.06338
3020.27097 0.06358
3018.98521 0.06406
3017.69944 0.06456
3016.41367 0.06481
3015.12790 0.06469
3013.84213 0.06432
3012.55636 0.06385
3011.27059 0.06339
3009.98482 0.06294
3008.69905 0.06251
3007.41329 0.06218
3006.12752 0.06207
3004.84175 0.06220
3003.55598 0.06249
3002.27021 0.06281
3000.98444 0.06306
2999.69867 0.06311
2998.41290 0.06282
2997.12714 0.06225
2995.84137 0.06161
2994.55560 0.06119
2993.26983 0.06113
2991.98406 0.06132
2990.69829 0.06156
2989.41252 0.06176
2988.12675 0.06194
2986.84098 0.06220
2985.55522 0.06261
2984.26945 0.06314
2982.98368 0.06369
2981.69791 0.06412
2980.41214 0.06438
2979.12637 0.06454
2977.84060 0.06477
2976.55483 0.06522
2975.26907 0.06590
2973.98330 0.06666
2972.69753 0.06739
2971.41176 0.06808
2970.12599 0.06878
2968.84022 0.06950
2967.55445 0.07023
2966.26868 0.07096
2964.98291 0.07179
2963.69715 0.07285
2962.41138 0.07419
2961.12561 0.07559
2959.83984 0.07674
2958.55407 0.07748
2957.26830 0.07800
2955.98253 0.07853
2954.69676 0.07904
2953.41100 0.07925
2952.12523 0.07902
2950.83946 0.07856
2949.55369 0.07822
2948.26792 0.07819
2946.98215 0.07837
2945.69638 0.07850
2944.41061 0.07845
2943.12484 0.07825
2941.83908 0.07811
2940.55331 0.07821
2939.26754 0.07862
2937.98177 0.07929
2936.69600 0.08014
2935.41023 0.08114
2934.12446 0.08221
2932.83869 0.08325
2931.55293 0.08417
2930.26716 0.08489
2928.98139 0.08538
2927.69562 0.08568
2926.40985 0.08593
2925.12408 0.08627
2923.83831 0.08667
2922.55254 0.08697
2921.26677 0.08690
2919.98101 0.08634
2918.69524 0.08547
2917.40947 0.08461
2916.12370 0.08392
2914.83793 0.08319
2913.55216 0.08222
2912.26639 0.08111
2910.98062 0.08015
2909.69486 0.07953
2908.40909 0.07911
2907.12332 0.07871
2905.83755 0.07828
2904.55178 0.07786
2903.26601 0.07742
2901.98024 0.07684
2900.69447 0.07608
2899.40870 0.07527
2898.12294 0.07458
2896.83717 0.07412
2895.55140 0.07385
2894.26563 0.07370
2892.97986 0.07358
2891.69409 0.07334
2890.40832 0.07294
2889.12255 0.07242
2887.83678 0.07193
2886.55102 0.07148
2885.26525 0.07105
2883.97948 0.07062
2882.69371 0.07030
2881.40794 0.07016
2880.12217 0.07013
2878.83640 0.07012
2877.55063 0.07009
2876.26487 0.07013
2874.97910 0.07030
2873.69333 0.07063
2872.40756 0.07107
2871.12179 0.07148
2869.83602 0.07169
2868.55025 0.07169
2867.26448 0.07157
2865.97871 0.07144
2864.69295 0.07130
2863.40718 0.07116
2862.12141 0.07105
2860.83564 0.07097
2859.54987 0.07089
2858.26410 0.07080
2856.97833 0.07071
2855.69256 0.07065
2854.40680 0.07055
2853.12103 0.07033
2851.83526 0.06995
2850.54949 0.06945
2849.26372 0.06887
2847.97795 0.06817
2846.69218 0.06740
2845.40641 0.06671
2844.12064 0.06619
2842.83488 0.06568
2841.54911 0.06495
2840.26334 0.06395
2838.97757 0.06297
2837.69180 0.06230
2836.40603 0.06193
2835.12026 0.06156
2833.83449 0.06092
2832.54873 0.06005
2831.26296 0.05922
2829.97719 0.05866
2828.69142 0.05842
2827.40565 0.05838
2826.11988 0.05831
2824.83411 0.05798
2823.54834 0.05742
2822.26257 0.05693
2820.97681 0.05682
2819.69104 0.05707
2818.40527 0.05735
2817.11950 0.05726
2815.83373 0.05669
2814.54796 0.05593
2813.26219 0.05531
2811.97642 0.05495
2810.69066 0.05472
2809.40489 0.05451
2808.11912 0.05429
2806.83335 0.05407
2805.54758 0.05387
2804.26181 0.05380
2802.97604 0.05388
2801.69027 0.05399
2800.40450 0.05395
2799.11874 0.05369
2797.83297 0.05336
2796.54720 0.05315
2795.26143 0.05311
2793.97566 0.05312
2792.68989 0.05302
2791.40412 0.05277
2790.11835 0.05241
2788.83259 0.05200
2787.54682 0.05165
2786.26105 0.05152
2784.97528 0.05164
2783.68951 0.05186
2782.40374 0.05200
2781.11797 0.05197
2779.83220 0.05186
2778.54643 0.05173
2777.26067 0.05162
2775.97490 0.05154
2774.68913 0.05144
2773.40336 0.05132
2772.11759 0.05122
2770.83182 0.05120
2769.54605 0.05129
2768.26028 0.05138
2766.97452 0.05134
2765.68875 0.05110
2764.40298 0.05079
2763.11721 0.05054
2761.83144 0.05042
2760.54567 0.05038
2759.25990 0.05037
2757.97413 0.05037
2756.68836 0.05032
2755.40260 0.05014
2754.11683 0.04985
2752.83106 0.04966
2751.54529 0.04976
2750.25952 0.05013
2748.97375 0.05055
2747.68798 0.05074
2746.40221 0.05056
2745.11645 0.05010
2743.83068 0.04964
2742.54491 0.04946
2741.25914 0.04960
2739.97337 0.04980
2738.68760 0.04982
2737.40183 0.04963
2736.11606 0.04942
2734.83029 0.04928
2733.54453 0.04921
2732.25876 0.04912
2730.97299 0.04900
2729.68722 0.04885
2728.40145 0.04872
2727.11568 0.04866
2725.82991 0.04869
2724.54414 0.04874
2723.25838 0.04871
2721.97261 0.04853
2720.68684 0.04826
2719.40107 0.04799
2718.11530 0.04778
2716.82953 0.04763
2715.54376 0.04753
2714.25799 0.04749
2712.97222 0.04751
2711.68646 0.04754
2710.40069 0.04750
2709.11492 0.04740
2707.82915 0.04736
2706.54338 0.04744
2705.25761 0.04755
2703.97184 0.04754
2702.68607 0.04742
2701.40031 0.04730
2700.11454 0.04722
2698.82877 0.04712
2697.54300 0.04698
2696.25723 0.04685
2694.97146 0.04678
2693.68569 0.04677
2692.39992 0.04676
2691.11415 0.04672
2689.82839 0.04669
2688.54262 0.04665
2687.25685 0.04655
2685.97108 0.04634
2684.68531 0.04605
2683.39954 0.04579
2682.11377 0.04560
2680.82800 0.04543
2679.54224 0.04523
2678.25647 0.04509
2676.97070 0.04517
2675.68493 0.04552
2674.39916 0.04594
2673.11339 0.04618
2671.82762 0.04611
2670.54185 0.04587
2669.25608 0.04579
2667.97032 0.04601
2666.68455 0.04640
2665.39878 0.04666
2664.11301 0.04664
2662.82724 0.04646
2661.54147 0.04630
2660.25570 0.04615
2658.96993 0.04590
2657.68417 0.04554
2656.39840 0.04524
2655.11263 0.04512
2653.82686 0.04506
2652.54109 0.04492
2651.25532 0.04471
2649.96955 0.04458
2648.68378 0.04460
2647.39801 0.04469
2646.11225 0.04470
2644.82648 0.04459
2643.54071 0.04446
2642.25494 0.04438
2640.96917 0.04433
2639.68340 0.04413
2638.39763 0.04367
2637.11186 0.04305
2635.82609 0.04246
2634.54033 0.04205
2633.25456 0.04186
2631.96879 0.04188
2630.68302 0.04212
2629.39725 0.04244
2628.11148 0.04260
2626.82571 0.04244
2625.53994 0.04209
2624.25418 0.04180
2622.96841 0.04171
2621.68264 0.04174
2620.39687 0.04169
2619.11110 0.04138
2617.82533 0.04073
2616.53956 0.03988
2615.25379 0.03915
2613.96802 0.03874
2612.68226 0.03864
2611.39649 0.03874
2610.11072 0.03900
2608.82495 0.03939
2607.53918 0.03978
2606.25341 0.03999
2604.96764 0.03996
2603.68187 0.03974
2602.39611 0.03944
2601.11034 0.03915
2599.82457 0.03889
2598.53880 0.03870
2597.25303 0.03862
2595.96726 0.03870
2594.68149 0.03893
2593.39572 0.03923
2592.10995 0.03940
2590.82419 0.03921
2589.53842 0.03862
2588.25265 0.03786
2586.96688 0.03732
2585.68111 0.03717
2584.39534 0.03728
2583.10957 0.03741
2581.82380 0.03749
2580.53804 0.03759
2579.25227 0.03779
2577.96650 0.03798
2576.68073 0.03798
2575.39496 0.03771
2574.10919 0.03726
2572.82342 0.03678
2571.53765 0.03636
2570.25188 0.03601
2568.96612 0.03574
2567.68035 0.03562
2566.39458 0.03574
2565.10881 0.03610
2563.82304 0.03660
2562.53727 0.03704
2561.25150 0.03730
2559.96573 0.03739
2558.67997 0.03737
2557.39420 0.03724
2556.10843 0.03701
2554.82266 0.03678
2553.53689 0.03660
2552.25112 0.03635
2550.96535 0.03586
2549.67958 0.03521
2548.39381 0.03474
2547.10805 0.03477
2545.82228 0.03521
2544.53651 0.03561
2543.25074 0.03555
2541.96497 0.03502
2540.67920 0.03436
2539.39343 0.03396
2538.10766 0.03397
2536.82190 0.03431
2535.53613 0.03484
2534.25036 0.03538
2532.96459 0.03578
2531.67882 0.03594
2530.39305 0.03585
2529.10728 0.03556
2527.82151 0.03517
2526.53574 0.03480
2525.24998 0.03465
2523.96421 0.03482
2522.67844 0.03518
2521.39267 0.03536
2520.10690 0.03509
2518.82113 0.03447
2517.53536 0.03388
2516.24959 0.03363
2514.96383 0.03371
2513.67806 0.03391
2512.39229 0.03400
2511.10652 0.03392
2509.82075 0.03381
2508.53498 0.03387
2507.24921 0.03415
2505.96344 0.03455
2504.67767 0.03490
2503.39191 0.03500
2502.10614 0.03475
2500.82037 0.03427
2499.53460 0.03392
2498.24883 0.03395
2496.96306 0.03418
2495.67729 0.03424
2494.39152 0.03393
2493.10576 0.03342
2491.81999 0.03301
2490.53422 0.03295
2489.24845 0.03332
2487.96268 0.03396
2486.67691 0.03448
2485.39114 0.03465
2484.10537 0.03452
2482.81960 0.03433
2481.53384 0.03419
2480.24807 0.03398
2478.96230 0.03354
2477.67653 0.03292
2476.39076 0.03242
2475.10499 0.03219
2473.81922 0.03218
2472.53345 0.03221
2471.24769 0.03225
2469.96192 0.03240
2468.67615 0.03272
2467.39038 0.03312
2466.10461 0.03340
2464.81884 0.03341
2463.53307 0.03322
2462.24730 0.03308
2460.96153 0.03321
2459.67577 0.03353
2458.39000 0.03376
2457.10423 0.03373
2455.81846 0.03353
2454.53269 0.03335
2453.24692 0.03327
2451.96115 0.03329
2450.67538 0.03338
2449.38962 0.03354
2448.10385 0.03367
2446.81808 0.03367
2445.53231 0.03352
2444.24654 0.03327
2442.96077 0.03308
2441.67500 0.03305
2440.38923 0.03316
2439.10346 0.03320
2437.81770 0.03298
2436.53193 0.03262
2435.24616 0.03246
2433.96039 0.03263
2432.67462 0.03293
2431.38885 0.03300
2430.10308 0.03276
2428.81731 0.03236
2427.53155 0.03199
2426.24578 0.03169
2424.96001 0.03142
2423.67424 0.03123
2422.38847 0.03120
2421.10270 0.03131
2419.81693 0.03140
2418.53116 0.03136
2417.24539 0.03122
2415.95963 0.03108
2414.67386 0.03099
2413.38809 0.03093
2412.10232 0.03085
2410.81655 0.03077
2409.53078 0.03078
2408.24501 0.03099
2406.95924 0.03136
2405.67347 0.03167
2404.38771 0.03175
2403.10194 0.03156
2401.81617 0.03127
2400.53040 0.03099
2399.24463 0.03078
2397.95886 0.03069
2396.67309 0.03078
2395.38732 0.03103
2394.10156 0.03130
2392.81579 0.03149
2391.53002 0.03157
2390.24425 0.03151
2388.95848 0.03129
2387.67271 0.03091
2386.38694 0.03054
2385.10117 0.03036
2383.81540 0.03044
2382.52964 0.03072
2381.24387 0.03107
2379.95810 0.03143
2378.67233 0.03158
2377.38656 0.03167
2376.10079 0.03192
2374.81502 0.03216
2373.52925 0.03171
2372.24349 0.03100
2370.95772 0.03065
2369.67195 0.03053
2368.38618 0.03055
2367.10041 0.03069
2365.81464 0.03085
2364.52887 0.03092
2363.24310 0.03090
2361.95733 0.03087
2360.67157 0.03091
2359.38580 0.03095
2358.10003 0.03083
2356.81426 0.03070
2355.52849 0.03096
2354.24272 0.03179
2352.95695 0.03269
2351.67118 0.03262
2350.38542 0.03205
2349.09965 0.03179
2347.81388 0.03169
2346.52811 0.03150
2345.24234 0.03146
2343.95657 0.03176
2342.67080 0.03262
2341.38503 0.03247
2340.09926 0.03185
2338.81350 0.03183
2337.52773 0.03214
2336.24196 0.03185
2334.95619 0.03183
2333.67042 0.03220
2332.38465 0.03267
2331.09888 0.03169
2329.81311 0.03158
2328.52735 0.03202
2327.24158 0.03211
2325.95581 0.03249
2324.67004 0.03282
2323.38427 0.03326
2322.09850 0.03295
2320.81273 0.03235
2319.52696 0.03194
2318.24119 0.03181
2316.95543 0.03170
2315.66966 0.03160
2314.38389 0.03158
2313.09812 0.03134
2311.81235 0.03090
2310.52658 0.03040
2309.24081 0.02989
2307.95504 0.02951
2306.66928 0.02947
2305.38351 0.02966
2304.09774 0.02979
2302.81197 0.02960
2301.52620 0.02914
2300.24043 0.02868
2298.95466 0.02839
2297.66889 0.02822
2296.38312 0.02809
2295.09736 0.02799
2293.81159 0.02796
2292.52582 0.02796
2291.24005 0.02786
2289.95428 0.02747
2288.66851 0.02679
2287.38274 0.02609
2286.09697 0.02572
2284.81121 0.02584
2283.52544 0.02634
2282.23967 0.02694
2280.95390 0.02738
2279.66813 0.02746
2278.38236 0.02715
2277.09659 0.02660
2275.81082 0.02606
2274.52505 0.02568
2273.23929 0.02533
2271.95352 0.02484
2270.66775 0.02419
2269.38198 0.02357
2268.09621 0.02316
2266.81044 0.02303
2265.52467 0.02310
2264.23890 0.02333
2262.95314 0.02369
2261.66737 0.02422
2260.38160 0.02493
2259.09583 0.02563
2257.81006 0.02598
2256.52429 0.02574
2255.23852 0.02504
2253.95275 0.02428
2252.66698 0.02369
2251.38122 0.02325
2250.09545 0.02286
2248.80968 0.02257
2247.52391 0.02254
2246.23814 0.02264
2244.95237 0.02253
2243.66660 0.02208
2242.38083 0.02162
2241.09507 0.02167
2239.80930 0.02236
2238.52353 0.02316
2237.23776 0.02330
2235.95199 0.02248
2234.66622 0.02117
2233.38045 0.02019
2232.09468 0.02000
2230.80891 0.02038
2229.52315 0.02082
2228.23738 0.02095
2226.95161 0.02068
2225.66584 0.02001
2224.38007 0.01903
2223.09430 0.01798
2221.80853 0.01724
2220.52276 0.01717
2219.23700 0.01783
2217.95123 0.01894
2216.66546 0.01996
2215.37969 0.02048
2214.09392 0.02046
2212.80815 0.02006
2211.52238 0.01938
2210.23661 0.01862
2208.95084 0.01820
2207.66508 0.01852
2206.37931 0.01938
2205.09354 0.02005
2203.80777 0.01988
2202.52200 0.01897
2201.23623 0.01801
2199.95046 0.01762
2198.66469 0.01780
2197.37893 0.01799
2196.09316 0.01762
2194.80739 0.01651
2193.52162 0.01492
2192.23585 0.01348
2190.95008 0.01291
2189.66431 0.01364
2188.37854 0.01541
2187.09277 0.01727
2185.80701 0.01827
2184.52124 0.01804
2183.23547 0.01675
2181.94970 0.01493
2180.66393 0.01331
2179.37816 0.01274
2178.09239 0.01344
2176.80662 0.01460
2175.52085 0.01502
2174.23509 0.01431
2172.94932 0.01314
2171.66355 0.01233
2170.37778 0.01215
2169.09201 0.01241
2167.80624 0.01293
2166.52047 0.01359
2165.23470 0.01426
2163.94894 0.01467
2162.66317 0.01456
2161.37740 0.01376
2160.09163 0.01244
2158.80586 0.01123
2157.52009 0.01073
2156.23432 0.01084
2154.94855 0.01088
2153.66278 0.01039
2152.37702 0.00957
2151.09125 0.00897
2149.80548 0.00891
2148.51971 0.00924
2147.23394 0.00959
2145.94817 0.00974
2144.66240 0.00976
2143.37663 0.00992
2142.09087 0.01039
2140.80510 0.01115
2139.51933 0.01206
2138.23356 0.01301
2136.94779 0.01387
2135.66202 0.01447
2134.37625 0.01475
2133.09048 0.01482
2131.80471 0.01495
2130.51895 0.01543
2129.23318 0.01641
2127.94741 0.01763
2126.66164 0.01846
2125.37587 0.01839
2124.09010 0.01761
2122.80433 0.01674
2121.51856 0.01633
2120.23280 0.01642
2118.94703 0.01680
2117.66126 0.01725
2116.37549 0.01773
2115.08972 0.01829
2113.80395 0.01891
2112.51818 0.01941
2111.23241 0.01953
2109.94664 0.01918
2108.66088 0.01854
2107.37511 0.01789
2106.08934 0.01742
2104.80357 0.01705
2103.51780 0.01665
2102.23203 0.01614
2100.94626 0.01572
2099.66049 0.01663
2098.37473 0.01723
2097.08896 0.01735
2095.80319 0.01719
2094.51742 0.01670
2093.23165 0.01597
2091.94588 0.01524
2090.66011 0.01476
2089.37434 0.01459
2088.08857 0.01472
2086.80281 0.01516
2085.51704 0.01594
2084.23127 0.01681
2082.94550 0.01729
2081.65973 0.01705
2080.37396 0.01624
2079.08819 0.01540
2077.80242 0.01498
2076.51666 0.01500
2075.23089 0.01522
2073.94512 0.01534
2072.65935 0.01520
2071.37358 0.01480
2070.08781 0.01427
2068.80204 0.01383
2067.51627 0.01368
2066.23050 0.01380
2064.94474 0.01391
2063.65897 0.01369
2062.37320 0.01308
2061.08743 0.01232
2059.80166 0.01171
2058.51589 0.01140
2057.23012 0.01137
2055.94435 0.01156
2054.65859 0.01189
2053.37282 0.01222
2052.08705 0.01239
2050.80128 0.01236
2049.51551 0.01227
2048.22974 0.01233
2046.94397 0.01244
2045.65820 0.01218
2044.37243 0.01120
2043.08667 0.00964
2041.80090 0.00815
2040.51513 0.00742
2039.22936 0.00778
2037.94359 0.00890
2036.65782 0.00980
2035.37205 0.00946
2034.08628 0.00774
2032.80052 0.00568
2031.51475 0.00469
2030.22898 0.00529
2028.94321 0.00681
2027.65744 0.00821
2026.37167 0.00893
2025.08590 0.00902
2023.80013 0.00859
2022.51436 0.00779
2021.22860 0.00696
2019.94283 0.00658
2018.65706 0.00676
2017.37129 0.00715
2016.08552 0.00746
2014.79975 0.00784
2013.51398 0.00853
2012.22821 0.00952
2010.94245 0.01054
2009.65668 0.01139
2008.37091 0.01197
2007.08514 0.01226
2005.79937 0.01239
2004.51360 0.01252
2003.22783 0.01253
2001.94206 0.01208
2000.65629 0.01103
1999.37053 0.00979
1998.08476 0.00907
1996.79899 0.00930
1995.51322 0.01024
1994.22745 0.01123
1992.94168 0.01168
1991.65591 0.01155
1990.37014 0.01128
1989.08438 0.01123
1987.79861 0.01143
1986.51284 0.01176
1985.22707 0.01216
1983.94130 0.01260
1982.65553 0.01290
1981.36976 0.01285
1980.08399 0.01252
1978.79822 0.01221
1977.51246 0.01215
1976.22669 0.01228
1974.94092 0.01240
1973.65515 0.01242
1972.36938 0.01233
1971.08361 0.01218
1969.79784 0.01216
1968.51207 0.01253
1967.22631 0.01333
1965.94054 0.01419
1964.65477 0.01455
1963.36900 0.01413
1962.08323 0.01331
1960.79746 0.01286
1959.51169 0.01329
1958.22592 0.01437
1956.94015 0.01535
1955.65439 0.01571
1954.36862 0.01561
1953.08285 0.01556
1951.79708 0.01576
1950.51131 0.01598
1949.22554 0.01600
1947.93977 0.01588
1946.65400 0.01592
1945.36823 0.01630
1944.08247 0.01694
1942.79670 0.01760
1941.51093 0.01801
1940.22516 0.01804
1938.93939 0.01775
1937.65362 0.01726
1936.36785 0.01669
1935.08208 0.01615
1933.79632 0.01574
1932.51055 0.01559
1931.22478 0.01572
1929.93901 0.01606
1928.65324 0.01648
1927.36747 0.01686
1926.08170 0.01714
1924.79593 0.01726
1923.51016 0.01715
1922.22440 0.01684
1920.93863 0.01649
1919.65286 0.01627
1918.36709 0.01634
1917.08132 0.01678
1915.79555 0.01747
1914.50978 0.01811
1913.22401 0.01834
1911.93825 0.01795
1910.65248 0.01714
1909.36671 0.01639
1908.08094 0.01611
1906.79517 0.01635
1905.50940 0.01681
1904.22363 0.01719
1902.93786 0.01739
1901.65209 0.01742
1900.36633 0.01726
1899.08056 0.01691
1897.79479 0.01649
1896.50902 0.01622
1895.22325 0.01624
1893.93748 0.01653
1892.65171 0.01695
1891.36594 0.01731
1890.08018 0.01741
1888.79441 0.01721
1887.50864 0.01691
1886.22287 0.01686
1884.93710 0.01725
1883.65133 0.01793
1882.36556 0.01856
1881.07979 0.01882
1879.79402 0.01868
1878.50826 0.01832
1877.22249 0.01799
1875.93672 0.01782
1874.65095 0.01779
1873.36518 0.01783
1872.07941 0.01789
1870.79364 0.01795
1869.50787 0.01798
1868.22211 0.01797
1866.93634 0.01794
1865.65057 0.01788
1864.36480 0.01778
1863.07903 0.01764
1861.79326 0.01758
1860.50749 0.01770
1859.22172 0.01798
1857.93595 0.01824
1856.65019 0.01836
1855.36442 0.01835
1854.07865 0.01829
1852.79288 0.01828
1851.50711 0.01830
1850.22134 0.01836
1848.93557 0.01846
1847.64980 0.01860
1846.36404 0.01865
1845.07827 0.01851
1843.79250 0.01824
1842.50673 0.01795
1841.22096 0.01773
1839.93519 0.01760
1838.64942 0.01753
1837.36365 0.01754
1836.07788 0.01763
1834.79212 0.01780
1833.50635 0.01806
1832.22058 0.01832
1830.93481 0.01849
1829.64904 0.01850
1828.36327 0.01840
1827.07750 0.01829
1825.79173 0.01832
1824.50597 0.01852
1823.22020 0.01883
1821.93443 0.01914
1820.64866 0.01941
1819.36289 0.01955
1818.07712 0.01945
1816.79135 0.01911
1815.50558 0.01867
1814.21981 0.01835
1812.93405 0.01822
1811.64828 0.01823
1810.36251 0.01826
1809.07674 0.01824
1807.79097 0.01821
1806.50520 0.01823
1805.21943 0.01833
1803.93366 0.01843
1802.64790 0.01846
1801.36213 0.01841
1800.07636 0.01837
1798.79059 0.01838
1797.50482 0.01844
1796.21905 0.01848
1794.93328 0.01855
1793.64751 0.01871
1792.36174 0.01898
1791.07598 0.01929
1789.79021 0.01952
1788.50444 0.01964
1787.21867 0.01969
1785.93290 0.01969
1784.64713 0.01969
1783.36136 0.01970
1782.07559 0.01970
1780.78983 0.01968
1779.50406 0.01958
1778.21829 0.01941
1776.93252 0.01924
1775.64675 0.01914
1774.36098 0.01915
1773.07521 0.01925
1771.78944 0.01937
1770.50367 0.01942
1769.21791 0.01939
1767.93214 0.01934
1766.64637 0.01936
1765.36060 0.01945
1764.07483 0.01958
1762.78906 0.01971
1761.50329 0.01983
1760.21752 0.01992
1758.93176 0.01995
1757.64599 0.01994
1756.36022 0.01997
1755.07445 0.02006
1753.78868 0.02016
1752.50291 0.02019
1751.21714 0.02016
1749.93137 0.02011
1748.64560 0.02005
1747.35984 0.01998
1746.07407 0.01996
1744.78830 0.02002
1743.50253 0.02019
1742.21676 0.02038
1740.93099 0.02051
1739.64522 0.02057
1738.35945 0.02062
1737.07369 0.02069
1735.78792 0.02076
1734.50215 0.02082
1733.21638 0.02086
1731.93061 0.02087
1730.64484 0.02085
1729.35907 0.02087
1728.07330 0.02100
1726.78753 0.02119
1725.50177 0.02137
1724.21600 0.02153
1722.93023 0.02172
1721.64446 0.02200
1720.35869 0.02235
1719.07292 0.02274
1717.78715 0.02314
1716.50138 0.02352
1715.21561 0.02384
1713.92985 0.02405
1712.64408 0.02425
1711.35831 0.02452
1710.07254 0.02491
1708.78677 0.02537
1707.50100 0.02584
1706.21523 0.02631
1704.92946 0.02687
1703.64370 0.02757
1702.35793 0.02834
1701.07216 0.02910
1699.78639 0.02983
1698.50062 0.03046
1697.21485 0.03093
1695.92908 0.03126
1694.64331 0.03155
1693.35754 0.03180
1692.07178 0.03203
1690.78601 0.03237
1689.50024 0.03298
1688.21447 0.03384
1686.92870 0.03475
1685.64293 0.03552
1684.35716 0.03607
1683.07139 0.03646
1681.78563 0.03678
1680.49986 0.03715
1679.21409 0.03765
1677.92832 0.03826
1676.64255 0.03888
1675.35678 0.03947
1674.07101 0.04004
1672.78524 0.04059
1671.49947 0.04108
1670.21371 0.04151
1668.92794 0.04191
1667.64217 0.04235
1666.35640 0.04286
1665.07063 0.04346
1663.78486 0.04406
1662.49909 0.04461
1661.21332 0.04508
1659.92756 0.04550
1658.64179 0.04594
1657.35602 0.04645
1656.07025 0.04702
1654.78448 0.04755
1653.49871 0.04799
1652.21294 0.04832
1650.92717 0.04852
1649.64140 0.04856
1648.35564 0.04850
1647.06987 0.04844
1645.78410 0.04842
1644.49833 0.04844
1643.21256 0.04848
1641.92679 0.04857
1640.64102 0.04869
1639.35525 0.04884
1638.06949 0.04894
1636.78372 0.04893
1635.49795 0.04880
1634.21218 0.04856
1632.92641 0.04824
1631.64064 0.04792
1630.35487 0.04768
1629.06910 0.04756
1627.78333 0.04753
1626.49757 0.04752
1625.21180 0.04744
1623.92603 0.04725
1622.64026 0.04699
1621.35449 0.04676
1620.06872 0.04665
1618.78295 0.04665
1617.49718 0.04668
1616.21142 0.04663
1614.92565 0.04646
1613.63988 0.04621
1612.35411 0.04600
1611.06834 0.04593
1609.78257 0.04598
1608.49680 0.04608
1607.21103 0.04615
1605.92526 0.04619
1604.63950 0.04621
1603.35373 0.04621
1602.06796 0.04624
1600.78219 0.04631
1599.49642 0.04643
1598.21065 0.04658
1596.92488 0.04676
1595.63911 0.04694
1594.35335 0.04711
1593.06758 0.04725
1591.78181 0.04737
1590.49604 0.04748
1589.21027 0.04763
1587.92450 0.04782
1586.63873 0.04806
1585.35296 0.04830
1584.06719 0.04856
1582.78143 0.04885
1581.49566 0.04920
1580.20989 0.04963
1578.92412 0.05007
1577.63835 0.05042
1576.35258 0.05064
1575.06681 0.05080
1573.78104 0.05095
1572.49528 0.05113
1571.20951 0.05137
1569.92374 0.05165
1568.63797 0.05192
1567.35220 0.05213
1566.06643 0.05230
1564.78066 0.05251
1563.49489 0.05285
1562.20912 0.05327
1560.92336 0.05370
1559.63759 0.05407
1558.35182 0.05435
1557.06605 0.05451
1555.78028 0.05453
1554.49451 0.05451
1553.20874 0.05454
1551.92297 0.05461
1550.63721 0.05469
1549.35144 0.05475
1548.06567 0.05479
1546.77990 0.05482
1545.49413 0.05487
1544.20836 0.05496
1542.92259 0.05509
1541.63682 0.05514
1540.35105 0.05503
1539.06529 0.05474
1537.77952 0.05437
1536.49375 0.05403
1535.20798 0.05379
1533.92221 0.05366
1532.63644 0.05363
1531.35067 0.05366
1530.06490 0.05379
1528.77914 0.05405
1527.49337 0.05445
1526.20760 0.05493
1524.92183 0.05546
1523.63606 0.05597
1522.35029 0.05645
1521.06452 0.05696
1519.77875 0.05756
1518.49298 0.05824
1517.20722 0.05901
1515.92145 0.05984
1514.63568 0.06072
1513.34991 0.06164
1512.06414 0.06262
1510.77837 0.06372
1509.49260 0.06489
1508.20683 0.06604
1506.92107 0.06712
1505.63530 0.06812
1504.34953 0.06902
1503.06376 0.06986
1501.77799 0.07067
1500.49222 0.07149
1499.20645 0.07231
1497.92068 0.07309
1496.63491 0.07381
1495.34915 0.07448
1494.06338 0.07508
1492.77761 0.07566
1491.49184 0.07629
1490.20607 0.07703
1488.92030 0.07789
1487.63453 0.07884
1486.34876 0.07985
1485.06299 0.08092
1483.77723 0.08204
1482.49146 0.08319
1481.20569 0.08441
1479.91992 0.08573
1478.63415 0.08716
1477.34838 0.08867
1476.06261 0.09017
1474.77684 0.09156
1473.49108 0.09276
1472.20531 0.09378
1470.91954 0.09468
1469.63377 0.09553
1468.34800 0.09637
1467.06223 0.09719
1465.77646 0.09793
1464.49069 0.09857
1463.20492 0.09919
1461.91916 0.09988
1460.63339 0.10073
1459.34762 0.10168
1458.06185 0.10261
1456.77608 0.10343
1455.49031 0.10410
1454.20454 0.10460
1452.91877 0.10494
1451.63301 0.10514
1450.34724 0.10522
1449.06147 0.10519
1447.77570 0.10506
1446.48993 0.10483
1445.20416 0.10450
1443.91839 0.10404
1442.63262 0.10346
1441.34685 0.10282
1440.06109 0.10219
1438.77532 0.10161
1437.48955 0.10114
1436.20378 0.10086
1434.91801 0.10085
1433.63224 0.10111
1432.34647 0.10162
1431.06070 0.10237
1429.77494 0.10332
1428.48917 0.10443
1427.20340 0.10565
1425.91763 0.10695
1424.63186 0.10834
1423.34609 0.10983
1422.06032 0.11138
1420.77455 0.11289
1419.48878 0.11426
1418.20302 0.11542
1416.91725 0.11634
1415.63148 0.11704
1414.34571 0.11757
1413.05994 0.11792
1411.77417 0.11805
1410.48840 0.11791
1409.20263 0.11747
1407.91687 0.11676
1406.63110 0.11579
1405.34533 0.11462
1404.05956 0.11327
1402.77379 0.11172
1401.48802 0.10996
1400.20225 0.10800
1398.91648 0.10589
1397.63071 0.10370
1396.34495 0.10146
1395.05918 0.09921
1393.77341 0.09697
1392.48764 0.09478
1391.20187 0.09263
1389.91610 0.09054
1388.63033 0.08851
1387.34456 0.08654
1386.05880 0.08461
1384.77303 0.08269
1383.48726 0.08079
1382.20149 0.07894
1380.91572 0.07718
1379.62995 0.07548
1378.34418 0.07378
1377.05841 0.07200
1375.77264 0.07009
1374.48688 0.06802
1373.20111 0.06585
1371.91534 0.06367
1370.62957 0.06157
1369.34380 0.05962
1368.05803 0.05787
1366.77226 0.05627
1365.48649 0.05475
1364.20073 0.05327
1362.91496 0.05181
1361.62919 0.05039
1360.34342 0.04905
1359.05765 0.04780
1357.77188 0.04663
1356.48611 0.04554
1355.20034 0.04451
1353.91457 0.04358
1352.62881 0.04275
1351.34304 0.04201
1350.05727 0.04134
1348.77150 0.04073
1347.48573 0.04014
1346.19996 0.03957
1344.91419 0.03900
1343.62842 0.03842
1342.34266 0.03785
1341.05689 0.03733
1339.77112 0.03687
1338.48535 0.03644
1337.19958 0.03599
1335.91381 0.03552
1334.62804 0.03505
1333.34227 0.03459
1332.05650 0.03415
1330.77074 0.03375
1329.48497 0.03341
1328.19920 0.03317
1326.91343 0.03299
1325.62766 0.03279
1324.34189 0.03251
1323.05612 0.03213
1321.77035 0.03171
1320.48459 0.03131
1319.19882 0.03096
1317.91305 0.03066
1316.62728 0.03040
1315.34151 0.03017
1314.05574 0.02997
1312.76997 0.02978
1311.48420 0.02957
1310.19843 0.02937
1308.91267 0.02920
1307.62690 0.02905
1306.34113 0.02889
1305.05536 0.02870
1303.76959 0.02851
1302.48382 0.02833
1301.19805 0.02818
1299.91228 0.02804
1298.62652 0.02789
1297.34075 0.02772
1296.05498 0.02752
1294.76921 0.02730
1293.48344 0.02708
1292.19767 0.02686
1290.91190 0.02665
1289.62613 0.02646
1288.34036 0.02630
1287.05460 0.02617
1285.76883 0.02609
1284.48306 0.02603
1283.19729 0.02595
1281.91152 0.02579
1280.62575 0.02557
1279.33998 0.02539
1278.05421 0.02528
1276.76845 0.02522
1275.48268 0.02515
1274.19691 0.02506
1272.91114 0.02497
1271.62537 0.02488
1270.33960 0.02480
1269.05383 0.02467
1267.76806 0.02452
1266.48229 0.02438
1265.19653 0.02426
1263.91076 0.02417
1262.62499 0.02408
1261.33922 0.02398
1260.05345 0.02388
1258.76768 0.02382
1257.48191 0.02376
1256.19614 0.02371
1254.91037 0.02363
1253.62461 0.02355
1252.33884 0.02347
1251.05307 0.02340
1249.76730 0.02334
1248.48153 0.02330
1247.19576 0.02326
1245.90999 0.02319
1244.62422 0.02308
1243.33846 0.02294
1242.05269 0.02281
1240.76692 0.02272
1239.48115 0.02265
1238.19538 0.02258
1236.90961 0.02247
1235.62384 0.02235
1234.33807 0.02223
1233.05230 0.02213
1231.76654 0.02204
1230.48077 0.02195
1229.19500 0.02185
1227.90923 0.02177
1226.62346 0.02171
1225.33769 0.02166
1224.05192 0.02162
1222.76615 0.02157
1221.48039 0.02150
1220.19462 0.02142
1218.90885 0.02133
1217.62308 0.02122
1216.33731 0.02110
1215.05154 0.02095
1213.76577 0.02083
1212.48000 0.02076
1211.19423 0.02074
1209.90847 0.02076
1208.62270 0.02077
1207.33693 0.02078
1206.05116 0.02077
1204.76539 0.02075
1203.47962 0.02073
1202.19385 0.02070
1200.90808 0.02062
1199.62232 0.02047
1198.33655 0.02052
1197.05078 0.02058
1195.76501 0.02062
1194.47924 0.02063
1193.19347 0.02065
1191.90770 0.02064
1190.62193 0.02058
1189.33616 0.02047
1188.05040 0.02040
1186.76463 0.02042
1185.47886 0.02052
1184.19309 0.02058
1182.90732 0.02056
1181.62155 0.02050
1180.33578 0.02045
1179.05001 0.02042
1177.76425 0.02042
1176.47848 0.02042
1175.19271 0.02043
1173.90694 0.02048
1172.62117 0.02059
1171.33540 0.02077
1170.04963 0.02102
1168.76386 0.02126
1167.47809 0.02145
1166.19233 0.02159
1164.90656 0.02172
1163.62079 0.02189
1162.33502 0.02209
1161.04925 0.02229
1159.76348 0.02251
1158.47771 0.02276
1157.19194 0.02307
1155.90618 0.02341
1154.62041 0.02377
1153.33464 0.02414
1152.04887 0.02454
1150.76310 0.02497
1149.47733 0.02540
1148.19156 0.02586
1146.90579 0.02639
1145.62002 0.02703
1144.33426 0.02776
1143.04849 0.02860
1141.76272 0.02952
1140.47695 0.03054
1139.19118 0.03163
1137.90541 0.03277
1136.61964 0.03397
1135.33387 0.03529
1134.04811 0.03685
1132.76234 0.03872
1131.47657 0.04087
1130.19080 0.04320
1128.90503 0.04564
1127.61926 0.04817
1126.33349 0.05083
1125.04772 0.05370
1123.76195 0.05683
1122.47619 0.06022
1121.19042 0.06383
1119.90465 0.06756
1118.61888 0.07138
1117.33311 0.07526
1116.04734 0.07923
1114.76157 0.08327
1113.47580 0.08735
1112.19004 0.09137
1110.90427 0.09529
1109.61850 0.09912
1108.33273 0.10294
1107.04696 0.10674
1105.76119 0.11045
1104.47542 0.11400
1103.18965 0.11742
1101.90388 0.12080
1100.61812 0.12418
1099.33235 0.12753
1098.04658 0.13082
1096.76081 0.13400
1095.47504 0.13701
1094.18927 0.13980
1092.90350 0.14234
1091.61773 0.14467
1090.33197 0.14685
1089.04620 0.14897
1087.76043 0.15110
1086.47466 0.15326
1085.18889 0.15545
1083.90312 0.15765
1082.61735 0.15988
1081.33158 0.16221
1080.04581 0.16471
1078.76005 0.16744
1077.47428 0.17040
1076.18851 0.17354
1074.90274 0.17682
1073.61697 0.18025
1072.33120 0.18386
1071.04543 0.18760
1069.75966 0.19143
1068.47390 0.19532
1067.18813 0.19933
1065.90236 0.20350
1064.61659 0.20784
1063.33082 0.21225
1062.04505 0.21664
1060.75928 0.22095
1059.47351 0.22514
1058.18774 0.22924
1056.90198 0.23330
1055.61621 0.23737
1054.33044 0.24148
1053.04467 0.24561
1051.75890 0.24983
1050.47313 0.25416
1049.18736 0.25861
1047.90159 0.26311
1046.61583 0.26758
1045.33006 0.27200
1044.04429 0.27642
1042.75852 0.28093
1041.47275 0.28559
1040.18698 0.29039
1038.90121 0.29526
1037.61544 0.30005
1036.32967 0.30467
1035.04391 0.30909
1033.75814 0.31336
1032.47237 0.31746
1031.18660 0.32132
1029.90083 0.32484
1028.61506 0.32798
1027.32929 0.33071
1026.04352 0.33306
1024.75775 0.33499
1023.47199 0.33643
1022.18622 0.33729
1020.90045 0.33754
1019.61468 0.33720
1018.32891 0.33634
1017.04314 0.33493
1015.75737 0.33290
1014.47160 0.33015
1013.18584 0.32664
1011.90007 0.32243
1010.61430 0.31762
1009.32853 0.31229
1008.04276 0.30641
1006.75699 0.29996
1005.47122 0.29298
1004.18545 0.28557
1002.89968 0.27787
1001.61392 0.26996
1000.32815 0.26189
999.04238 0.25370
997.75661 0.24546
996.47084 0.23721
995.18507 0.22898
993.89930 0.22075
992.61353 0.21252
991.32777 0.20441
990.04200 0.19661
988.75623 0.18920
987.47046 0.18212
986.18469 0.17527
984.89892 0.16866
983.61315 0.16235
982.32738 0.15640
981.04161 0.15080
979.75585 0.14556
978.47008 0.14069
977.18431 0.13622
975.89854 0.13216
974.61277 0.12855
973.32700 0.12545
972.04123 0.12296
970.75546 0.12114
969.46970 0.11999
968.18393 0.11951
966.89816 0.11968
965.61239 0.12047
964.32662 0.12167
963.04085 0.12294
961.75508 0.12384
960.46931 0.12402
959.18354 0.12327
957.89778 0.12161
956.61201 0.11923
955.32624 0.11643
954.04047 0.11344
952.75470 0.11036
951.46893 0.10721
950.18316 0.10410
948.89739 0.10116
947.61163 0.09846
946.32586 0.09594
945.04009 0.09346
943.75432 0.09097
942.46855 0.08848
941.18278 0.08606
939.89701 0.08378
938.61124 0.08167
937.32547 0.07971
936.03971 0.07785
934.75394 0.07607
933.46817 0.07440
932.18240 0.07289
930.89663 0.07153
929.61086 0.07023
928.32509 0.06893
927.03932 0.06760
925.75356 0.06624
924.46779 0.06497
923.18202 0.06388
921.89625 0.06298
920.61048 0.06220
919.32471 0.06142
918.03894 0.06062
916.75317 0.05983
915.46740 0.05908
914.18164 0.05831
912.89587 0.05749
911.61010 0.05669
910.32433 0.05597
909.03856 0.05538
907.75279 0.05491
906.46702 0.05450
905.18125 0.05416
903.89549 0.05383
902.60972 0.05347
901.32395 0.05302
900.03818 0.05247
898.75241 0.05187
897.46664 0.05130
896.18087 0.05083
894.89510 0.05050
893.60933 0.05031
892.32357 0.05019
891.03780 0.05012
889.75203 0.05018
888.46626 0.05046
887.18049 0.05108
885.89472 0.05218
884.60895 0.05396
883.32318 0.05655
882.03742 0.05974
880.75165 0.06300
879.46588 0.06575
878.18011 0.06776
876.89434 0.06932
875.60857 0.07085
874.32280 0.07252
873.03703 0.07396
871.75126 0.07466
870.46550 0.07436
869.17973 0.07312
867.89396 0.07118
866.60819 0.06881
865.32242 0.06625
864.03665 0.06371
862.75088 0.06130
861.46511 0.05908
860.17935 0.05711
858.89358 0.05539
857.60781 0.05388
856.32204 0.05252
855.03627 0.05131
853.75050 0.05031
852.46473 0.04951
851.17896 0.04884
849.89319 0.04822
848.60743 0.04761
847.32166 0.04704
846.03589 0.04651
844.75012 0.04602
843.46435 0.04559
842.17858 0.04522
840.89281 0.04489
839.60704 0.04457
838.32128 0.04427
837.03551 0.04400
835.74974 0.04378
834.46397 0.04360
833.17820 0.04341
831.89243 0.04314
830.60666 0.04277
829.32089 0.04234
828.03512 0.04198
826.74936 0.04178
825.46359 0.04175
824.17782 0.04175
822.89205 0.04169
821.60628 0.04153
820.32051 0.04130
819.03474 0.04107
817.74897 0.04089
816.46321 0.04078
815.17744 0.04074
813.89167 0.04073
812.60590 0.04068
811.32013 0.04053
810.03436 0.04029
808.74859 0.04003
807.46282 0.03985
806.17705 0.03982
804.89129 0.03987
803.60552 0.03990
802.31975 0.03981
801.03398 0.03959
799.74821 0.03934
798.46244 0.03916
797.17667 0.03909
795.89090 0.03908
794.60513 0.03904
793.31937 0.03896
792.03360 0.03889
790.74783 0.03884
789.46206 0.03871
788.17629 0.03847
786.89052 0.03816
785.60475 0.03789
784.31898 0.03774
783.03322 0.03770
781.74745 0.03772
780.46168 0.03778
779.17591 0.03786
777.89014 0.03795
776.60437 0.03797
775.31860 0.03790
774.03283 0.03778
772.74706 0.03768
771.46130 0.03765
770.17553 0.03768
768.88976 0.03774
767.60399 0.03779
766.31822 0.03782
765.03245 0.03784
763.74668 0.03785
762.46091 0.03790
761.17515 0.03799
759.88938 0.03812
758.60361 0.03825
757.31784 0.03829
756.03207 0.03822
754.74630 0.03808
753.46053 0.03794
752.17476 0.03786
750.88899 0.03784
749.60323 0.03790
748.31746 0.03797
747.03169 0.03796
745.74592 0.03784
744.46015 0.03766
743.17438 0.03751
741.88861 0.03738
740.60284 0.03722
739.31708 0.03706
738.03131 0.03691
736.74554 0.03683
735.45977 0.03680
734.17400 0.03677
732.88823 0.03667
731.60246 0.03650
730.31669 0.03637
729.03092 0.03637
727.74516 0.03650
726.45939 0.03666
725.17362 0.03672
723.88785 0.03667
722.60208 0.03654
721.31631 0.03641
720.03054 0.03631
718.74477 0.03625
717.45901 0.03622
716.17324 0.03622
714.88747 0.03624
713.60170 0.03625
712.31593 0.03623
711.03016 0.03621
709.74439 0.03622
708.45862 0.03625
707.17285 0.03627
705.88709 0.03627
704.60132 0.03623
703.31555 0.03615
702.02978 0.03605
700.74401 0.03596
699.45824 0.03590
698.17247 0.03587
696.88670 0.03585
695.60094 0.03582
694.31517 0.03578
693.02940 0.03574
691.74363 0.03569
690.45786 0.03567
689.17209 0.03565
687.88632 0.03564
686.60055 0.03560
685.31478 0.03552
684.02902 0.03543
682.74325 0.03535
681.45748 0.03530
680.17171 0.03525
678.88594 0.03517
677.60017 0.03510
676.31440 0.03508
675.02863 0.03515
673.74287 0.03530
672.45710 0.03546
671.17133 0.03559
669.88556 0.03570
668.59979 0.03582
667.31402 0.03595
666.02825 0.03596
664.74248 0.03577
663.45671 0.03543
662.17095 0.03504
660.88518 0.03476
659.59941 0.03463
658.31364 0.03459
657.02787 0.03459
655.74210 0.03463
654.45633 0.03470
653.17056 0.03480
651.88480 0.03489
650.59903 0.03491
649.31326 0.03487
648.02749 0.03485
646.74172 0.03492
645.45595 0.03511
644.17018 0.03539
642.88441 0.03566
641.59864 0.03588
640.31288 0.03608
639.02711 0.03630
637.74134 0.03653
636.45557 0.03677
635.16980 0.03705
633.88403 0.03739
632.59826 0.03779
631.31249 0.03834
630.02673 0.03959
628.74096 0.04126
627.45519 0.04100
626.16942 0.04329
624.88365 0.04764
623.59788 0.05255
622.31211 0.05741
621.02634 0.06175
619.74057 0.06489
618.45481 0.06626
617.16904 0.06612
615.88327 0.06574
614.59750 0.06679
613.31173 0.07053
612.02596 0.07727
610.74019 0.08623
609.45442 0.09580
608.16866 0.10460
606.88289 0.11219
605.59712 0.11851
604.31135 0.12314
603.02558 0.12551
601.73981 0.12549
600.45404 0.12351
599.16827 0.12020
597.88250 0.11615
596.59674 0.11192
595.31097 0.10800
594.02520 0.10464
592.73943 0.10186
591.45366 0.09959
590.16789 0.09787
588.88212 0.09685
587.59635 0.09673
586.31059 0.09764
585.02482 0.09946
583.73905 0.10194
582.45328 0.10479
581.16751 0.10792
579.88174 0.11134
578.59597 0.11503
577.31020 0.11882
576.02443 0.12248
574.73867 0.12588
573.45290 0.12907
572.16713 0.13231
570.88136 0.13589
569.59559 0.14005
568.30982 0.14478
567.02405 0.14987
565.73828 0.15487
564.45251 0.15916
563.16675 0.16216
561.88098 0.16336
560.59521 0.16251
559.30944 0.15959
558.02367 0.15485
556.73790 0.14866
555.45213 0.14145
554.16636 0.13367
552.88060 0.12579
551.59483 0.11824
550.30906 0.11134
549.02329 0.10521
547.73752 0.09978
546.45175 0.09493
545.16598 0.09053
543.88021 0.08649
542.59444 0.08272
541.30868 0.07919
540.02291 0.07596
538.73714 0.07316
537.45137 0.07078
536.16560 0.06867
534.87983 0.06666
533.59406 0.06469
532.30829 0.06282
531.02253 0.06109
529.73676 0.05944
528.45099 0.05780
527.16522 0.05618
525.87945 0.05466
524.59368 0.05333
523.30791 0.05213
522.02214 0.05097
520.73637 0.04981
519.45061 0.04870
518.16484 0.04772
516.87907 0.04685
515.59330 0.04597
514.30753 0.04500
513.02176 0.04396
511.73599 0.04300
510.45022 0.04221
509.16446 0.04158
507.87869 0.04101
506.59292 0.04038
505.30715 0.03967
504.02138 0.03895
502.73561 0.03834
501.44984 0.03789
500.16407 0.03756
498.87830 0.03725
497.59254 0.03686
496.30677 0.03637
495.02100 0.03584
493.73523 0.03535
492.44946 0.03493
491.16369 0.03453
489.87792 0.03415
488.59215 0.03384
487.30639 0.03369
486.02062 0.03370
484.73485 0.03383
483.44908 0.03402
482.16331 0.03421
480.87754 0.03437
479.59177 0.03446
478.30600 0.03456
477.02023 0.03474
475.73447 0.03496
474.44870 0.03515
473.16293 0.03523
471.87716 0.03519
470.59139 0.03506
469.30562 0.03487
468.01985 0.03468
466.73408 0.03453
465.44832 0.03439
464.16255 0.03416
462.87678 0.03377
461.59101 0.03325
460.30524 0.03270
459.01947 0.03220
457.73370 0.03176
456.44793 0.03136
455.16216 0.03098
453.87640 0.03060
452.59063 0.03022
451.30486 0.02985
450.01909 0.02949
448.73332 0.02914
447.44755 0.02880
446.16178 0.02853
444.87601 0.02838
443.59025 0.02833
442.30448 0.02830
441.01871 0.02820
439.73294 0.02803
438.44717 0.02783
437.16140 0.02767
435.87563 0.02756
434.58986 0.02751
433.30409 0.02749
432.01833 0.02745
430.73256 0.02738
429.44679 0.02725
428.16102 0.02707
426.87525 0.02687
425.58948 0.02666
424.30371 0.02645
423.01794 0.02622
421.73218 0.02603
420.44641 0.02592
419.16064 0.02588
417.87487 0.02584
416.58910 0.02575
415.30333 0.02561
414.01756 0.02552
412.73179 0.02549
411.44602 0.02549
410.16026 0.02548
408.87449 0.02548
407.58872 0.02554
406.30295 0.02568
405.01718 0.02585
403.73141 0.02601
402.44564 0.02612
401.15987 0.02617
399.87411 0.02621
