3997.45528	0.04556
3996.16951	0.04656
3994.88374	0.04668
3993.59798	0.04570
3992.31221	0.04409
3991.02644	0.04260
3989.74067	0.04188
3988.45490	0.04210
3987.16913	0.04281
3985.88336	0.04327
3984.59759	0.04308
3983.31183	0.04254
3982.02606	0.04228
3980.74029	0.04262
3979.45452	0.04324
3978.16875	0.04364
3976.88298	0.04367
3975.59721	0.04365
3974.31144	0.04386
3973.02567	0.04408
3971.73991	0.04378
3970.45414	0.04272
3969.16837	0.04132
3967.88260	0.04048
3966.59683	0.04080
3965.31106	0.04207
3964.02529	0.04341
3962.73952	0.04404
3961.45376	0.04393
3960.16799	0.04366
3958.88222	0.04363
3957.59645	0.04370
3956.31068	0.04351
3955.02491	0.04314
3953.73914	0.04301
3952.45337	0.04333
3951.16760	0.04388
3949.88184	0.04435
3948.59607	0.04476
3947.31030	0.04535
3946.02453	0.04604
3944.73876	0.04651
3943.45299	0.04663
3942.16722	0.04648
3940.88145	0.04609
3939.59569	0.04537
3938.30992	0.04443
3937.02415	0.04361
3935.73838	0.04318
3934.45261	0.04309
3933.16684	0.04316
3931.88107	0.04325
3930.59530	0.04335
3929.30953	0.04344
3928.02377	0.04348
3926.73800	0.04354
3925.45223	0.04380
3924.16646	0.04425
3922.88069	0.04463
3921.59492	0.04464
3920.30915	0.04427
3919.02338	0.04366
3917.73762	0.04287
3916.45185	0.04215
3915.16608	0.04187
3913.88031	0.04227
3912.59454	0.04321
3911.30877	0.04426
3910.02300	0.04506
3908.73723	0.04548
3907.45146	0.04552
3906.16570	0.04517
3904.87993	0.04459
3903.59416	0.04402
3902.30839	0.04358
3901.02262	0.04323
3899.73685	0.04306
3898.45108	0.04321
3897.16531	0.04359
3895.87955	0.04387
3894.59378	0.04386
3893.30801	0.04363
3892.02224	0.04349
3890.73647	0.04367
3889.45070	0.04396
3888.16493	0.04377
3886.87916	0.04294
3885.59339	0.04196
3884.30763	0.04118
3883.02186	0.04052
3881.73609	0.03997
3880.45032	0.03984
3879.16455	0.04027
3877.87878	0.04099
3876.59301	0.04168
3875.30724	0.04226
3874.02148	0.04258
3872.73571	0.04235
3871.44994	0.04169
3870.16417	0.04143
3868.87840	0.04204
3867.59263	0.04272
3866.30686	0.04262
3865.02109	0.04207
3863.73532	0.04195
3862.44956	0.04248
3861.16379	0.04328
3859.87802	0.04387
3858.59225	0.04399
3857.30648	0.04356
3856.02071	0.04280
3854.73494	0.04231
3853.44917	0.04261
3852.16341	0.04331
3850.87764	0.04340
3849.59187	0.04252
3848.30610	0.04125
3847.02033	0.04022
3845.73456	0.03969
3844.44879	0.03969
3843.16302	0.04016
3841.87725	0.04080
3840.59149	0.04114
3839.30572	0.04107
3838.01995	0.04097
3836.73418	0.04117
3835.44841	0.04134
3834.16264	0.04114
3832.87687	0.04079
3831.59110	0.04078
3830.30534	0.04122
3829.01957	0.04179
3827.73380	0.04217
3826.44803	0.04240
3825.16226	0.04256
3823.87649	0.04246
3822.59072	0.04196
3821.30495	0.04126
3820.01918	0.04043
3818.73342	0.03914
3817.44765	0.03751
3816.16188	0.03661
3814.87611	0.03713
3813.59034	0.03837
3812.30457	0.03925
3811.01880	0.03942
3809.73303	0.03908
3808.44726	0.03866
3807.16150	0.03880
3805.87573	0.03971
3804.58996	0.04065
3803.30419	0.04078
3802.01842	0.04037
3800.73265	0.04019
3799.44688	0.04028
3798.16111	0.04017
3796.87535	0.03997
3795.58958	0.04003
3794.30381	0.04025
3793.01804	0.04033
3791.73227	0.04030
3790.44650	0.04037
3789.16073	0.04055
3787.87496	0.04057
3786.58919	0.04015
3785.30343	0.03932
3784.01766	0.03848
3782.73189	0.03805
3781.44612	0.03818
3780.16035	0.03867
3778.87458	0.03925
3777.58881	0.03963
3776.30304	0.03973
3775.01728	0.03972
3773.73151	0.03984
3772.44574	0.04017
3771.15997	0.04056
3769.87420	0.04076
3768.58843	0.04049
3767.30266	0.03979
3766.01689	0.03923
3764.73112	0.03930
3763.44536	0.03971
3762.15959	0.03973
3760.87382	0.03919
3759.58805	0.03853
3758.30228	0.03823
3757.01651	0.03840
3755.73074	0.03878
3754.44497	0.03894
3753.15921	0.03882
3751.87344	0.03876
3750.58767	0.03892
3749.30190	0.03918
3748.01613	0.03926
3746.73036	0.03878
3745.44459	0.03801
3744.15882	0.03793
3742.87305	0.03859
3741.58729	0.03894
3740.30152	0.03857
3739.01575	0.03794
3737.72998	0.03750
3736.44421	0.03739
3735.15844	0.03744
3733.87267	0.03725
3732.58690	0.03672
3731.30114	0.03621
3730.01537	0.03595
3728.72960	0.03586
3727.44383	0.03604
3726.15806	0.03672
3724.87229	0.03769
3723.58652	0.03857
3722.30075	0.03925
3721.01498	0.03983
3719.72922	0.04030
3718.44345	0.04052
3717.15768	0.04044
3715.87191	0.03999
3714.58614	0.03923
3713.30037	0.03852
3712.01460	0.03838
3710.72883	0.03884
3709.44307	0.03937
3708.15730	0.03943
3706.87153	0.03892
3705.58576	0.03807
3704.29999	0.03729
3703.01422	0.03702
3701.72845	0.03746
3700.44268	0.03835
3699.15691	0.03909
3697.87115	0.03929
3696.58538	0.03921
3695.29961	0.03935
3694.01384	0.03987
3692.72807	0.04037
3691.44230	0.04031
3690.15653	0.03964
3688.87076	0.03906
3687.58500	0.03939
3686.29923	0.04037
3685.01346	0.04089
3683.72769	0.04035
3682.44192	0.03918
3681.15615	0.03808
3679.87038	0.03744
3678.58461	0.03700
3677.29884	0.03631
3676.01308	0.03563
3674.72731	0.03565
3673.44154	0.03641
3672.15577	0.03734
3670.87000	0.03816
3669.58423	0.03880
3668.29846	0.03896
3667.01269	0.03859
3665.72693	0.03821
3664.44116	0.03818
3663.15539	0.03833
3661.86962	0.03830
3660.58385	0.03801
3659.29808	0.03767
3658.01231	0.03760
3656.72654	0.03812
3655.44077	0.03927
3654.15501	0.04044
3652.86924	0.04089
3651.58347	0.04049
3650.29770	0.03984
3649.01193	0.03951
3647.72616	0.03960
3646.44039	0.03977
3645.15462	0.03964
3643.86886	0.03922
3642.58309	0.03888
3641.29732	0.03888
3640.01155	0.03913
3638.72578	0.03952
3637.44001	0.04024
3636.15424	0.04139
3634.86847	0.04268
3633.58270	0.04360
3632.29694	0.04381
3631.01117	0.04339
3629.72540	0.04287
3628.43963	0.04288
3627.15386	0.04339
3625.86809	0.04392
3624.58232	0.04426
3623.29655	0.04446
3622.01079	0.04445
3620.72502	0.04415
3619.43925	0.04381
3618.15348	0.04377
3616.86771	0.04408
3615.58194	0.04461
3614.29617	0.04527
3613.01040	0.04597
3611.72463	0.04655
3610.43887	0.04693
3609.15310	0.04728
3607.86733	0.04776
3606.58156	0.04811
3605.29579	0.04792
3604.01002	0.04709
3602.72425	0.04598
3601.43848	0.04514
3600.15272	0.04511
3598.86695	0.04603
3597.58118	0.04746
3596.29541	0.04861
3595.00964	0.04892
3593.72387	0.04849
3592.43810	0.04785
3591.15233	0.04753
3589.86656	0.04767
3588.58080	0.04802
3587.29503	0.04828
3586.00926	0.04834
3584.72349	0.04838
3583.43772	0.04861
3582.15195	0.04912
3580.86618	0.04982
3579.58041	0.05055
3578.29464	0.05106
3577.00888	0.05108
3575.72311	0.05052
3574.43734	0.04965
3573.15157	0.04889
3571.86580	0.04849
3570.58003	0.04847
3569.29426	0.04884
3568.00849	0.04957
3566.72273	0.05046
3565.43696	0.05112
3564.15119	0.05137
3562.86542	0.05140
3561.57965	0.05148
3560.29388	0.05174
3559.00811	0.05217
3557.72234	0.05276
3556.43657	0.05336
3555.15081	0.05369
3553.86504	0.05363
3552.57927	0.05344
3551.29350	0.05354
3550.00773	0.05412
3548.72196	0.05494
3547.43619	0.05557
3546.15042	0.05573
3544.86466	0.05553
3543.57889	0.05540
3542.29312	0.05567
3541.00735	0.05628
3539.72158	0.05693
3538.43581	0.05741
3537.15004	0.05771
3535.86427	0.05786
3534.57850	0.05781
3533.29274	0.05745
3532.00697	0.05692
3530.72120	0.05655
3529.43543	0.05667
3528.14966	0.05729
3526.86389	0.05802
3525.57812	0.05847
3524.29235	0.05856
3523.00659	0.05851
3521.72082	0.05846
3520.43505	0.05842
3519.14928	0.05835
3517.86351	0.05832
3516.57774	0.05840
3515.29197	0.05863
3514.00620	0.05902
3512.72043	0.05942
3511.43467	0.05959
3510.14890	0.05934
3508.86313	0.05879
3507.57736	0.05828
3506.29159	0.05814
3505.00582	0.05843
3503.72005	0.05900
3502.43428	0.05958
3501.14852	0.05996
3499.86275	0.06011
3498.57698	0.06026
3497.29121	0.06076
3496.00544	0.06180
3494.71967	0.06311
3493.43390	0.06413
3492.14813	0.06445
3490.86236	0.06408
3489.57660	0.06332
3488.29083	0.06251
3487.00506	0.06196
3485.71929	0.06190
3484.43352	0.06223
3483.14775	0.06259
3481.86198	0.06273
3480.57621	0.06278
3479.29045	0.06307
3478.00468	0.06366
3476.71891	0.06424
3475.43314	0.06454
3474.14737	0.06464
3472.86160	0.06477
3471.57583	0.06499
3470.29006	0.06518
3469.00429	0.06523
3467.71853	0.06522
3466.43276	0.06525
3465.14699	0.06530
3463.86122	0.06526
3462.57545	0.06510
3461.28968	0.06498
3460.00391	0.06508
3458.71814	0.06536
3457.43238	0.06564
3456.14661	0.06578
3454.86084	0.06585
3453.57507	0.06598
3452.28930	0.06625
3451.00353	0.06663
3449.71776	0.06710
3448.43199	0.06759
3447.14622	0.06801
3445.86046	0.06824
3444.57469	0.06832
3443.28892	0.06841
3442.00315	0.06864
3440.71738	0.06896
3439.43161	0.06914
3438.14584	0.06902
3436.86007	0.06864
3435.57431	0.06836
3434.28854	0.06856
3433.00277	0.06929
3431.71700	0.07008
3430.43123	0.07037
3429.14546	0.06994
3427.85969	0.06915
3426.57392	0.06851
3425.28815	0.06835
3424.00239	0.06863
3422.71662	0.06902
3421.43085	0.06916
3420.14508	0.06889
3418.85931	0.06840
3417.57354	0.06808
3416.28777	0.06823
3415.00200	0.06880
3413.71624	0.06947
3412.43047	0.06986
3411.14470	0.06989
3409.85893	0.06978
3408.57316	0.06982
3407.28739	0.07004
3406.00162	0.07027
3404.71585	0.07034
3403.43008	0.07033
3402.14432	0.07052
3400.85855	0.07103
3399.57278	0.07168
3398.28701	0.07209
3397.00124	0.07205
3395.71547	0.07173
3394.42970	0.07136
3393.14393	0.07106
3391.85817	0.07093
3390.57240	0.07109
3389.28663	0.07152
3388.00086	0.07204
3386.71509	0.07243
3385.42932	0.07251
3384.14355	0.07230
3382.85778	0.07200
3381.57201	0.07186
3380.28625	0.07199
3379.00048	0.07228
3377.71471	0.07255
3376.42894	0.07275
3375.14317	0.07290
3373.85740	0.07304
3372.57163	0.07315
3371.28586	0.07323
3370.00010	0.07331
3368.71433	0.07340
3367.42856	0.07346
3366.14279	0.07343
3364.85702	0.07331
3363.57125	0.07315
3362.28548	0.07303
3360.99971	0.07301
3359.71394	0.07296
3358.42818	0.07273
3357.14241	0.07242
3355.85664	0.07239
3354.57087	0.07295
3353.28510	0.07401
3351.99933	0.07505
3350.71356	0.07553
3349.42779	0.07534
3348.14202	0.07472
3346.85626	0.07396
3345.57049	0.07322
3344.28472	0.07260
3342.99895	0.07220
3341.71318	0.07202
3340.42741	0.07202
3339.14164	0.07225
3337.85587	0.07276
3336.57011	0.07352
3335.28434	0.07425
3333.99857	0.07457
3332.71280	0.07428
3331.42703	0.07356
3330.14126	0.07281
3328.85549	0.07236
3327.56972	0.07227
3326.28395	0.07238
3324.99819	0.07245
3323.71242	0.07231
3322.42665	0.07191
3321.14088	0.07139
3319.85511	0.07105
3318.56934	0.07109
3317.28357	0.07142
3315.99780	0.07175
3314.71204	0.07184
3313.42627	0.07168
3312.14050	0.07149
3310.85473	0.07139
3309.56896	0.07131
3308.28319	0.07121
3306.99742	0.07124
3305.71165	0.07157
3304.42588	0.07209
3303.14012	0.07245
3301.85435	0.07252
3300.56858	0.07253
3299.28281	0.07278
3297.99704	0.07322
3296.71127	0.07353
3295.42550	0.07351
3294.13973	0.07329
3292.85397	0.07315
3291.56820	0.07318
3290.28243	0.07330
3288.99666	0.07342
3287.71089	0.07343
3286.42512	0.07320
3285.13935	0.07268
3283.85358	0.07212
3282.56781	0.07182
3281.28205	0.07183
3279.99628	0.07197
3278.71051	0.07207
3277.42474	0.07221
3276.13897	0.07255
3274.85320	0.07300
3273.56743	0.07321
3272.28166	0.07290
3270.99590	0.07216
3269.71013	0.07151
3268.42436	0.07140
3267.13859	0.07181
3265.85282	0.07230
3264.56705	0.07243
3263.28128	0.07214
3261.99551	0.07163
3260.70974	0.07112
3259.42398	0.07071
3258.13821	0.07043
3256.85244	0.07036
3255.56667	0.07053
3254.28090	0.07086
3252.99513	0.07118
3251.70936	0.07134
3250.42359	0.07136
3249.13783	0.07132
3247.85206	0.07131
3246.56629	0.07128
3245.28052	0.07114
3243.99475	0.07085
3242.70898	0.07052
3241.42321	0.07021
3240.13744	0.06990
3238.85167	0.06952
3237.56591	0.06910
3236.28014	0.06879
3234.99437	0.06871
3233.70860	0.06886
3232.42283	0.06916
3231.13706	0.06950
3229.85129	0.06968
3228.56552	0.06954
3227.27976	0.06915
3225.99399	0.06876
3224.70822	0.06860
3223.42245	0.06861
3222.13668	0.06862
3220.85091	0.06853
3219.56514	0.06840
3218.27937	0.06837
3216.99360	0.06854
3215.70784	0.06882
3214.42207	0.06907
3213.13630	0.06917
3211.85053	0.06914
3210.56476	0.06904
3209.27899	0.06898
3207.99322	0.06899
3206.70745	0.06906
3205.42169	0.06916
3204.13592	0.06927
3202.85015	0.06944
3201.56438	0.06962
3200.27861	0.06971
3198.99284	0.06962
3197.70707	0.06938
3196.42130	0.06907
3195.13553	0.06867
3193.84977	0.06814
3192.56400	0.06749
3191.27823	0.06686
3189.99246	0.06640
3188.70669	0.06623
3187.42092	0.06628
3186.13515	0.06635
3184.84938	0.06624
3183.56362	0.06595
3182.27785	0.06565
3180.99208	0.06559
3179.70631	0.06581
3178.42054	0.06613
3177.13477	0.06630
3175.84900	0.06621
3174.56323	0.06597
3173.27746	0.06574
3171.99170	0.06550
3170.70593	0.06512
3169.42016	0.06466
3168.13439	0.06435
3166.84862	0.06435
3165.56285	0.06459
3164.27708	0.06484
3162.99131	0.06494
3161.70555	0.06490
3160.41978	0.06482
3159.13401	0.06480
3157.84824	0.06491
3156.56247	0.06504
3155.27670	0.06501
3153.99093	0.06473
3152.70516	0.06424
3151.41939	0.06367
3150.13363	0.06314
3148.84786	0.06278
3147.56209	0.06273
3146.27632	0.06294
3144.99055	0.06324
3143.70478	0.06357
3142.41901	0.06393
3141.13324	0.06425
3139.84748	0.06430
3138.56171	0.06394
3137.27594	0.06329
3135.99017	0.06263
3134.70440	0.06217
3133.41863	0.06195
3132.13286	0.06192
3130.84709	0.06201
3129.56132	0.06210
3128.27556	0.06208
3126.98979	0.06191
3125.70402	0.06162
3124.41825	0.06134
3123.13248	0.06120
3121.84671	0.06126
3120.56094	0.06144
3119.27517	0.06156
3117.98940	0.06149
3116.70364	0.06128
3115.41787	0.06111
3114.13210	0.06106
3112.84633	0.06105
3111.56056	0.06103
3110.27479	0.06111
3108.98902	0.06135
3107.70325	0.06164
3106.41749	0.06180
3105.13172	0.06181
3103.84595	0.06176
3102.56018	0.06166
3101.27441	0.06140
3099.98864	0.06095
3098.70287	0.06050
3097.41710	0.06028
3096.13133	0.06036
3094.84557	0.06053
3093.55980	0.06051
3092.27403	0.06023
3090.98826	0.05988
3089.70249	0.05972
3088.41672	0.05975
3087.13095	0.05975
3085.84518	0.05956
3084.55942	0.05925
3083.27365	0.05899
3081.98788	0.05886
3080.70211	0.05890
3079.41634	0.05908
3078.13057	0.05929
3076.84480	0.05939
3075.55903	0.05929
3074.27326	0.05908
3072.98750	0.05890
3071.70173	0.05882
3070.41596	0.05882
3069.13019	0.05891
3067.84442	0.05907
3066.55865	0.05922
3065.27288	0.05924
3063.98711	0.05904
3062.70135	0.05866
3061.41558	0.05818
3060.12981	0.05777
3058.84404	0.05754
3057.55827	0.05754
3056.27250	0.05773
3054.98673	0.05798
3053.70096	0.05818
3052.41519	0.05823
3051.12943	0.05813
3049.84366	0.05788
3048.55789	0.05753
3047.27212	0.05715
3045.98635	0.05683
3044.70058	0.05658
3043.41481	0.05634
3042.12904	0.05604
3040.84328	0.05573
3039.55751	0.05558
3038.27174	0.05571
3036.98597	0.05605
3035.70020	0.05645
3034.41443	0.05673
3033.12866	0.05682
3031.84289	0.05667
3030.55712	0.05634
3029.27136	0.05597
3027.98559	0.05570
3026.69982	0.05557
3025.41405	0.05554
3024.12828	0.05550
3022.84251	0.05540
3021.55674	0.05524
3020.27097	0.05511
3018.98521	0.05512
3017.69944	0.05523
3016.41367	0.05528
3015.12790	0.05519
3013.84213	0.05505
3012.55636	0.05494
3011.27059	0.05488
3009.98482	0.05478
3008.69905	0.05459
3007.41329	0.05429
3006.12752	0.05394
3004.84175	0.05366
3003.55598	0.05353
3002.27021	0.05350
3000.98444	0.05348
2999.69867	0.05344
2998.41290	0.05334
2997.12714	0.05327
2995.84137	0.05326
2994.55560	0.05335
2993.26983	0.05350
2991.98406	0.05369
2990.69829	0.05383
2989.41252	0.05390
2988.12675	0.05389
2986.84098	0.05389
2985.55522	0.05399
2984.26945	0.05415
2982.98368	0.05430
2981.69791	0.05444
2980.41214	0.05466
2979.12637	0.05507
2977.84060	0.05566
2976.55483	0.05637
2975.26907	0.05714
2973.98330	0.05791
2972.69753	0.05853
2971.41176	0.05885
2970.12599	0.05892
2968.84022	0.05899
2967.55445	0.05930
2966.26868	0.05987
2964.98291	0.06055
2963.69715	0.06122
2962.41138	0.06195
2961.12561	0.06289
2959.83984	0.06400
2958.55407	0.06502
2957.26830	0.06561
2955.98253	0.06568
2954.69676	0.06544
2953.41100	0.06525
2952.12523	0.06529
2950.83946	0.06550
2949.55369	0.06564
2948.26792	0.06558
2946.98215	0.06537
2945.69638	0.06516
2944.41061	0.06506
2943.12484	0.06511
2941.83908	0.06524
2940.55331	0.06536
2939.26754	0.06543
2937.98177	0.06553
2936.69600	0.06581
2935.41023	0.06638
2934.12446	0.06724
2932.83869	0.06818
2931.55293	0.06891
2930.26716	0.06927
2928.98139	0.06933
2927.69562	0.06922
2926.40985	0.06910
2925.12408	0.06902
2923.83831	0.06900
2922.55254	0.06904
2921.26677	0.06911
2919.98101	0.06917
2918.69524	0.06905
2917.40947	0.06867
2916.12370	0.06804
2914.83793	0.06729
2913.55216	0.06656
2912.26639	0.06594
2910.98062	0.06538
2909.69486	0.06480
2908.40909	0.06419
2907.12332	0.06364
2905.83755	0.06325
2904.55178	0.06294
2903.26601	0.06255
2901.98024	0.06204
2900.69447	0.06158
2899.40870	0.06138
2898.12294	0.06146
2896.83717	0.06161
2895.55140	0.06154
2894.26563	0.06113
2892.97986	0.06045
2891.69409	0.05966
2890.40832	0.05888
2889.12255	0.05820
2887.83678	0.05767
2886.55102	0.05735
2885.26525	0.05718
2883.97948	0.05715
2882.69371	0.05728
2881.40794	0.05763
2880.12217	0.05811
2878.83640	0.05853
2877.55063	0.05873
2876.26487	0.05874
2874.97910	0.05865
2873.69333	0.05849
2872.40756	0.05828
2871.12179	0.05805
2869.83602	0.05790
2868.55025	0.05781
2867.26448	0.05772
2865.97871	0.05764
2864.69295	0.05764
2863.40718	0.05776
2862.12141	0.05790
2860.83564	0.05799
2859.54987	0.05804
2858.26410	0.05810
2856.97833	0.05820
2855.69256	0.05823
2854.40680	0.05802
2853.12103	0.05749
2851.83526	0.05677
2850.54949	0.05605
2849.26372	0.05548
2847.97795	0.05500
2846.69218	0.05450
2845.40641	0.05394
2844.12064	0.05342
2842.83488	0.05304
2841.54911	0.05277
2840.26334	0.05240
2838.97757	0.05179
2837.69180	0.05101
2836.40603	0.05030
2835.12026	0.04979
2833.83449	0.04941
2832.54873	0.04899
2831.26296	0.04847
2829.97719	0.04790
2828.69142	0.04739
2827.40565	0.04702
2826.11988	0.04677
2824.83411	0.04662
2823.54834	0.04656
2822.26257	0.04661
2820.97681	0.04679
2819.69104	0.04705
2818.40527	0.04729
2817.11950	0.04734
2815.83373	0.04711
2814.54796	0.04661
2813.26219	0.04606
2811.97642	0.04569
2810.69066	0.04563
2809.40489	0.04580
2808.11912	0.04597
2806.83335	0.04595
2805.54758	0.04572
2804.26181	0.04547
2802.97604	0.04534
2801.69027	0.04530
2800.40450	0.04518
2799.11874	0.04485
2797.83297	0.04440
2796.54720	0.04406
2795.26143	0.04397
2793.97566	0.04403
2792.68989	0.04407
2791.40412	0.04404
2790.11835	0.04401
2788.83259	0.04403
2787.54682	0.04411
2786.26105	0.04420
2784.97528	0.04428
2783.68951	0.04430
2782.40374	0.04417
2781.11797	0.04389
2779.83220	0.04354
2778.54643	0.04322
2777.26067	0.04297
2775.97490	0.04276
2774.68913	0.04259
2773.40336	0.04249
2772.11759	0.04245
2770.83182	0.04237
2769.54605	0.04219
2768.26028	0.04191
2766.97452	0.04168
2765.68875	0.04157
2764.40298	0.04156
2763.11721	0.04162
2761.83144	0.04173
2760.54567	0.04183
2759.25990	0.04185
2757.97413	0.04175
2756.68836	0.04163
2755.40260	0.04157
2754.11683	0.04163
2752.83106	0.04175
2751.54529	0.04188
2750.25952	0.04192
2748.97375	0.04179
2747.68798	0.04156
2746.40221	0.04138
2745.11645	0.04133
2743.83068	0.04132
2742.54491	0.04121
2741.25914	0.04099
2739.97337	0.04073
2738.68760	0.04057
2737.40183	0.04053
2736.11606	0.04058
2734.83029	0.04065
2733.54453	0.04068
2732.25876	0.04066
2730.97299	0.04063
2729.68722	0.04065
2728.40145	0.04073
2727.11568	0.04078
2725.82991	0.04064
2724.54414	0.04029
2723.25838	0.03987
2721.97261	0.03957
2720.68684	0.03945
2719.40107	0.03946
2718.11530	0.03954
2716.82953	0.03966
2715.54376	0.03978
2714.25799	0.03983
2712.97222	0.03975
2711.68646	0.03964
2710.40069	0.03957
2709.11492	0.03957
2707.82915	0.03954
2706.54338	0.03943
2705.25761	0.03928
2703.97184	0.03913
2702.68607	0.03897
2701.40031	0.03884
2700.11454	0.03879
2698.82877	0.03885
2697.54300	0.03892
2696.25723	0.03887
2694.97146	0.03872
2693.68569	0.03857
2692.39992	0.03848
2691.11415	0.03837
2689.82839	0.03816
2688.54262	0.03787
2687.25685	0.03768
2685.97108	0.03776
2684.68531	0.03806
2683.39954	0.03837
2682.11377	0.03849
2680.82800	0.03843
2679.54224	0.03829
2678.25647	0.03817
2676.97070	0.03806
2675.68493	0.03800
2674.39916	0.03798
2673.11339	0.03794
2671.82762	0.03778
2670.54185	0.03752
2669.25608	0.03730
2667.97032	0.03724
2666.68455	0.03732
2665.39878	0.03746
2664.11301	0.03753
2662.82724	0.03741
2661.54147	0.03708
2660.25570	0.03668
2658.96993	0.03640
2657.68417	0.03632
2656.39840	0.03638
2655.11263	0.03644
2653.82686	0.03640
2652.54109	0.03623
2651.25532	0.03596
2649.96955	0.03565
2648.68378	0.03538
2647.39801	0.03519
2646.11225	0.03503
2644.82648	0.03488
2643.54071	0.03477
2642.25494	0.03472
2640.96917	0.03467
2639.68340	0.03453
2638.39763	0.03432
2637.11186	0.03420
2635.82609	0.03421
2634.54033	0.03427
2633.25456	0.03423
2631.96879	0.03408
2630.68302	0.03389
2629.39725	0.03374
2628.11148	0.03366
2626.82571	0.03370
2625.53994	0.03383
2624.25418	0.03396
2622.96841	0.03399
2621.68264	0.03389
2620.39687	0.03363
2619.11110	0.03322
2617.82533	0.03278
2616.53956	0.03251
2615.25379	0.03256
2613.96802	0.03282
2612.68226	0.03304
2611.39649	0.03303
2610.11072	0.03287
2608.82495	0.03279
2607.53918	0.03290
2606.25341	0.03305
2604.96764	0.03295
2603.68187	0.03255
2602.39611	0.03210
2601.11034	0.03193
2599.82457	0.03203
2598.53880	0.03207
2597.25303	0.03186
2595.96726	0.03153
2594.68149	0.03133
2593.39572	0.03128
2592.10995	0.03121
2590.82419	0.03092
2589.53842	0.03049
2588.25265	0.03015
2586.96688	0.03005
2585.68111	0.03013
2584.39534	0.03024
2583.10957	0.03033
2581.82380	0.03046
2580.53804	0.03061
2579.25227	0.03071
2577.96650	0.03074
2576.68073	0.03078
2575.39496	0.03092
2574.10919	0.03115
2572.82342	0.03138
2571.53765	0.03149
2570.25188	0.03140
2568.96612	0.03109
2567.68035	0.03063
2566.39458	0.03015
2565.10881	0.02988
2563.82304	0.02997
2562.53727	0.03028
2561.25150	0.03046
2559.96573	0.03023
2558.67997	0.02966
2557.39420	0.02906
2556.10843	0.02876
2554.82266	0.02877
2553.53689	0.02890
2552.25112	0.02895
2550.96535	0.02895
2549.67958	0.02901
2548.39381	0.02915
2547.10805	0.02923
2545.82228	0.02916
2544.53651	0.02897
2543.25074	0.02876
2541.96497	0.02860
2540.67920	0.02855
2539.39343	0.02867
2538.10766	0.02892
2536.82190	0.02912
2535.53613	0.02911
2534.25036	0.02899
2532.96459	0.02899
2531.67882	0.02923
2530.39305	0.02957
2529.10728	0.02982
2527.82151	0.02990
2526.53574	0.02979
2525.24998	0.02952
2523.96421	0.02909
2522.67844	0.02862
2521.39267	0.02828
2520.10690	0.02824
2518.82113	0.02844
2517.53536	0.02867
2516.24959	0.02868
2514.96383	0.02845
2513.67806	0.02811
2512.39229	0.02783
2511.10652	0.02769
2509.82075	0.02767
2508.53498	0.02776
2507.24921	0.02789
2505.96344	0.02797
2504.67767	0.02797
2503.39191	0.02792
2502.10614	0.02787
2500.82037	0.02778
2499.53460	0.02761
2498.24883	0.02741
2496.96306	0.02731
2495.67729	0.02732
2494.39152	0.02732
2493.10576	0.02733
2491.81999	0.02751
2490.53422	0.02792
2489.24845	0.02832
2487.96268	0.02848
2486.67691	0.02839
2485.39114	0.02824
2484.10537	0.02817
2482.81960	0.02812
2481.53384	0.02799
2480.24807	0.02774
2478.96230	0.02747
2477.67653	0.02733
2476.39076	0.02737
2475.10499	0.02753
2473.81922	0.02770
2472.53345	0.02779
2471.24769	0.02775
2469.96192	0.02759
2468.67615	0.02743
2467.39038	0.02733
2466.10461	0.02722
2464.81884	0.02703
2463.53307	0.02683
2462.24730	0.02675
2460.96153	0.02681
2459.67577	0.02700
2458.39000	0.02735
2457.10423	0.02780
2455.81846	0.02814
2454.53269	0.02817
2453.24692	0.02791
2451.96115	0.02749
2450.67538	0.02701
2449.38962	0.02655
2448.10385	0.02632
2446.81808	0.02643
2445.53231	0.02674
2444.24654	0.02695
2442.96077	0.02688
2441.67500	0.02666
2440.38923	0.02651
2439.10346	0.02657
2437.81770	0.02672
2436.53193	0.02672
2435.24616	0.02643
2433.96039	0.02604
2432.67462	0.02585
2431.38885	0.02595
2430.10308	0.02616
2428.81731	0.02627
2427.53155	0.02627
2426.24578	0.02620
2424.96001	0.02608
2423.67424	0.02597
2422.38847	0.02603
2421.10270	0.02627
2419.81693	0.02649
2418.53116	0.02654
2417.24539	0.02643
2415.95963	0.02622
2414.67386	0.02590
2413.38809	0.02551
2412.10232	0.02523
2410.81655	0.02523
2409.53078	0.02548
2408.24501	0.02574
2406.95924	0.02585
2405.67347	0.02582
2404.38771	0.02581
2403.10194	0.02589
2401.81617	0.02602
2400.53040	0.02610
2399.24463	0.02589
2397.95886	0.02571
2396.67309	0.02556
2395.38732	0.02547
2394.10156	0.02551
2392.81579	0.02563
2391.53002	0.02581
2390.24425	0.02601
2388.95848	0.02616
2387.67271	0.02620
2386.38694	0.02612
2385.10117	0.02602
2383.81540	0.02603
2382.52964	0.02615
2381.24387	0.02636
2379.95810	0.02659
2378.67233	0.02690
2377.38656	0.02737
2376.10079	0.02801
2374.81502	0.02876
2373.52925	0.02943
2372.24349	0.02988
2370.95772	0.03000
2369.67195	0.02994
2368.38618	0.02988
2367.10041	0.02997
2365.81464	0.03021
2364.52887	0.03065
2363.24310	0.03113
2361.95733	0.03153
2360.67157	0.03174
2359.38580	0.03193
2358.10003	0.03205
2356.81426	0.03205
2355.52849	0.03197
2354.24272	0.03178
2352.95695	0.03156
2351.67118	0.03117
2350.38542	0.03059
2349.09965	0.03010
2347.81388	0.02997
2346.52811	0.02995
2345.24234	0.02989
2343.95657	0.02993
2342.67080	0.03019
2341.38503	0.03031
2340.09926	0.03016
2338.81350	0.03021
2337.52773	0.03051
2336.24196	0.03048
2334.95619	0.03023
2333.67042	0.03047
2332.38465	0.03114
2331.09888	0.03125
2329.81311	0.03131
2328.52735	0.03191
2327.24158	0.03167
2325.95581	0.03081
2324.67004	0.03037
2323.38427	0.02962
2322.09850	0.02861
2320.81273	0.02841
2319.52696	0.02815
2318.24119	0.02774
2316.95543	0.02763
2315.66966	0.02716
2314.38389	0.02663
2313.09812	0.02643
2311.81235	0.02614
2310.52658	0.02599
2309.24081	0.02582
2307.95504	0.02557
2306.66928	0.02555
2305.38351	0.02553
2304.09774	0.02547
2302.81197	0.02537
2301.52620	0.02519
2300.24043	0.02509
2298.95466	0.02496
2297.66889	0.02475
2296.38312	0.02448
2295.09736	0.02423
2293.81159	0.02411
2292.52582	0.02409
2291.24005	0.02406
2289.95428	0.02388
2288.66851	0.02349
2287.38274	0.02293
2286.09697	0.02242
2284.81121	0.02225
2283.52544	0.02252
2282.23967	0.02294
2280.95390	0.02303
2279.66813	0.02253
2278.38236	0.02164
2277.09659	0.02075
2275.81082	0.02016
2274.52505	0.01990
2273.23929	0.01993
2271.95352	0.02012
2270.66775	0.02030
2269.38198	0.02037
2268.09621	0.02040
2266.81044	0.02043
2265.52467	0.02035
2264.23890	0.02001
2262.95314	0.01942
2261.66737	0.01896
2260.38160	0.01905
2259.09583	0.01975
2257.81006	0.02065
2256.52429	0.02117
2255.23852	0.02105
2253.95275	0.02044
2252.66698	0.01974
2251.38122	0.01928
2250.09545	0.01894
2248.80968	0.01843
2247.52391	0.01846
2246.23814	0.01849
2244.95237	0.01851
2243.66660	0.01872
2242.38083	0.01934
2241.09507	0.02031
2239.80930	0.02105
2238.52353	0.02096
2237.23776	0.01998
2235.95199	0.01874
2234.66622	0.01793
2233.38045	0.01774
2232.09468	0.01795
2230.80891	0.01835
2229.52315	0.01877
2228.23738	0.01895
2226.95161	0.01863
2225.66584	0.01792
2224.38007	0.01722
2223.09430	0.01675
2221.80853	0.01640
2220.52276	0.01607
2219.23700	0.01593
2217.95123	0.01600
2216.66546	0.01596
2215.37969	0.01567
2214.09392	0.01551
2212.80815	0.01585
2211.52238	0.01642
2210.23661	0.01660
2208.95084	0.01616
2207.66508	0.01538
2206.37931	0.01466
2205.09354	0.01425
2203.80777	0.01426
2202.52200	0.01460
2201.23623	0.01491
2199.95046	0.01488
2198.66469	0.01460
2197.37893	0.01437
2196.09316	0.01427
2194.80739	0.01419
2193.52162	0.01419
2192.23585	0.01456
2190.95008	0.01536
2189.66431	0.01614
2188.37854	0.01625
2187.09277	0.01558
2185.80701	0.01456
2184.52124	0.01370
2183.23547	0.01329
2181.94970	0.01332
2180.66393	0.01353
2179.37816	0.01348
2178.09239	0.01299
2176.80662	0.01246
2175.52085	0.01242
2174.23509	0.01275
2172.94932	0.01281
2171.66355	0.01236
2170.37778	0.01187
2169.09201	0.01200
2167.80624	0.01278
2166.52047	0.01363
2165.23470	0.01392
2163.94894	0.01335
2162.66317	0.01205
2161.37740	0.01052
2160.09163	0.00950
2158.80586	0.00945
2157.52009	0.00996
2156.23432	0.01015
2154.94855	0.00965
2153.66278	0.00895
2152.37702	0.00877
2151.09125	0.00927
2149.80548	0.01002
2148.51971	0.01057
2147.23394	0.01084
2145.94817	0.01101
2144.66240	0.01127
2143.37663	0.01170
2142.09087	0.01230
2140.80510	0.01294
2139.51933	0.01346
2138.23356	0.01369
2136.94779	0.01358
2135.66202	0.01311
2134.37625	0.01238
2133.09048	0.01168
2131.80471	0.01144
2130.51895	0.01186
2129.23318	0.01268
2127.94741	0.01346
2126.66164	0.01394
2125.37587	0.01419
2124.09010	0.01431
2122.80433	0.01435
2121.51856	0.01433
2120.23280	0.01437
2118.94703	0.01452
2117.66126	0.01474
2116.37549	0.01488
2115.08972	0.01483
2113.80395	0.01468
2112.51818	0.01466
2111.23241	0.01488
2109.94664	0.01515
2108.66088	0.01515
2107.37511	0.01487
2106.08934	0.01455
2104.80357	0.01433
2103.51780	0.01409
2102.23203	0.01368
2100.94626	0.01313
2099.66049	0.01251
2098.37473	0.01220
2097.08896	0.01226
2095.80319	0.01256
2094.51742	0.01293
2093.23165	0.01338
2091.94588	0.01393
2090.66011	0.01447
2089.37434	0.01477
2088.08857	0.01468
2086.80281	0.01422
2085.51704	0.01355
2084.23127	0.01285
2082.94550	0.01234
2081.65973	0.01216
2080.37396	0.01230
2079.08819	0.01255
2077.80242	0.01279
2076.51666	0.01309
2075.23089	0.01356
2073.94512	0.01406
2072.65935	0.01426
2071.37358	0.01398
2070.08781	0.01336
2068.80204	0.01271
2067.51627	0.01224
2066.23050	0.01199
2064.94474	0.01192
2063.65897	0.01192
2062.37320	0.01180
2061.08743	0.01149
2059.80166	0.01108
2058.51589	0.01071
2057.23012	0.01035
2055.94435	0.00988
2054.65859	0.00936
2053.37282	0.00904
2052.08705	0.00904
2050.80128	0.00915
2049.51551	0.00894
2048.22974	0.00819
2046.94397	0.00714
2045.65820	0.00639
2044.37243	0.00626
2043.08667	0.00655
2041.80090	0.00683
2040.51513	0.00695
2039.22936	0.00709
2037.94359	0.00725
2036.65782	0.00718
2035.37205	0.00665
2034.08628	0.00576
2032.80052	0.00476
2031.51475	0.00399
2030.22898	0.00386
2028.94321	0.00467
2027.65744	0.00622
2026.37167	0.00772
2025.08590	0.00842
2023.80013	0.00820
2022.51436	0.00754
2021.22860	0.00704
2019.94283	0.00696
2018.65706	0.00726
2017.37129	0.00764
2016.08552	0.00778
2014.79975	0.00747
2013.51398	0.00686
2012.22821	0.00632
2010.94245	0.00601
2009.65668	0.00570
2008.37091	0.00531
2007.08514	0.00524
2005.79937	0.00594
2004.51360	0.00724
2003.22783	0.00847
2001.94206	0.00913
2000.65629	0.00930
1999.37053	0.00931
1998.08476	0.00937
1996.79899	0.00956
1995.51322	0.00998
1994.22745	0.01070
1992.94168	0.01162
1991.65591	0.01239
1990.37014	0.01265
1989.08438	0.01229
1987.79861	0.01151
1986.51284	0.01065
1985.22707	0.00990
1983.94130	0.00936
1982.65553	0.00907
1981.36976	0.00909
1980.08399	0.00941
1978.79822	0.00990
1977.51246	0.01020
1976.22669	0.00987
1974.94092	0.00901
1973.65515	0.00829
1972.36938	0.00830
1971.08361	0.00885
1969.79784	0.00918
1968.51207	0.00877
1967.22631	0.00787
1965.94054	0.00725
1964.65477	0.00748
1963.36900	0.00850
1962.08323	0.00974
1960.79746	0.01064
1959.51169	0.01105
1958.22592	0.01122
1956.94015	0.01136
1955.65439	0.01150
1954.36862	0.01166
1953.08285	0.01199
1951.79708	0.01262
1950.51131	0.01333
1949.22554	0.01374
1947.93977	0.01367
1946.65400	0.01332
1945.36823	0.01298
1944.08247	0.01272
1942.79670	0.01253
1941.51093	0.01240
1940.22516	0.01231
1938.93939	0.01217
1937.65362	0.01193
1936.36785	0.01167
1935.08208	0.01166
1933.79632	0.01211
1932.51055	0.01291
1931.22478	0.01365
1929.93901	0.01393
1928.65324	0.01370
1927.36747	0.01328
1926.08170	0.01296
1924.79593	0.01287
1923.51016	0.01301
1922.22440	0.01332
1920.93863	0.01365
1919.65286	0.01386
1918.36709	0.01389
1917.08132	0.01381
1915.79555	0.01363
1914.50978	0.01340
1913.22401	0.01323
1911.93825	0.01331
1910.65248	0.01366
1909.36671	0.01411
1908.08094	0.01443
1906.79517	0.01451
1905.50940	0.01447
1904.22363	0.01441
1902.93786	0.01432
1901.65209	0.01420
1900.36633	0.01412
1899.08056	0.01414
1897.79479	0.01421
1896.50902	0.01422
1895.22325	0.01415
1893.93748	0.01411
1892.65171	0.01418
1891.36594	0.01434
1890.08018	0.01457
1888.79441	0.01485
1887.50864	0.01509
1886.22287	0.01511
1884.93710	0.01485
1883.65133	0.01449
1882.36556	0.01423
1881.07979	0.01416
1879.79402	0.01422
1878.50826	0.01427
1877.22249	0.01428
1875.93672	0.01425
1874.65095	0.01422
1873.36518	0.01422
1872.07941	0.01427
1870.79364	0.01435
1869.50787	0.01452
1868.22211	0.01481
1866.93634	0.01514
1865.65057	0.01540
1864.36480	0.01555
1863.07903	0.01559
1861.79326	0.01551
1860.50749	0.01528
1859.22172	0.01498
1857.93595	0.01477
1856.65019	0.01476
1855.36442	0.01492
1854.07865	0.01512
1852.79288	0.01523
1851.50711	0.01524
1850.22134	0.01520
1848.93557	0.01518
1847.64980	0.01514
1846.36404	0.01499
1845.07827	0.01477
1843.79250	0.01464
1842.50673	0.01468
1841.22096	0.01480
1839.93519	0.01490
1838.64942	0.01498
1837.36365	0.01506
1836.07788	0.01513
1834.79212	0.01521
1833.50635	0.01533
1832.22058	0.01546
1830.93481	0.01558
1829.64904	0.01567
1828.36327	0.01565
1827.07750	0.01547
1825.79173	0.01522
1824.50597	0.01512
1823.22020	0.01520
1821.93443	0.01534
1820.64866	0.01540
1819.36289	0.01539
1818.07712	0.01536
1816.79135	0.01540
1815.50558	0.01552
1814.21981	0.01568
1812.93405	0.01581
1811.64828	0.01588
1810.36251	0.01589
1809.07674	0.01587
1807.79097	0.01588
1806.50520	0.01594
1805.21943	0.01603
1803.93366	0.01603
1802.64790	0.01588
1801.36213	0.01565
1800.07636	0.01548
1798.79059	0.01547
1797.50482	0.01560
1796.21905	0.01575
1794.93328	0.01579
1793.64751	0.01573
1792.36174	0.01570
1791.07598	0.01579
1789.79021	0.01591
1788.50444	0.01596
1787.21867	0.01593
1785.93290	0.01591
1784.64713	0.01593
1783.36136	0.01597
1782.07559	0.01596
1780.78983	0.01591
1779.50406	0.01587
1778.21829	0.01585
1776.93252	0.01587
1775.64675	0.01590
1774.36098	0.01594
1773.07521	0.01605
1771.78944	0.01630
1770.50367	0.01653
1769.21791	0.01661
1767.93214	0.01660
1766.64637	0.01668
1765.36060	0.01678
1764.07483	0.01676
1762.78906	0.01664
1761.50329	0.01659
1760.21752	0.01666
1758.93176	0.01674
1757.64599	0.01678
1756.36022	0.01685
1755.07445	0.01698
1753.78868	0.01704
1752.50291	0.01701
1751.21714	0.01699
1749.93137	0.01705
1748.64560	0.01710
1747.35984	0.01709
1746.07407	0.01705
1744.78830	0.01706
1743.50253	0.01711
1742.21676	0.01716
1740.93099	0.01717
1739.64522	0.01723
1738.35945	0.01742
1737.07369	0.01760
1735.78792	0.01764
1734.50215	0.01770
1733.21638	0.01801
1731.93061	0.01845
1730.64484	0.01870
1729.35907	0.01872
1728.07330	0.01871
1726.78753	0.01872
1725.50177	0.01874
1724.21600	0.01878
1722.93023	0.01889
1721.64446	0.01904
1720.35869	0.01915
1719.07292	0.01922
1717.78715	0.01946
1716.50138	0.01997
1715.21561	0.02057
1713.92985	0.02102
1712.64408	0.02132
1711.35831	0.02158
1710.07254	0.02186
1708.78677	0.02217
1707.50100	0.02253
1706.21523	0.02295
1704.92946	0.02347
1703.64370	0.02394
1702.35793	0.02415
1701.07216	0.02429
1699.78639	0.02479
1698.50062	0.02554
1697.21485	0.02610
1695.92908	0.02652
1694.64331	0.02715
1693.35754	0.02785
1692.07178	0.02832
1690.78601	0.02862
1689.50024	0.02903
1688.21447	0.02954
1686.92870	0.02997
1685.64293	0.03029
1684.35716	0.03080
1683.07139	0.03160
1681.78563	0.03236
1680.49986	0.03288
1679.21409	0.03332
1677.92832	0.03375
1676.64255	0.03414
1675.35678	0.03457
1674.07101	0.03517
1672.78524	0.03579
1671.49947	0.03626
1670.21371	0.03668
1668.92794	0.03722
1667.64217	0.03787
1666.35640	0.03842
1665.07063	0.03876
1663.78486	0.03901
1662.49909	0.03937
1661.21332	0.03987
1659.92756	0.04039
1658.64179	0.04085
1657.35602	0.04126
1656.07025	0.04150
1654.78448	0.04145
1653.49871	0.04147
1652.21294	0.04195
1650.92717	0.04269
1649.64140	0.04311
1648.35564	0.04308
1647.06987	0.04295
1645.78410	0.04300
1644.49833	0.04319
1643.21256	0.04333
1641.92679	0.04340
1640.64102	0.04350
1639.35525	0.04363
1638.06949	0.04368
1636.78372	0.04364
1635.49795	0.04368
1634.21218	0.04387
1632.92641	0.04403
1631.64064	0.04401
1630.35487	0.04392
1629.06910	0.04393
1627.78333	0.04407
1626.49757	0.04423
1625.21180	0.04428
1623.92603	0.04425
1622.64026	0.04432
1621.35449	0.04450
1620.06872	0.04465
1618.78295	0.04464
1617.49718	0.04462
1616.21142	0.04486
1614.92565	0.04532
1613.63988	0.04573
1612.35411	0.04598
1611.06834	0.04619
1609.78257	0.04646
1608.49680	0.04675
1607.21103	0.04702
1605.92526	0.04730
1604.63950	0.04762
1603.35373	0.04799
1602.06796	0.04842
1600.78219	0.04883
1599.49642	0.04917
1598.21065	0.04943
1596.92488	0.04963
1595.63911	0.04983
1594.35335	0.05007
1593.06758	0.05035
1591.78181	0.05064
1590.49604	0.05091
1589.21027	0.05114
1587.92450	0.05136
1586.63873	0.05158
1585.35296	0.05181
1584.06719	0.05202
1582.78143	0.05223
1581.49566	0.05248
1580.20989	0.05279
1578.92412	0.05304
1577.63835	0.05313
1576.35258	0.05321
1575.06681	0.05350
1573.78104	0.05390
1572.49528	0.05414
1571.20951	0.05422
1569.92374	0.05434
1568.63797	0.05461
1567.35220	0.05490
1566.06643	0.05506
1564.78066	0.05519
1563.49489	0.05536
1562.20912	0.05545
1560.92336	0.05534
1559.63759	0.05523
1558.35182	0.05541
1557.06605	0.05573
1555.78028	0.05583
1554.49451	0.05569
1553.20874	0.05557
1551.92297	0.05551
1550.63721	0.05539
1549.35144	0.05520
1548.06567	0.05499
1546.77990	0.05469
1545.49413	0.05433
1544.20836	0.05394
1542.92259	0.05350
1541.63682	0.05294
1540.35105	0.05235
1539.06529	0.05195
1537.77952	0.05173
1536.49375	0.05143
1535.20798	0.05089
1533.92221	0.05034
1532.63644	0.05003
1531.35067	0.04993
1530.06490	0.04991
1528.77914	0.04991
1527.49337	0.04994
1526.20760	0.05003
1524.92183	0.05019
1523.63606	0.05034
1522.35029	0.05049
1521.06452	0.05082
1519.77875	0.05137
1518.49298	0.05194
1517.20722	0.05242
1515.92145	0.05293
1514.63568	0.05352
1513.34991	0.05416
1512.06414	0.05492
1510.77837	0.05582
1509.49260	0.05668
1508.20683	0.05736
1506.92107	0.05799
1505.63530	0.05878
1504.34953	0.05969
1503.06376	0.06050
1501.77799	0.06117
1500.49222	0.06179
1499.20645	0.06238
1497.92068	0.06288
1496.63491	0.06334
1495.34915	0.06386
1494.06338	0.06442
1492.77761	0.06488
1491.49184	0.06522
1490.20607	0.06558
1488.92030	0.06604
1487.63453	0.06658
1486.34876	0.06721
1485.06299	0.06796
1483.77723	0.06879
1482.49146	0.06968
1481.20569	0.07064
1479.91992	0.07165
1478.63415	0.07266
1477.34838	0.07365
1476.06261	0.07459
1474.77684	0.07542
1473.49108	0.07614
1472.20531	0.07686
1470.91954	0.07764
1469.63377	0.07839
1468.34800	0.07902
1467.06223	0.07953
1465.77646	0.07999
1464.49069	0.08053
1463.20492	0.08117
1461.91916	0.08186
1460.63339	0.08251
1459.34762	0.08307
1458.06185	0.08358
1456.77608	0.08425
1455.49031	0.08509
1454.20454	0.08583
1452.91877	0.08633
1451.63301	0.08667
1450.34724	0.08697
1449.06147	0.08721
1447.77570	0.08739
1446.48993	0.08751
1445.20416	0.08756
1443.91839	0.08750
1442.63262	0.08736
1441.34685	0.08721
1440.06109	0.08703
1438.77532	0.08679
1437.48955	0.08657
1436.20378	0.08656
1434.91801	0.08678
1433.63224	0.08710
1432.34647	0.08747
1431.06070	0.08799
1429.77494	0.08876
1428.48917	0.08976
1427.20340	0.09089
1425.91763	0.09208
1424.63186	0.09328
1423.34609	0.09446
1422.06032	0.09554
1420.77455	0.09644
1419.48878	0.09727
1418.20302	0.09810
1416.91725	0.09884
1415.63148	0.09935
1414.34571	0.09963
1413.05994	0.09973
1411.77417	0.09968
1410.48840	0.09946
1409.20263	0.09907
1407.91687	0.09849
1406.63110	0.09772
1405.34533	0.09675
1404.05956	0.09562
1402.77379	0.09433
1401.48802	0.09287
1400.20225	0.09124
1398.91648	0.08951
1397.63071	0.08771
1396.34495	0.08585
1395.05918	0.08397
1393.77341	0.08217
1392.48764	0.08046
1391.20187	0.07881
1389.91610	0.07714
1388.63033	0.07543
1387.34456	0.07372
1386.05880	0.07205
1384.77303	0.07043
1383.48726	0.06886
1382.20149	0.06734
1380.91572	0.06589
1379.62995	0.06447
1378.34418	0.06302
1377.05841	0.06151
1375.77264	0.05991
1374.48688	0.05824
1373.20111	0.05658
1371.91534	0.05497
1370.62957	0.05340
1369.34380	0.05191
1368.05803	0.05051
1366.77226	0.04922
1365.48649	0.04799
1364.20073	0.04681
1362.91496	0.04571
1361.62919	0.04475
1360.34342	0.04389
1359.05765	0.04309
1357.77188	0.04229
1356.48611	0.04151
1355.20034	0.04077
1353.91457	0.04006
1352.62881	0.03938
1351.34304	0.03872
1350.05727	0.03811
1348.77150	0.03756
1347.48573	0.03703
1346.19996	0.03649
1344.91419	0.03592
1343.62842	0.03536
1342.34266	0.03486
1341.05689	0.03440
1339.77112	0.03396
1338.48535	0.03352
1337.19958	0.03307
1335.91381	0.03262
1334.62804	0.03218
1333.34227	0.03173
1332.05650	0.03129
1330.77074	0.03087
1329.48497	0.03050
1328.19920	0.03017
1326.91343	0.02987
1325.62766	0.02961
1324.34189	0.02933
1323.05612	0.02903
1321.77035	0.02872
1320.48459	0.02844
1319.19882	0.02818
1317.91305	0.02794
1316.62728	0.02769
1315.34151	0.02743
1314.05574	0.02716
1312.76997	0.02690
1311.48420	0.02666
1310.19843	0.02644
1308.91267	0.02622
1307.62690	0.02600
1306.34113	0.02580
1305.05536	0.02562
1303.76959	0.02549
1302.48382	0.02537
1301.19805	0.02524
1299.91228	0.02509
1298.62652	0.02490
1297.34075	0.02467
1296.05498	0.02445
1294.76921	0.02427
1293.48344	0.02419
1292.19767	0.02417
1290.91190	0.02414
1289.62613	0.02403
1288.34036	0.02383
1287.05460	0.02359
1285.76883	0.02338
1284.48306	0.02325
1283.19729	0.02321
1281.91152	0.02320
1280.62575	0.02318
1279.33998	0.02311
1278.05421	0.02299
1276.76845	0.02286
1275.48268	0.02272
1274.19691	0.02258
1272.91114	0.02243
1271.62537	0.02229
1270.33960	0.02219
1269.05383	0.02215
1267.76806	0.02212
1266.48229	0.02208
1265.19653	0.02200
1263.91076	0.02187
1262.62499	0.02173
1261.33922	0.02160
1260.05345	0.02151
1258.76768	0.02143
1257.48191	0.02136
1256.19614	0.02129
1254.91037	0.02120
1253.62461	0.02112
1252.33884	0.02105
1251.05307	0.02100
1249.76730	0.02095
1248.48153	0.02088
1247.19576	0.02079
1245.90999	0.02074
1244.62422	0.02073
1243.33846	0.02074
1242.05269	0.02073
1240.76692	0.02068
1239.48115	0.02061
1238.19538	0.02053
1236.90961	0.02046
1235.62384	0.02038
1234.33807	0.02031
1233.05230	0.02021
1231.76654	0.02011
1230.48077	0.01999
1229.19500	0.01988
1227.90923	0.01977
1226.62346	0.01967
1225.33769	0.01955
1224.05192	0.01942
1222.76615	0.01931
1221.48039	0.01921
1220.19462	0.01912
1218.90885	0.01904
1217.62308	0.01896
1216.33731	0.01889
1215.05154	0.01882
1213.76577	0.01875
1212.48000	0.01867
1211.19423	0.01861
1209.90847	0.01860
1208.62270	0.01863
1207.33693	0.01868
1206.05116	0.01870
1204.76539	0.01869
1203.47962	0.01865
1202.19385	0.01859
1200.90808	0.01854
1199.62232	0.01852
1198.33655	0.01853
1197.05078	0.01857
1195.76501	0.01857
1194.47924	0.01851
1193.19347	0.01842
1191.90770	0.01832
1190.62193	0.01824
1189.33616	0.01819
1188.05040	0.01813
1186.76463	0.01805
1185.47886	0.01796
1184.19309	0.01789
1182.90732	0.01787
1181.62155	0.01791
1180.33578	0.01797
1179.05001	0.01802
1177.76425	0.01807
1176.47848	0.01814
1175.19271	0.01828
1173.90694	0.01848
1172.62117	0.01872
1171.33540	0.01896
1170.04963	0.01918
1168.76386	0.01938
1167.47809	0.01953
1166.19233	0.01964
1164.90656	0.01973
1163.62079	0.01983
1162.33502	0.01997
1161.04925	0.02018
1159.76348	0.02043
1158.47771	0.02068
1157.19194	0.02091
1155.90618	0.02117
1154.62041	0.02150
1153.33464	0.02188
1152.04887	0.02224
1150.76310	0.02257
1149.47733	0.02290
1148.19156	0.02331
1146.90579	0.02384
1145.62002	0.02448
1144.33426	0.02521
1143.04849	0.02595
1141.76272	0.02672
1140.47695	0.02756
1139.19118	0.02853
1137.90541	0.02964
1136.61964	0.03085
1135.33387	0.03216
1134.04811	0.03361
1132.76234	0.03523
1131.47657	0.03701
1130.19080	0.03896
1128.90503	0.04110
1127.61926	0.04344
1126.33349	0.04594
1125.04772	0.04853
1123.76195	0.05121
1122.47619	0.05403
1121.19042	0.05702
1119.90465	0.06015
1118.61888	0.06337
1117.33311	0.06662
1116.04734	0.06985
1114.76157	0.07302
1113.47580	0.07612
1112.19004	0.07914
1110.90427	0.08213
1109.61850	0.08511
1108.33273	0.08804
1107.04696	0.09090
1105.76119	0.09366
1104.47542	0.09635
1103.18965	0.09906
1101.90388	0.10180
1100.61812	0.10448
1099.33235	0.10698
1098.04658	0.10930
1096.76081	0.11151
1095.47504	0.11366
1094.18927	0.11571
1092.90350	0.11763
1091.61773	0.11942
1090.33197	0.12113
1089.04620	0.12281
1087.76043	0.12445
1086.47466	0.12608
1085.18889	0.12773
1083.90312	0.12949
1082.61735	0.13145
1081.33158	0.13356
1080.04581	0.13576
1078.76005	0.13797
1077.47428	0.14023
1076.18851	0.14260
1074.90274	0.14510
1073.61697	0.14769
1072.33120	0.15033
1071.04543	0.15304
1069.75966	0.15584
1068.47390	0.15874
1067.18813	0.16172
1065.90236	0.16473
1064.61659	0.16780
1063.33082	0.17094
1062.04505	0.17417
1060.75928	0.17740
1059.47351	0.18054
1058.18774	0.18358
1056.90198	0.18656
1055.61621	0.18956
1054.33044	0.19258
1053.04467	0.19559
1051.75890	0.19857
1050.47313	0.20158
1049.18736	0.20464
1047.90159	0.20777
1046.61583	0.21092
1045.33006	0.21410
1044.04429	0.21737
1042.75852	0.22080
1041.47275	0.22434
1040.18698	0.22786
1038.90121	0.23123
1037.61544	0.23442
1036.32967	0.23754
1035.04391	0.24070
1033.75814	0.24388
1032.47237	0.24699
1031.18660	0.24989
1029.90083	0.25250
1028.61506	0.25477
1027.32929	0.25672
1026.04352	0.25839
1024.75775	0.25979
1023.47199	0.26086
1022.18622	0.26156
1020.90045	0.26187
1019.61468	0.26179
1018.32891	0.26130
1017.04314	0.26039
1015.75737	0.25902
1014.47160	0.25720
1013.18584	0.25496
1011.90007	0.25234
1010.61430	0.24938
1009.32853	0.24603
1008.04276	0.24220
1006.75699	0.23786
1005.47122	0.23313
1004.18545	0.22814
1002.89968	0.22293
1001.61392	0.21745
1000.32815	0.21169
999.04238	0.20569
997.75661	0.19955
996.47084	0.19339
995.18507	0.18725
993.89930	0.18114
992.61353	0.17502
991.32777	0.16891
990.04200	0.16291
988.75623	0.15712
987.47046	0.15154
986.18469	0.14614
984.89892	0.14087
983.61315	0.13573
982.32738	0.13077
981.04161	0.12604
979.75585	0.12160
978.47008	0.11751
977.18431	0.11377
975.89854	0.11036
974.61277	0.10730
973.32700	0.10465
972.04123	0.10246
970.75546	0.10078
969.46970	0.09964
968.18393	0.09905
966.89816	0.09901
965.61239	0.09942
964.32662	0.10011
963.04085	0.10083
961.75508	0.10129
960.46931	0.10129
959.18354	0.10075
957.89778	0.09967
956.61201	0.09814
955.32624	0.09627
954.04047	0.09417
952.75470	0.09190
951.46893	0.08953
950.18316	0.08713
948.89739	0.08476
947.61163	0.08246
946.32586	0.08024
945.04009	0.07812
943.75432	0.07611
942.46855	0.07420
941.18278	0.07236
939.89701	0.07056
938.61124	0.06883
937.32547	0.06718
936.03971	0.06563
934.75394	0.06414
933.46817	0.06271
932.18240	0.06136
930.89663	0.06011
929.61086	0.05904
928.32509	0.05815
927.03932	0.05736
925.75356	0.05653
924.46779	0.05562
923.18202	0.05466
921.89625	0.05377
920.61048	0.05300
919.32471	0.05236
918.03894	0.05176
916.75317	0.05116
915.46740	0.05053
914.18164	0.04986
912.89587	0.04920
911.61010	0.04858
910.32433	0.04803
909.03856	0.04758
907.75279	0.04718
906.46702	0.04676
905.18125	0.04624
903.89549	0.04567
902.60972	0.04519
901.32395	0.04489
900.03818	0.04467
898.75241	0.04442
897.46664	0.04406
896.18087	0.04365
894.89510	0.04324
893.60933	0.04293
892.32357	0.04281
891.03780	0.04290
889.75203	0.04312
888.46626	0.04338
887.18049	0.04375
885.89472	0.04444
884.60895	0.04567
883.32318	0.04756
882.03742	0.04999
880.75165	0.05259
879.46588	0.05488
878.18011	0.05659
876.89434	0.05789
875.60857	0.05914
874.32280	0.06049
873.03703	0.06166
871.75126	0.06223
870.46550	0.06200
869.17973	0.06107
867.89396	0.05965
866.60819	0.05791
865.32242	0.05601
864.03665	0.05410
862.75088	0.05228
861.46511	0.05055
860.17935	0.04889
858.89358	0.04733
857.60781	0.04594
856.32204	0.04481
855.03627	0.04393
853.75050	0.04322
852.46473	0.04259
851.17896	0.04198
849.89319	0.04142
848.60743	0.04096
847.32166	0.04058
846.03589	0.04024
844.75012	0.03989
843.46435	0.03951
842.17858	0.03916
840.89281	0.03887
839.60704	0.03866
838.32128	0.03850
837.03551	0.03835
835.74974	0.03817
834.46397	0.03791
833.17820	0.03758
831.89243	0.03724
830.60666	0.03699
829.32089	0.03682
828.03512	0.03670
826.74936	0.03657
825.46359	0.03643
824.17782	0.03630
822.89205	0.03618
821.60628	0.03606
820.32051	0.03595
819.03474	0.03591
817.74897	0.03593
816.46321	0.03591
815.17744	0.03580
813.89167	0.03562
812.60590	0.03548
811.32013	0.03544
810.03436	0.03548
808.74859	0.03555
807.46282	0.03562
806.17705	0.03567
804.89129	0.03566
803.60552	0.03559
802.31975	0.03551
801.03398	0.03545
799.74821	0.03538
798.46244	0.03528
797.17667	0.03519
795.89090	0.03514
794.60513	0.03513
793.31937	0.03511
792.03360	0.03509
790.74783	0.03509
789.46206	0.03512
788.17629	0.03512
786.89052	0.03506
785.60475	0.03494
784.31898	0.03482
783.03322	0.03473
781.74745	0.03465
780.46168	0.03460
779.17591	0.03451
777.89014	0.03436
776.60437	0.03419
775.31860	0.03406
774.03283	0.03406
772.74706	0.03418
771.46130	0.03437
770.17553	0.03456
768.88976	0.03470
767.60399	0.03480
766.31822	0.03484
765.03245	0.03482
763.74668	0.03472
762.46091	0.03459
761.17515	0.03451
759.88938	0.03454
758.60361	0.03461
757.31784	0.03466
756.03207	0.03468
754.74630	0.03472
753.46053	0.03479
752.17476	0.03485
750.88899	0.03479
749.60323	0.03460
748.31746	0.03436
747.03169	0.03419
745.74592	0.03414
744.46015	0.03413
743.17438	0.03408
741.88861	0.03401
740.60284	0.03406
739.31708	0.03423
738.03131	0.03439
736.74554	0.03441
735.45977	0.03430
734.17400	0.03422
732.88823	0.03425
731.60246	0.03439
730.31669	0.03453
729.03092	0.03455
727.74516	0.03443
726.45939	0.03425
725.17362	0.03411
723.88785	0.03409
722.60208	0.03390
721.31631	0.03362
720.03054	0.03345
718.74477	0.03343
717.45901	0.03347
716.17324	0.03348
714.88747	0.03343
713.60170	0.03340
712.31593	0.03342
711.03016	0.03347
709.74439	0.03351
708.45862	0.03352
707.17285	0.03350
705.88709	0.03348
704.60132	0.03345
703.31555	0.03340
702.02978	0.03332
700.74401	0.03318
699.45824	0.03300
698.17247	0.03280
696.88670	0.03261
695.60094	0.03249
694.31517	0.03247
693.02940	0.03253
691.74363	0.03258
690.45786	0.03257
689.17209	0.03252
687.88632	0.03250
686.60055	0.03253
685.31478	0.03260
684.02902	0.03268
682.74325	0.03271
681.45748	0.03267
680.17171	0.03260
678.88594	0.03254
677.60017	0.03253
676.31440	0.03256
675.02863	0.03264
673.74287	0.03275
672.45710	0.03287
671.17133	0.03298
669.88556	0.03312
668.59979	0.03340
667.31402	0.03351
666.02825	0.03325
664.74248	0.03305
663.45671	0.03282
662.17095	0.03261
660.88518	0.03246
659.59941	0.03232
658.31364	0.03215
657.02787	0.03195
655.74210	0.03178
654.45633	0.03168
653.17056	0.03164
651.88480	0.03161
650.59903	0.03157
649.31326	0.03150
648.02749	0.03137
646.74172	0.03125
645.45595	0.03119
644.17018	0.03123
642.88441	0.03132
641.59864	0.03140
640.31288	0.03144
639.02711	0.03150
637.74134	0.03166
636.45557	0.03196
635.16980	0.03239
633.88403	0.03289
632.59826	0.03338
631.31249	0.03381
630.02673	0.03405
628.74096	0.03399
627.45519	0.03409
626.16942	0.03420
624.88365	0.03470
623.59788	0.03613
622.31211	0.03866
621.02634	0.04196
619.74057	0.04559
618.45481	0.04951
617.16904	0.05389
615.88327	0.05842
614.59750	0.06240
613.31173	0.06538
612.02596	0.06775
610.74019	0.07063
609.45442	0.07499
608.16866	0.08055
606.88289	0.08618
605.59712	0.09099
604.31135	0.09467
603.02558	0.09713
601.73981	0.09821
600.45404	0.09789
599.16827	0.09631
597.88250	0.09377
596.59674	0.09073
595.31097	0.08774
594.02520	0.08524
592.73943	0.08335
591.45366	0.08198
590.16789	0.08102
588.88212	0.08047
587.59635	0.08048
586.31059	0.08116
585.02482	0.08251
583.73905	0.08433
582.45328	0.08640
581.16751	0.08857
579.88174	0.09084
578.59597	0.09324
577.31020	0.09580
576.02443	0.09847
574.73867	0.10116
573.45290	0.10381
572.16713	0.10643
570.88136	0.10914
569.59559	0.11208
568.30982	0.11524
567.02405	0.11857
565.73828	0.12193
564.45251	0.12513
563.16675	0.12776
561.88098	0.12924
560.59521	0.12901
559.30944	0.12687
558.02367	0.12307
556.73790	0.11817
555.45213	0.11276
554.16636	0.10726
552.88060	0.10186
551.59483	0.09663
550.30906	0.09165
549.02329	0.08706
547.73752	0.08300
546.45175	0.07949
545.16598	0.07642
543.88021	0.07358
542.59444	0.07082
541.30868	0.06815
540.02291	0.06568
538.73714	0.06343
537.45137	0.06139
536.16560	0.05949
534.87983	0.05774
533.59406	0.05616
532.30829	0.05472
531.02253	0.05335
529.73676	0.05202
528.45099	0.05072
527.16522	0.04947
525.87945	0.04825
524.59368	0.04709
523.30791	0.04605
522.02214	0.04517
520.73637	0.04440
519.45061	0.04364
518.16484	0.04285
516.87907	0.04204
515.59330	0.04125
514.30753	0.04050
513.02176	0.03984
511.73599	0.03927
510.45022	0.03881
509.16446	0.03838
507.87869	0.03793
506.59292	0.03744
505.30715	0.03688
504.02138	0.03627
502.73561	0.03570
501.44984	0.03525
500.16407	0.03491
498.87830	0.03463
497.59254	0.03436
496.30677	0.03410
495.02100	0.03387
493.73523	0.03360
492.44946	0.03324
491.16369	0.03280
489.87792	0.03237
488.59215	0.03204
487.30639	0.03185
486.02062	0.03175
484.73485	0.03169
483.44908	0.03162
482.16331	0.03155
480.87754	0.03155
479.59177	0.03166
478.30600	0.03186
477.02023	0.03213
475.73447	0.03243
474.44870	0.03276
473.16293	0.03308
471.87716	0.03331
470.59139	0.03339
469.30562	0.03327
468.01985	0.03301
466.73408	0.03267
465.44832	0.03232
464.16255	0.03199
462.87678	0.03168
461.59101	0.03136
460.30524	0.03101
459.01947	0.03063
457.73370	0.03028
456.44793	0.02995
455.16216	0.02964
453.87640	0.02933
452.59063	0.02902
451.30486	0.02870
450.01909	0.02839
448.73332	0.02812
447.44755	0.02794
446.16178	0.02784
444.87601	0.02775
443.59025	0.02758
442.30448	0.02733
441.01871	0.02705
439.73294	0.02682
438.44717	0.02665
437.16140	0.02653
435.87563	0.02642
434.58986	0.02633
433.30409	0.02626
432.01833	0.02624
430.73256	0.02625
429.44679	0.02624
428.16102	0.02617
426.87525	0.02602
425.58948	0.02583
424.30371	0.02566
423.01794	0.02549
421.73218	0.02530
420.44641	0.02511
419.16064	0.02495
417.87487	0.02483
416.58910	0.02469
415.30333	0.02453
414.01756	0.02438
412.73179	0.02432
411.44602	0.02432
410.16026	0.02434
408.87449	0.02435
407.58872	0.02433
406.30295	0.02430
405.01718	0.02430
403.73141	0.02434
402.44564	0.02446
401.15987	0.02462
399.87411	0.02481
