3997.45528	0.04887
3996.16951	0.04898
3994.88374	0.04875
3993.59798	0.04786
3992.31221	0.04642
3991.02644	0.04511
3989.74067	0.04468
3988.45490	0.04539
3987.16913	0.04671
3985.88336	0.04772
3984.59759	0.04787
3983.31183	0.04732
3982.02606	0.04674
3980.74029	0.04664
3979.45452	0.04702
3978.16875	0.04738
3976.88298	0.04726
3975.59721	0.04667
3974.31144	0.04609
3973.02567	0.04602
3971.73991	0.04641
3970.45414	0.04682
3969.16837	0.04688
3967.88260	0.04665
3966.59683	0.04644
3965.31106	0.04646
3964.02529	0.04666
3962.73952	0.04692
3961.45376	0.04714
3960.16799	0.04720
3958.88222	0.04695
3957.59645	0.04640
3956.31068	0.04582
3955.02491	0.04561
3953.73914	0.04589
3952.45337	0.04637
3951.16760	0.04669
3949.88184	0.04678
3948.59607	0.04691
3947.31030	0.04729
3946.02453	0.04776
3944.73876	0.04799
3943.45299	0.04791
3942.16722	0.04779
3940.88145	0.04803
3939.59569	0.04866
3938.30992	0.04929
3937.02415	0.04942
3935.73838	0.04869
3934.45261	0.04719
3933.16684	0.04530
3931.88107	0.04355
3930.59530	0.04242
3929.30953	0.04219
3928.02377	0.04278
3926.73800	0.04385
3925.45223	0.04497
3924.16646	0.04594
3922.88069	0.04679
3921.59492	0.04752
3920.30915	0.04793
3919.02338	0.04770
3917.73762	0.04683
3916.45185	0.04581
3915.16608	0.04529
3913.88031	0.04563
3912.59454	0.04656
3911.30877	0.04750
3910.02300	0.04805
3908.73723	0.04820
3907.45146	0.04820
3906.16570	0.04821
3904.87993	0.04813
3903.59416	0.04777
3902.30839	0.04697
3901.02262	0.04585
3899.73685	0.04477
3898.45108	0.04407
3897.16531	0.04372
3895.87955	0.04345
3894.59378	0.04319
3893.30801	0.04323
3892.02224	0.04383
3890.73647	0.04480
3889.45070	0.04567
3888.16493	0.04613
3886.87916	0.04616
3885.59339	0.04583
3884.30763	0.04521
3883.02186	0.04447
3881.73609	0.04389
3880.45032	0.04365
3879.16455	0.04371
3877.87878	0.04395
3876.59301	0.04429
3875.30724	0.04464
3874.02148	0.04476
3872.73571	0.04457
3871.44994	0.04441
3870.16417	0.04482
3868.87840	0.04581
3867.59263	0.04675
3866.30686	0.04707
3865.02109	0.04687
3863.73532	0.04669
3862.44956	0.04678
3861.16379	0.04695
3859.87802	0.04687
3858.59225	0.04639
3857.30648	0.04555
3856.02071	0.04454
3854.73494	0.04368
3853.44917	0.04323
3852.16341	0.04315
3850.87764	0.04314
3849.59187	0.04306
3848.30610	0.04307
3847.02033	0.04338
3845.73456	0.04395
3844.44879	0.04452
3843.16302	0.04479
3841.87725	0.04458
3840.59149	0.04394
3839.30572	0.04311
3838.01995	0.04249
3836.73418	0.04236
3835.44841	0.04273
3834.16264	0.04336
3832.87687	0.04394
3831.59110	0.04433
3830.30534	0.04463
3829.01957	0.04493
3827.73380	0.04512
3826.44803	0.04497
3825.16226	0.04442
3823.87649	0.04383
3822.59072	0.04364
3821.30495	0.04384
3820.01918	0.04385
3818.73342	0.04319
3817.44765	0.04207
3816.16188	0.04129
3814.87611	0.04134
3813.59034	0.04188
3812.30457	0.04219
3811.01880	0.04197
3809.73303	0.04166
3808.44726	0.04195
3807.16150	0.04303
3805.87573	0.04441
3804.58996	0.04537
3803.30419	0.04565
3802.01842	0.04546
3800.73265	0.04511
3799.44688	0.04470
3798.16111	0.04427
3796.87535	0.04386
3795.58958	0.04356
3794.30381	0.04341
3793.01804	0.04336
3791.73227	0.04339
3790.44650	0.04345
3789.16073	0.04341
3787.87496	0.04312
3786.58919	0.04248
3785.30343	0.04165
3784.01766	0.04101
3782.73189	0.04093
3781.44612	0.04144
3780.16035	0.04217
3778.87458	0.04260
3777.58881	0.04255
3776.30304	0.04224
3775.01728	0.04202
3773.73151	0.04203
3772.44574	0.04219
3771.15997	0.04250
3769.87420	0.04296
3768.58843	0.04343
3767.30266	0.04376
3766.01689	0.04391
3764.73112	0.04388
3763.44536	0.04352
3762.15959	0.04261
3760.87382	0.04115
3759.58805	0.03959
3758.30228	0.03853
3757.01651	0.03830
3755.73074	0.03871
3754.44497	0.03927
3753.15921	0.03977
3751.87344	0.04031
3750.58767	0.04099
3749.30190	0.04165
3748.01613	0.04205
3746.73036	0.04206
3745.44459	0.04173
3744.15882	0.04113
3742.87305	0.04037
3741.58729	0.03959
3740.30152	0.03900
3739.01575	0.03868
3737.72998	0.03862
3736.44421	0.03874
3735.15844	0.03894
3733.87267	0.03912
3732.58690	0.03911
3731.30114	0.03890
3730.01537	0.03870
3728.72960	0.03890
3727.44383	0.03959
3726.15806	0.04054
3724.87229	0.04144
3723.58652	0.04226
3722.30075	0.04305
3721.01498	0.04373
3719.72922	0.04414
3718.44345	0.04418
3717.15768	0.04382
3715.87191	0.04308
3714.58614	0.04204
3713.30037	0.04103
3712.01460	0.04051
3710.72883	0.04071
3709.44307	0.04139
3708.15730	0.04190
3706.87153	0.04174
3705.58576	0.04086
3704.29999	0.03982
3703.01422	0.03929
3701.72845	0.03953
3700.44268	0.04029
3699.15691	0.04116
3697.87115	0.04188
3696.58538	0.04245
3695.29961	0.04298
3694.01384	0.04344
3692.72807	0.04358
3691.44230	0.04325
3690.15653	0.04255
3688.87076	0.04183
3687.58500	0.04156
3686.29923	0.04207
3685.01346	0.04304
3683.72769	0.04382
3682.44192	0.04401
3681.15615	0.04369
3679.87038	0.04320
3678.58461	0.04271
3677.29884	0.04203
3676.01308	0.04107
3674.72731	0.04013
3673.44154	0.03986
3672.15577	0.04057
3670.87000	0.04184
3669.58423	0.04276
3668.29846	0.04274
3667.01269	0.04199
3665.72693	0.04127
3664.44116	0.04112
3663.15539	0.04148
3661.86962	0.04182
3660.58385	0.04172
3659.29808	0.04127
3658.01231	0.04091
3656.72654	0.04100
3655.44077	0.04152
3654.15501	0.04221
3652.86924	0.04277
3651.58347	0.04300
3650.29770	0.04308
3649.01193	0.04338
3647.72616	0.04411
3646.44039	0.04493
3645.15462	0.04529
3643.86886	0.04507
3642.58309	0.04468
3641.29732	0.04451
3640.01155	0.04459
3638.72578	0.04471
3637.44001	0.04487
3636.15424	0.04524
3634.86847	0.04596
3633.58270	0.04696
3632.29694	0.04795
3631.01117	0.04863
3629.72540	0.04889
3628.43963	0.04892
3627.15386	0.04900
3625.86809	0.04918
3624.58232	0.04926
3623.29655	0.04919
3622.01079	0.04916
3620.72502	0.04938
3619.43925	0.04985
3618.15348	0.05039
3616.86771	0.05085
3615.58194	0.05128
3614.29617	0.05182
3613.01040	0.05247
3611.72463	0.05293
3610.43887	0.05288
3609.15310	0.05231
3607.86733	0.05163
3606.58156	0.05131
3605.29579	0.05153
3604.01002	0.05200
3602.72425	0.05227
3601.43848	0.05216
3600.15272	0.05192
3598.86695	0.05192
3597.58118	0.05216
3596.29541	0.05229
3595.00964	0.05206
3593.72387	0.05162
3592.43810	0.05134
3591.15233	0.05145
3589.86656	0.05186
3588.58080	0.05233
3587.29503	0.05279
3586.00926	0.05350
3584.72349	0.05467
3583.43772	0.05602
3582.15195	0.05696
3580.86618	0.05713
3579.58041	0.05667
3578.29464	0.05593
3577.00888	0.05521
3575.72311	0.05459
3574.43734	0.05422
3573.15157	0.05425
3571.86580	0.05465
3570.58003	0.05525
3569.29426	0.05591
3568.00849	0.05662
3566.72273	0.05730
3565.43696	0.05774
3564.15119	0.05784
3562.86542	0.05782
3561.57965	0.05805
3560.29388	0.05865
3559.00811	0.05944
3557.72234	0.06010
3556.43657	0.06044
3555.15081	0.06058
3553.86504	0.06078
3552.57927	0.06125
3551.29350	0.06197
3550.00773	0.06281
3548.72196	0.06357
3547.43619	0.06407
3546.15042	0.06415
3544.86466	0.06379
3543.57889	0.06319
3542.29312	0.06267
3541.00735	0.06238
3539.72158	0.06220
3538.43581	0.06198
3537.15004	0.06173
3535.86427	0.06170
3534.57850	0.06207
3533.29274	0.06272
3532.00697	0.06331
3530.72120	0.06361
3529.43543	0.06368
3528.14966	0.06378
3526.86389	0.06404
3525.57812	0.06443
3524.29235	0.06481
3523.00659	0.06506
3521.72082	0.06511
3520.43505	0.06502
3519.14928	0.06494
3517.86351	0.06506
3516.57774	0.06553
3515.29197	0.06634
3514.00620	0.06724
3512.72043	0.06782
3511.43467	0.06782
3510.14890	0.06738
3508.86313	0.06683
3507.57736	0.06638
3506.29159	0.06607
3505.00582	0.06590
3503.72005	0.06598
3502.43428	0.06632
3501.14852	0.06682
3499.86275	0.06738
3498.57698	0.06794
3497.29121	0.06851
3496.00544	0.06915
3494.71967	0.06997
3493.43390	0.07096
3492.14813	0.07193
3490.86236	0.07254
3489.57660	0.07251
3488.29083	0.07181
3487.00506	0.07075
3485.71929	0.06988
3484.43352	0.06954
3483.14775	0.06965
3481.86198	0.06987
3480.57621	0.07013
3479.29045	0.07061
3478.00468	0.07137
3476.71891	0.07205
3475.43314	0.07229
3474.14737	0.07214
3472.86160	0.07197
3471.57583	0.07203
3470.29006	0.07224
3469.00429	0.07240
3467.71853	0.07246
3466.43276	0.07246
3465.14699	0.07246
3463.86122	0.07245
3462.57545	0.07244
3461.28968	0.07250
3460.00391	0.07271
3458.71814	0.07303
3457.43238	0.07334
3456.14661	0.07347
3454.86084	0.07341
3453.57507	0.07330
3452.28930	0.07338
3451.00353	0.07381
3449.71776	0.07450
3448.43199	0.07520
3447.14622	0.07560
3445.86046	0.07560
3444.57469	0.07533
3443.28892	0.07505
3442.00315	0.07492
3440.71738	0.07497
3439.43161	0.07511
3438.14584	0.07533
3436.86007	0.07567
3435.57431	0.07616
3434.28854	0.07673
3433.00277	0.07722
3431.71700	0.07751
3430.43123	0.07760
3429.14546	0.07759
3427.85969	0.07760
3426.57392	0.07768
3425.28815	0.07782
3424.00239	0.07791
3422.71662	0.07787
3421.43085	0.07771
3420.14508	0.07758
3418.85931	0.07763
3417.57354	0.07786
3416.28777	0.07816
3415.00200	0.07842
3413.71624	0.07858
3412.43047	0.07861
3411.14470	0.07857
3409.85893	0.07856
3408.57316	0.07866
3407.28739	0.07880
3406.00162	0.07880
3404.71585	0.07854
3403.43008	0.07816
3402.14432	0.07800
3400.85855	0.07826
3399.57278	0.07881
3398.28701	0.07923
3397.00124	0.07920
3395.71547	0.07872
3394.42970	0.07813
3393.14393	0.07785
3391.85817	0.07809
3390.57240	0.07865
3389.28663	0.07915
3388.00086	0.07937
3386.71509	0.07939
3385.42932	0.07940
3384.14355	0.07941
3382.85778	0.07936
3381.57201	0.07927
3380.28625	0.07927
3379.00048	0.07941
3377.71471	0.07967
3376.42894	0.08001
3375.14317	0.08042
3373.85740	0.08083
3372.57163	0.08113
3371.28586	0.08129
3370.00010	0.08133
3368.71433	0.08127
3367.42856	0.08109
3366.14279	0.08080
3364.85702	0.08047
3363.57125	0.08029
3362.28548	0.08035
3360.99971	0.08057
3359.71394	0.08071
3358.42818	0.08061
3357.14241	0.08034
3355.85664	0.08016
3354.57087	0.08030
3353.28510	0.08072
3351.99933	0.08114
3350.71356	0.08131
3349.42779	0.08123
3348.14202	0.08109
3346.85626	0.08102
3345.57049	0.08096
3344.28472	0.08078
3342.99895	0.08046
3341.71318	0.08009
3340.42741	0.07975
3339.14164	0.07949
3337.85587	0.07948
3336.57011	0.07978
3335.28434	0.08026
3333.99857	0.08061
3332.71280	0.08058
3331.42703	0.08021
3330.14126	0.07974
3328.85549	0.07939
3327.56972	0.07922
3326.28395	0.07918
3324.99819	0.07912
3323.71242	0.07892
3322.42665	0.07852
3321.14088	0.07807
3319.85511	0.07780
3318.56934	0.07786
3317.28357	0.07812
3315.99780	0.07829
3314.71204	0.07819
3313.42627	0.07792
3312.14050	0.07773
3310.85473	0.07775
3309.56896	0.07791
3308.28319	0.07809
3306.99742	0.07834
3305.71165	0.07874
3304.42588	0.07920
3303.14012	0.07946
3301.85435	0.07933
3300.56858	0.07894
3299.28281	0.07865
3297.99704	0.07867
3296.71127	0.07887
3295.42550	0.07896
3294.13973	0.07883
3292.85397	0.07859
3291.56820	0.07842
3290.28243	0.07839
3288.99666	0.07846
3287.71089	0.07851
3286.42512	0.07840
3285.13935	0.07801
3283.85358	0.07738
3282.56781	0.07672
3281.28205	0.07630
3279.99628	0.07627
3278.71051	0.07662
3277.42474	0.07721
3276.13897	0.07779
3274.85320	0.07814
3273.56743	0.07807
3272.28166	0.07763
3270.99590	0.07704
3269.71013	0.07660
3268.42436	0.07652
3267.13859	0.07683
3265.85282	0.07737
3264.56705	0.07788
3263.28128	0.07813
3261.99551	0.07807
3260.70974	0.07784
3259.42398	0.07765
3258.13821	0.07760
3256.85244	0.07759
3255.56667	0.07743
3254.28090	0.07704
3252.99513	0.07656
3251.70936	0.07624
3250.42359	0.07616
3249.13783	0.07623
3247.85206	0.07630
3246.56629	0.07635
3245.28052	0.07643
3243.99475	0.07652
3242.70898	0.07648
3241.42321	0.07622
3240.13744	0.07588
3238.85167	0.07565
3237.56591	0.07560
3236.28014	0.07552
3234.99437	0.07519
3233.70860	0.07464
3232.42283	0.07415
3231.13706	0.07393
3229.85129	0.07400
3228.56552	0.07421
3227.27976	0.07447
3225.99399	0.07473
3224.70822	0.07490
3223.42245	0.07485
3222.13668	0.07460
3220.85091	0.07435
3219.56514	0.07431
3218.27937	0.07453
3216.99360	0.07485
3215.70784	0.07504
3214.42207	0.07498
3213.13630	0.07472
3211.85053	0.07449
3210.56476	0.07445
3209.27899	0.07459
3207.99322	0.07471
3206.70745	0.07471
3205.42169	0.07461
3204.13592	0.07450
3202.85015	0.07437
3201.56438	0.07414
3200.27861	0.07384
3198.99284	0.07357
3197.70707	0.07335
3196.42130	0.07312
3195.13553	0.07284
3193.84977	0.07265
3192.56400	0.07271
3191.27823	0.07289
3189.99246	0.07293
3188.70669	0.07264
3187.42092	0.07215
3186.13515	0.07169
3184.84938	0.07140
3183.56362	0.07128
3182.27785	0.07132
3180.99208	0.07155
3179.70631	0.07186
3178.42054	0.07206
3177.13477	0.07204
3175.84900	0.07184
3174.56323	0.07162
3173.27746	0.07145
3171.99170	0.07123
3170.70593	0.07084
3169.42016	0.07036
3168.13439	0.07010
3166.84862	0.07021
3165.56285	0.07048
3164.27708	0.07056
3162.99131	0.07036
3161.70555	0.07017
3160.41978	0.07028
3159.13401	0.07070
3157.84824	0.07122
3156.56247	0.07161
3155.27670	0.07171
3153.99093	0.07144
3152.70516	0.07080
3151.41939	0.06992
3150.13363	0.06906
3148.84786	0.06852
3147.56209	0.06843
3146.27632	0.06868
3144.99055	0.06897
3143.70478	0.06919
3142.41901	0.06936
3141.13324	0.06954
3139.84748	0.06964
3138.56171	0.06951
3137.27594	0.06909
3135.99017	0.06841
3134.70440	0.06763
3133.41863	0.06702
3132.13286	0.06684
3130.84709	0.06707
3129.56132	0.06741
3128.27556	0.06749
3126.98979	0.06723
3125.70402	0.06678
3124.41825	0.06640
3123.13248	0.06627
3121.84671	0.06642
3120.56094	0.06675
3119.27517	0.06711
3117.98940	0.06728
3116.70364	0.06716
3115.41787	0.06681
3114.13210	0.06643
3112.84633	0.06618
3111.56056	0.06606
3110.27479	0.06599
3108.98902	0.06593
3107.70325	0.06592
3106.41749	0.06600
3105.13172	0.06613
3103.84595	0.06618
3102.56018	0.06598
3101.27441	0.06547
3099.98864	0.06483
3098.70287	0.06435
3097.41710	0.06420
3096.13133	0.06440
3094.84557	0.06485
3093.55980	0.06536
3092.27403	0.06569
3090.98826	0.06570
3089.70249	0.06548
3088.41672	0.06525
3087.13095	0.06506
3085.84518	0.06480
3084.55942	0.06434
3083.27365	0.06376
3081.98788	0.06328
3080.70211	0.06308
3079.41634	0.06318
3078.13057	0.06340
3076.84480	0.06345
3075.55903	0.06321
3074.27326	0.06279
3072.98750	0.06245
3071.70173	0.06231
3070.41596	0.06235
3069.13019	0.06252
3067.84442	0.06282
3066.55865	0.06317
3065.27288	0.06341
3063.98711	0.06333
3062.70135	0.06290
3061.41558	0.06231
3060.12981	0.06184
3058.84404	0.06160
3057.55827	0.06155
3056.27250	0.06160
3054.98673	0.06170
3053.70096	0.06181
3052.41519	0.06183
3051.12943	0.06169
3049.84366	0.06140
3048.55789	0.06110
3047.27212	0.06093
3045.98635	0.06097
3044.70058	0.06110
3043.41481	0.06110
3042.12904	0.06083
3040.84328	0.06034
3039.55751	0.05985
3038.27174	0.05958
3036.98597	0.05959
3035.70020	0.05981
3034.41443	0.06004
3033.12866	0.06012
3031.84289	0.05994
3030.55712	0.05957
3029.27136	0.05923
3027.98559	0.05912
3026.69982	0.05923
3025.41405	0.05931
3024.12828	0.05916
3022.84251	0.05879
3021.55674	0.05844
3020.27097	0.05828
3018.98521	0.05828
3017.69944	0.05831
3016.41367	0.05832
3015.12790	0.05837
3013.84213	0.05851
3012.55636	0.05860
3011.27059	0.05852
3009.98482	0.05825
3008.69905	0.05790
3007.41329	0.05763
3006.12752	0.05753
3004.84175	0.05758
3003.55598	0.05770
3002.27021	0.05770
3000.98444	0.05751
2999.69867	0.05723
2998.41290	0.05702
2997.12714	0.05697
2995.84137	0.05703
2994.55560	0.05710
2993.26983	0.05720
2991.98406	0.05738
2990.69829	0.05763
2989.41252	0.05788
2988.12675	0.05807
2986.84098	0.05821
2985.55522	0.05832
2984.26945	0.05843
2982.98368	0.05857
2981.69791	0.05878
2980.41214	0.05912
2979.12637	0.05965
2977.84060	0.06036
2976.55483	0.06117
2975.26907	0.06205
2973.98330	0.06299
2972.69753	0.06390
2971.41176	0.06459
2970.12599	0.06506
2968.84022	0.06558
2967.55445	0.06643
2966.26868	0.06768
2964.98291	0.06909
2963.69715	0.07036
2962.41138	0.07135
2961.12561	0.07214
2959.83984	0.07283
2958.55407	0.07348
2957.26830	0.07402
2955.98253	0.07433
2954.69676	0.07437
2953.41100	0.07426
2952.12523	0.07415
2950.83946	0.07415
2949.55369	0.07423
2948.26792	0.07434
2946.98215	0.07443
2945.69638	0.07452
2944.41061	0.07466
2943.12484	0.07481
2941.83908	0.07487
2940.55331	0.07475
2939.26754	0.07451
2937.98177	0.07444
2936.69600	0.07484
2935.41023	0.07576
2934.12446	0.07697
2932.83869	0.07817
2931.55293	0.07916
2930.26716	0.07981
2928.98139	0.08014
2927.69562	0.08030
2926.40985	0.08054
2925.12408	0.08097
2923.83831	0.08147
2922.55254	0.08173
2921.26677	0.08151
2919.98101	0.08080
2918.69524	0.07975
2917.40947	0.07863
2916.12370	0.07767
2914.83793	0.07696
2913.55216	0.07635
2912.26639	0.07558
2910.98062	0.07456
2909.69486	0.07341
2908.40909	0.07233
2907.12332	0.07142
2905.83755	0.07064
2904.55178	0.07002
2903.26601	0.06958
2901.98024	0.06926
2900.69447	0.06890
2899.40870	0.06841
2898.12294	0.06783
2896.83717	0.06727
2895.55140	0.06677
2894.26563	0.06624
2892.97986	0.06557
2891.69409	0.06482
2890.40832	0.06418
2889.12255	0.06383
2887.83678	0.06374
2886.55102	0.06372
2885.26525	0.06358
2883.97948	0.06333
2882.69371	0.06312
2881.40794	0.06317
2880.12217	0.06346
2878.83640	0.06380
2877.55063	0.06397
2876.26487	0.06398
2874.97910	0.06396
2873.69333	0.06405
2872.40756	0.06423
2871.12179	0.06443
2869.83602	0.06464
2868.55025	0.06484
2867.26448	0.06500
2865.97871	0.06502
2864.69295	0.06491
2863.40718	0.06477
2862.12141	0.06479
2860.83564	0.06494
2859.54987	0.06508
2858.26410	0.06510
2856.97833	0.06505
2855.69256	0.06489
2854.40680	0.06448
2853.12103	0.06377
2851.83526	0.06295
2850.54949	0.06225
2849.26372	0.06172
2847.97795	0.06117
2846.69218	0.06043
2845.40641	0.05952
2844.12064	0.05860
2842.83488	0.05789
2841.54911	0.05735
2840.26334	0.05677
2838.97757	0.05596
2837.69180	0.05497
2836.40603	0.05406
2835.12026	0.05337
2833.83449	0.05288
2832.54873	0.05242
2831.26296	0.05187
2829.97719	0.05120
2828.69142	0.05053
2827.40565	0.05001
2826.11988	0.04971
2824.83411	0.04946
2823.54834	0.04911
2822.26257	0.04865
2820.97681	0.04826
2819.69104	0.04810
2818.40527	0.04812
2817.11950	0.04811
2815.83373	0.04793
2814.54796	0.04763
2813.26219	0.04740
2811.97642	0.04737
2810.69066	0.04751
2809.40489	0.04766
2808.11912	0.04767
2806.83335	0.04749
2805.54758	0.04722
2804.26181	0.04705
2802.97604	0.04705
2801.69027	0.04713
2800.40450	0.04712
2799.11874	0.04693
2797.83297	0.04658
2796.54720	0.04619
2795.26143	0.04582
2793.97566	0.04551
2792.68989	0.04527
2791.40412	0.04518
2790.11835	0.04524
2788.83259	0.04536
2787.54682	0.04541
2786.26105	0.04532
2784.97528	0.04517
2783.68951	0.04507
2782.40374	0.04504
2781.11797	0.04500
2779.83220	0.04489
2778.54643	0.04474
2777.26067	0.04459
2775.97490	0.04444
2774.68913	0.04426
2773.40336	0.04411
2772.11759	0.04403
2770.83182	0.04394
2769.54605	0.04376
2768.26028	0.04347
2766.97452	0.04321
2765.68875	0.04312
2764.40298	0.04317
2763.11721	0.04331
2761.83144	0.04345
2760.54567	0.04354
2759.25990	0.04355
2757.97413	0.04345
2756.68836	0.04329
2755.40260	0.04312
2754.11683	0.04301
2752.83106	0.04298
2751.54529	0.04303
2750.25952	0.04312
2748.97375	0.04315
2747.68798	0.04309
2746.40221	0.04300
2745.11645	0.04294
2743.83068	0.04288
2742.54491	0.04279
2741.25914	0.04270
2739.97337	0.04267
2738.68760	0.04272
2737.40183	0.04282
2736.11606	0.04289
2734.83029	0.04283
2733.54453	0.04261
2732.25876	0.04230
2730.97299	0.04204
2729.68722	0.04191
2728.40145	0.04196
2727.11568	0.04210
2725.82991	0.04215
2724.54414	0.04196
2723.25838	0.04153
2721.97261	0.04103
2720.68684	0.04064
2719.40107	0.04045
2718.11530	0.04046
2716.82953	0.04060
2715.54376	0.04074
2714.25799	0.04076
2712.97222	0.04068
2711.68646	0.04057
2710.40069	0.04049
2709.11492	0.04040
2707.82915	0.04024
2706.54338	0.04004
2705.25761	0.03988
2703.97184	0.03979
2702.68607	0.03973
2701.40031	0.03967
2700.11454	0.03964
2698.82877	0.03967
2697.54300	0.03969
2696.25723	0.03969
2694.97146	0.03970
2693.68569	0.03977
2692.39992	0.03982
2691.11415	0.03975
2689.82839	0.03951
2688.54262	0.03922
2687.25685	0.03906
2685.97108	0.03915
2684.68531	0.03942
2683.39954	0.03966
2682.11377	0.03971
2680.82800	0.03962
2679.54224	0.03957
2678.25647	0.03966
2676.97070	0.03980
2675.68493	0.03985
2674.39916	0.03970
2673.11339	0.03933
2671.82762	0.03885
2670.54185	0.03843
2669.25608	0.03819
2667.97032	0.03815
2666.68455	0.03823
2665.39878	0.03831
2664.11301	0.03832
2662.82724	0.03824
2661.54147	0.03809
2660.25570	0.03795
2658.96993	0.03789
2657.68417	0.03790
2656.39840	0.03790
2655.11263	0.03786
2653.82686	0.03779
2652.54109	0.03765
2651.25532	0.03737
2649.96955	0.03701
2648.68378	0.03673
2647.39801	0.03665
2646.11225	0.03665
2644.82648	0.03659
2643.54071	0.03647
2642.25494	0.03642
2640.96917	0.03646
2639.68340	0.03648
2638.39763	0.03646
2637.11186	0.03641
2635.82609	0.03635
2634.54033	0.03630
2633.25456	0.03630
2631.96879	0.03632
2630.68302	0.03620
2629.39725	0.03585
2628.11148	0.03543
2626.82571	0.03523
2625.53994	0.03530
2624.25418	0.03544
2622.96841	0.03543
2621.68264	0.03526
2620.39687	0.03499
2619.11110	0.03457
2617.82533	0.03404
2616.53956	0.03362
2615.25379	0.03355
2613.96802	0.03379
2612.68226	0.03400
2611.39649	0.03393
2610.11072	0.03369
2608.82495	0.03361
2607.53918	0.03381
2606.25341	0.03407
2604.96764	0.03409
2603.68187	0.03380
2602.39611	0.03344
2601.11034	0.03326
2599.82457	0.03321
2598.53880	0.03304
2597.25303	0.03258
2595.96726	0.03194
2594.68149	0.03149
2593.39572	0.03153
2592.10995	0.03195
2590.82419	0.03235
2589.53842	0.03239
2588.25265	0.03208
2586.96688	0.03170
2585.68111	0.03151
2584.39534	0.03153
2583.10957	0.03162
2581.82380	0.03165
2580.53804	0.03155
2579.25227	0.03137
2577.96650	0.03122
2576.68073	0.03129
2575.39496	0.03163
2574.10919	0.03201
2572.82342	0.03212
2571.53765	0.03188
2570.25188	0.03148
2568.96612	0.03113
2567.68035	0.03087
2566.39458	0.03067
2565.10881	0.03060
2563.82304	0.03073
2562.53727	0.03099
2561.25150	0.03119
2559.96573	0.03124
2558.67997	0.03117
2557.39420	0.03103
2556.10843	0.03085
2554.82266	0.03063
2553.53689	0.03043
2552.25112	0.03028
2550.96535	0.03023
2549.67958	0.03018
2548.39381	0.03000
2547.10805	0.02968
2545.82228	0.02938
2544.53651	0.02922
2543.25074	0.02919
2541.96497	0.02918
2540.67920	0.02919
2539.39343	0.02930
2538.10766	0.02954
2536.82190	0.02975
2535.53613	0.02977
2534.25036	0.02973
2532.96459	0.02986
2531.67882	0.03017
2530.39305	0.03040
2529.10728	0.03033
2527.82151	0.03003
2526.53574	0.02962
2525.24998	0.02917
2523.96421	0.02876
2522.67844	0.02850
2521.39267	0.02844
2520.10690	0.02844
2518.82113	0.02845
2517.53536	0.02855
2516.24959	0.02883
2514.96383	0.02919
2513.67806	0.02946
2512.39229	0.02951
2511.10652	0.02931
2509.82075	0.02888
2508.53498	0.02834
2507.24921	0.02791
2505.96344	0.02781
2504.67767	0.02810
2503.39191	0.02862
2502.10614	0.02902
2500.82037	0.02905
2499.53460	0.02872
2498.24883	0.02834
2496.96306	0.02818
2495.67729	0.02825
2494.39152	0.02833
2493.10576	0.02830
2491.81999	0.02824
2490.53422	0.02825
2489.24845	0.02837
2487.96268	0.02857
2486.67691	0.02884
2485.39114	0.02912
2484.10537	0.02924
2482.81960	0.02906
2481.53384	0.02864
2480.24807	0.02822
2478.96230	0.02795
2477.67653	0.02783
2476.39076	0.02771
2475.10499	0.02753
2473.81922	0.02736
2472.53345	0.02733
2471.24769	0.02751
2469.96192	0.02777
2468.67615	0.02785
2467.39038	0.02760
2466.10461	0.02714
2464.81884	0.02673
2463.53307	0.02656
2462.24730	0.02661
2460.96153	0.02676
2459.67577	0.02699
2458.39000	0.02737
2457.10423	0.02784
2455.81846	0.02816
2454.53269	0.02812
2453.24692	0.02781
2451.96115	0.02747
2450.67538	0.02726
2449.38962	0.02716
2448.10385	0.02709
2446.81808	0.02703
2445.53231	0.02701
2444.24654	0.02702
2442.96077	0.02709
2441.67500	0.02717
2440.38923	0.02718
2439.10346	0.02705
2437.81770	0.02681
2436.53193	0.02654
2435.24616	0.02627
2433.96039	0.02601
2432.67462	0.02583
2431.38885	0.02585
2430.10308	0.02605
2428.81731	0.02627
2427.53155	0.02634
2426.24578	0.02628
2424.96001	0.02621
2423.67424	0.02618
2422.38847	0.02614
2421.10270	0.02603
2419.81693	0.02586
2418.53116	0.02572
2417.24539	0.02569
2415.95963	0.02572
2414.67386	0.02569
2413.38809	0.02552
2412.10232	0.02535
2410.81655	0.02538
2409.53078	0.02569
2408.24501	0.02614
2406.95924	0.02645
2405.67347	0.02642
2404.38771	0.02605
2403.10194	0.02554
2401.81617	0.02516
2400.53040	0.02507
2399.24463	0.02520
2397.95886	0.02549
2396.67309	0.02575
2395.38732	0.02586
2394.10156	0.02584
2392.81579	0.02578
2391.53002	0.02573
2390.24425	0.02569
2388.95848	0.02561
2387.67271	0.02552
2386.38694	0.02548
2385.10117	0.02559
2383.81540	0.02591
2382.52964	0.02636
2381.24387	0.02683
2379.95810	0.02720
2378.67233	0.02743
2377.38656	0.02759
2376.10079	0.02779
2374.81502	0.02811
2373.52925	0.02840
2372.24349	0.02852
2370.95772	0.02838
2369.67195	0.02823
2368.38618	0.02826
2367.10041	0.02853
2365.81464	0.02892
2364.52887	0.02943
2363.24310	0.02985
2361.95733	0.03008
2360.67157	0.03013
2359.38580	0.03028
2358.10003	0.03048
2356.81426	0.03060
2355.52849	0.03054
2354.24272	0.03029
2352.95695	0.03001
2351.67118	0.02971
2350.38542	0.02940
2349.09965	0.02923
2347.81388	0.02928
2346.52811	0.02920
2345.24234	0.02899
2343.95657	0.02898
2342.67080	0.02936
2341.38503	0.02967
2340.09926	0.02965
2338.81350	0.02973
2337.52773	0.02995
2336.24196	0.02973
2334.95619	0.02928
2333.67042	0.02940
2332.38465	0.03003
2331.09888	0.03010
2329.81311	0.03009
2328.52735	0.03074
2327.24158	0.03085
2325.95581	0.03062
2324.67004	0.03083
2323.38427	0.03043
2322.09850	0.02938
2320.81273	0.02890
2319.52696	0.02838
2318.24119	0.02787
2316.95543	0.02778
2315.66966	0.02739
2314.38389	0.02690
2313.09812	0.02672
2311.81235	0.02646
2310.52658	0.02633
2309.24081	0.02616
2307.95504	0.02590
2306.66928	0.02587
2305.38351	0.02586
2304.09774	0.02581
2302.81197	0.02567
2301.52620	0.02540
2300.24043	0.02527
2298.95466	0.02525
2297.66889	0.02534
2296.38312	0.02545
2295.09736	0.02555
2293.81159	0.02568
2292.52582	0.02572
2291.24005	0.02551
2289.95428	0.02501
2288.66851	0.02431
2287.38274	0.02356
2286.09697	0.02289
2284.81121	0.02250
2283.52544	0.02254
2282.23967	0.02290
2280.95390	0.02321
2279.66813	0.02312
2278.38236	0.02268
2277.09659	0.02221
2275.81082	0.02203
2274.52505	0.02223
2273.23929	0.02267
2271.95352	0.02307
2270.66775	0.02314
2269.38198	0.02277
2268.09621	0.02199
2266.81044	0.02097
2265.52467	0.01996
2264.23890	0.01924
2262.95314	0.01898
2261.66737	0.01910
2260.38160	0.01940
2259.09583	0.01970
2257.81006	0.01999
2256.52429	0.02034
2255.23852	0.02069
2253.95275	0.02091
2252.66698	0.02096
2251.38122	0.02087
2250.09545	0.02047
2248.80968	0.01968
2247.52391	0.01922
2246.23814	0.01895
2244.95237	0.01894
2243.66660	0.01902
2242.38083	0.01899
2241.09507	0.01880
2239.80930	0.01842
2238.52353	0.01788
2237.23776	0.01729
2235.95199	0.01679
2234.66622	0.01652
2233.38045	0.01655
2232.09468	0.01695
2230.80891	0.01771
2229.52315	0.01860
2228.23738	0.01924
2226.95161	0.01938
2225.66584	0.01911
2224.38007	0.01866
2223.09430	0.01821
2221.80853	0.01780
2220.52276	0.01754
2219.23700	0.01744
2217.95123	0.01725
2216.66546	0.01669
2215.37969	0.01590
2214.09392	0.01539
2212.80815	0.01547
2211.52238	0.01582
2210.23661	0.01587
2208.95084	0.01533
2207.66508	0.01451
2206.37931	0.01392
2205.09354	0.01379
2203.80777	0.01390
2202.52200	0.01399
2201.23623	0.01408
2199.95046	0.01436
2198.66469	0.01480
2197.37893	0.01515
2196.09316	0.01513
2194.80739	0.01470
2193.52162	0.01411
2192.23585	0.01369
2190.95008	0.01352
2189.66431	0.01336
2188.37854	0.01297
2187.09277	0.01248
2185.80701	0.01226
2184.52124	0.01243
2183.23547	0.01268
2181.94970	0.01278
2180.66393	0.01288
2179.37816	0.01328
2178.09239	0.01390
2176.80662	0.01419
2175.52085	0.01359
2174.23509	0.01211
2172.94932	0.01033
2171.66355	0.00899
2170.37778	0.00855
2169.09201	0.00903
2167.80624	0.01011
2166.52047	0.01141
2165.23470	0.01255
2163.94894	0.01312
2162.66317	0.01267
2161.37740	0.01117
2160.09163	0.00926
2158.80586	0.00778
2157.52009	0.00698
2156.23432	0.00652
2154.94855	0.00617
2153.66278	0.00621
2152.37702	0.00692
2151.09125	0.00792
2149.80548	0.00836
2148.51971	0.00783
2147.23394	0.00678
2145.94817	0.00605
2144.66240	0.00607
2143.37663	0.00680
2142.09087	0.00799
2140.80510	0.00940
2139.51933	0.01073
2138.23356	0.01167
2136.94779	0.01204
2135.66202	0.01178
2134.37625	0.01111
2133.09048	0.01050
2131.80471	0.01042
2130.51895	0.01090
2129.23318	0.01152
2127.94741	0.01194
2126.66164	0.01221
2125.37587	0.01251
2124.09010	0.01288
2122.80433	0.01325
2121.51856	0.01361
2120.23280	0.01391
2118.94703	0.01403
2117.66126	0.01388
2116.37549	0.01363
2115.08972	0.01352
2113.80395	0.01364
2112.51818	0.01392
2111.23241	0.01416
2109.94664	0.01418
2108.66088	0.01398
2107.37511	0.01377
2106.08934	0.01375
2104.80357	0.01378
2103.51780	0.01351
2102.23203	0.01284
2100.94626	0.01196
2099.66049	0.00983
2098.37473	0.00874
2097.08896	0.00872
2095.80319	0.00924
2094.51742	0.01024
2093.23165	0.01164
2091.94588	0.01312
2090.66011	0.01417
2089.37434	0.01448
2088.08857	0.01410
2086.80281	0.01341
2085.51704	0.01275
2084.23127	0.01229
2082.94550	0.01202
2081.65973	0.01189
2080.37396	0.01172
2079.08819	0.01132
2077.80242	0.01068
2076.51666	0.01009
2075.23089	0.00990
2073.94512	0.01018
2072.65935	0.01067
2071.37358	0.01102
2070.08781	0.01103
2068.80204	0.01067
2067.51627	0.01001
2066.23050	0.00927
2064.94474	0.00868
2063.65897	0.00836
2062.37320	0.00829
2061.08743	0.00849
2059.80166	0.00904
2058.51589	0.00988
2057.23012	0.01055
2055.94435	0.01055
2054.65859	0.00988
2053.37282	0.00901
2052.08705	0.00835
2050.80128	0.00784
2049.51551	0.00710
2048.22974	0.00588
2046.94397	0.00433
2045.65820	0.00298
2044.37243	0.00225
2043.08667	0.00208
2041.80090	0.00214
2040.51513	0.00215
2039.22936	0.00203
2037.94359	0.00168
2036.65782	0.00104
2035.37205	0.00025
2034.08628	-0.00037
2032.80052	-0.00056
2031.51475	-0.00030
2030.22898	0.00036
2028.94321	0.00137
2027.65744	0.00254
2026.37167	0.00351
2025.08590	0.00384
2023.80013	0.00328
2022.51436	0.00205
2021.22860	0.00087
2019.94283	0.00050
2018.65706	0.00112
2017.37129	0.00215
2016.08552	0.00288
2014.79975	0.00295
2013.51398	0.00244
2012.22821	0.00158
2010.94245	0.00056
2009.65668	-0.00033
2008.37091	-0.00061
2007.08514	0.00020
2005.79937	0.00205
2004.51360	0.00423
2003.22783	0.00583
2001.94206	0.00645
2000.65629	0.00635
1999.37053	0.00612
1998.08476	0.00627
1996.79899	0.00698
1995.51322	0.00812
1994.22745	0.00932
1992.94168	0.01016
1991.65591	0.01039
1990.37014	0.01001
1989.08438	0.00922
1987.79861	0.00837
1986.51284	0.00775
1985.22707	0.00758
1983.94130	0.00778
1982.65553	0.00805
1981.36976	0.00797
1980.08399	0.00733
1978.79822	0.00627
1977.51246	0.00511
1976.22669	0.00433
1974.94092	0.00444
1973.65515	0.00567
1972.36938	0.00749
1971.08361	0.00889
1969.79784	0.00912
1968.51207	0.00825
1967.22631	0.00695
1965.94054	0.00592
1964.65477	0.00554
1963.36900	0.00589
1962.08323	0.00670
1960.79746	0.00758
1959.51169	0.00838
1958.22592	0.00926
1956.94015	0.01031
1955.65439	0.01127
1954.36862	0.01188
1953.08285	0.01226
1951.79708	0.01270
1950.51131	0.01323
1949.22554	0.01354
1947.93977	0.01352
1946.65400	0.01334
1945.36823	0.01315
1944.08247	0.01285
1942.79670	0.01235
1941.51093	0.01174
1940.22516	0.01121
1938.93939	0.01080
1937.65362	0.01045
1936.36785	0.01019
1935.08208	0.01020
1933.79632	0.01064
1932.51055	0.01134
1931.22478	0.01179
1929.93901	0.01159
1928.65324	0.01090
1927.36747	0.01026
1926.08170	0.01021
1924.79593	0.01085
1923.51016	0.01185
1922.22440	0.01273
1920.93863	0.01312
1919.65286	0.01293
1918.36709	0.01236
1917.08132	0.01177
1915.79555	0.01149
1914.50978	0.01169
1913.22401	0.01224
1911.93825	0.01285
1910.65248	0.01320
1909.36671	0.01321
1908.08094	0.01300
1906.79517	0.01277
1905.50940	0.01266
1904.22363	0.01265
1902.93786	0.01262
1901.65209	0.01253
1900.36633	0.01247
1899.08056	0.01249
1897.79479	0.01255
1896.50902	0.01250
1895.22325	0.01237
1893.93748	0.01230
1892.65171	0.01241
1891.36594	0.01268
1890.08018	0.01302
1888.79441	0.01335
1887.50864	0.01360
1886.22287	0.01374
1884.93710	0.01380
1883.65133	0.01387
1882.36556	0.01400
1881.07979	0.01411
1879.79402	0.01408
1878.50826	0.01386
1877.22249	0.01355
1875.93672	0.01333
1874.65095	0.01329
1873.36518	0.01334
1872.07941	0.01333
1870.79364	0.01324
1869.50787	0.01319
1868.22211	0.01328
1866.93634	0.01347
1865.65057	0.01366
1864.36480	0.01382
1863.07903	0.01399
1861.79326	0.01415
1860.50749	0.01423
1859.22172	0.01421
1857.93595	0.01418
1856.65019	0.01426
1855.36442	0.01439
1854.07865	0.01443
1852.79288	0.01432
1851.50711	0.01417
1850.22134	0.01409
1848.93557	0.01408
1847.64980	0.01403
1846.36404	0.01394
1845.07827	0.01384
1843.79250	0.01380
1842.50673	0.01381
1841.22096	0.01382
1839.93519	0.01385
1838.64942	0.01394
1837.36365	0.01412
1836.07788	0.01438
1834.79212	0.01464
1833.50635	0.01480
1832.22058	0.01484
1830.93481	0.01476
1829.64904	0.01457
1828.36327	0.01427
1827.07750	0.01392
1825.79173	0.01359
1824.50597	0.01336
1823.22020	0.01320
1821.93443	0.01308
1820.64866	0.01299
1819.36289	0.01302
1818.07712	0.01327
1816.79135	0.01373
1815.50558	0.01431
1814.21981	0.01486
1812.93405	0.01525
1811.64828	0.01545
1810.36251	0.01549
1809.07674	0.01546
1807.79097	0.01546
1806.50520	0.01552
1805.21943	0.01564
1803.93366	0.01572
1802.64790	0.01574
1801.36213	0.01570
1800.07636	0.01567
1798.79059	0.01568
1797.50482	0.01572
1796.21905	0.01570
1794.93328	0.01560
1793.64751	0.01545
1792.36174	0.01530
1791.07598	0.01518
1789.79021	0.01509
1788.50444	0.01505
1787.21867	0.01507
1785.93290	0.01514
1784.64713	0.01526
1783.36136	0.01541
1782.07559	0.01555
1780.78983	0.01570
1779.50406	0.01586
1778.21829	0.01604
1776.93252	0.01621
1775.64675	0.01635
1774.36098	0.01649
1773.07521	0.01665
1771.78944	0.01684
1770.50367	0.01704
1769.21791	0.01722
1767.93214	0.01735
1766.64637	0.01745
1765.36060	0.01752
1764.07483	0.01755
1762.78906	0.01756
1761.50329	0.01758
1760.21752	0.01767
1758.93176	0.01778
1757.64599	0.01789
1756.36022	0.01797
1755.07445	0.01804
1753.78868	0.01810
1752.50291	0.01817
1751.21714	0.01826
1749.93137	0.01837
1748.64560	0.01849
1747.35984	0.01865
1746.07407	0.01883
1744.78830	0.01900
1743.50253	0.01912
1742.21676	0.01920
1740.93099	0.01927
1739.64522	0.01940
1738.35945	0.01954
1737.07369	0.01965
1735.78792	0.01975
1734.50215	0.01996
1733.21638	0.02033
1731.93061	0.02082
1730.64484	0.02128
1729.35907	0.02163
1728.07330	0.02186
1726.78753	0.02203
1725.50177	0.02224
1724.21600	0.02251
1722.93023	0.02277
1721.64446	0.02295
1720.35869	0.02304
1719.07292	0.02312
1717.78715	0.02332
1716.50138	0.02371
1715.21561	0.02428
1713.92985	0.02494
1712.64408	0.02557
1711.35831	0.02611
1710.07254	0.02653
1708.78677	0.02689
1707.50100	0.02725
1706.21523	0.02765
1704.92946	0.02802
1703.64370	0.02829
1702.35793	0.02846
1701.07216	0.02859
1699.78639	0.02880
1698.50062	0.02912
1697.21485	0.02952
1695.92908	0.02999
1694.64331	0.03048
1693.35754	0.03094
1692.07178	0.03132
1690.78601	0.03161
1689.50024	0.03185
1688.21447	0.03206
1686.92870	0.03225
1685.64293	0.03246
1684.35716	0.03275
1683.07139	0.03315
1681.78563	0.03361
1680.49986	0.03404
1679.21409	0.03439
1677.92832	0.03465
1676.64255	0.03491
1675.35678	0.03522
1674.07101	0.03559
1672.78524	0.03596
1671.49947	0.03629
1670.21371	0.03659
1668.92794	0.03693
1667.64217	0.03731
1666.35640	0.03769
1665.07063	0.03806
1663.78486	0.03845
1662.49909	0.03887
1661.21332	0.03930
1659.92756	0.03968
1658.64179	0.03998
1657.35602	0.04013
1656.07025	0.04011
1654.78448	0.04001
1653.49871	0.04002
1652.21294	0.04031
1650.92717	0.04083
1649.64140	0.04139
1648.35564	0.04183
1647.06987	0.04215
1645.78410	0.04245
1644.49833	0.04277
1643.21256	0.04313
1641.92679	0.04349
1640.64102	0.04381
1639.35525	0.04408
1638.06949	0.04432
1636.78372	0.04457
1635.49795	0.04489
1634.21218	0.04534
1632.92641	0.04586
1631.64064	0.04639
1630.35487	0.04689
1629.06910	0.04737
1627.78333	0.04788
1626.49757	0.04841
1625.21180	0.04894
1623.92603	0.04946
1622.64026	0.04999
1621.35449	0.05052
1620.06872	0.05102
1618.78295	0.05152
1617.49718	0.05208
1616.21142	0.05277
1614.92565	0.05359
1613.63988	0.05445
1612.35411	0.05527
1611.06834	0.05601
1609.78257	0.05665
1608.49680	0.05720
1607.21103	0.05768
1605.92526	0.05815
1604.63950	0.05865
1603.35373	0.05921
1602.06796	0.05981
1600.78219	0.06040
1599.49642	0.06092
1598.21065	0.06137
1596.92488	0.06176
1595.63911	0.06210
1594.35335	0.06234
1593.06758	0.06252
1591.78181	0.06266
1590.49604	0.06281
1589.21027	0.06296
1587.92450	0.06308
1586.63873	0.06318
1585.35296	0.06326
1584.06719	0.06331
1582.78143	0.06335
1581.49566	0.06335
1580.20989	0.06331
1578.92412	0.06323
1577.63835	0.06314
1576.35258	0.06308
1575.06681	0.06306
1573.78104	0.06304
1572.49528	0.06298
1571.20951	0.06286
1569.92374	0.06275
1568.63797	0.06270
1567.35220	0.06269
1566.06643	0.06266
1564.78066	0.06254
1563.49489	0.06230
1562.20912	0.06195
1560.92336	0.06157
1559.63759	0.06127
1558.35182	0.06112
1557.06605	0.06112
1555.78028	0.06117
1554.49451	0.06118
1553.20874	0.06108
1551.92297	0.06085
1550.63721	0.06053
1549.35144	0.06015
1548.06567	0.05974
1546.77990	0.05928
1545.49413	0.05873
1544.20836	0.05804
1542.92259	0.05726
1541.63682	0.05647
1540.35105	0.05578
1539.06529	0.05526
1537.77952	0.05486
1536.49375	0.05450
1535.20798	0.05413
1533.92221	0.05379
1532.63644	0.05356
1531.35067	0.05348
1530.06490	0.05352
1528.77914	0.05363
1527.49337	0.05379
1526.20760	0.05401
1524.92183	0.05430
1523.63606	0.05466
1522.35029	0.05512
1521.06452	0.05570
1519.77875	0.05643
1518.49298	0.05733
1517.20722	0.05836
1515.92145	0.05949
1514.63568	0.06067
1513.34991	0.06191
1512.06414	0.06320
1510.77837	0.06451
1509.49260	0.06579
1508.20683	0.06702
1506.92107	0.06827
1505.63530	0.06956
1504.34953	0.07088
1503.06376	0.07214
1501.77799	0.07329
1500.49222	0.07427
1499.20645	0.07513
1497.92068	0.07590
1496.63491	0.07667
1495.34915	0.07748
1494.06338	0.07831
1492.77761	0.07915
1491.49184	0.07997
1490.20607	0.08080
1488.92030	0.08169
1487.63453	0.08273
1486.34876	0.08395
1485.06299	0.08531
1483.77723	0.08673
1482.49146	0.08813
1481.20569	0.08949
1479.91992	0.09084
1478.63415	0.09217
1477.34838	0.09347
1476.06261	0.09469
1474.77684	0.09582
1473.49108	0.09690
1472.20531	0.09794
1470.91954	0.09891
1469.63377	0.09976
1468.34800	0.10043
1467.06223	0.10095
1465.77646	0.10141
1464.49069	0.10186
1463.20492	0.10237
1461.91916	0.10289
1460.63339	0.10340
1459.34762	0.10385
1458.06185	0.10431
1456.77608	0.10483
1455.49031	0.10545
1454.20454	0.10610
1452.91877	0.10672
1451.63301	0.10725
1450.34724	0.10767
1449.06147	0.10799
1447.77570	0.10819
1446.48993	0.10827
1445.20416	0.10818
1443.91839	0.10789
1442.63262	0.10742
1441.34685	0.10687
1440.06109	0.10631
1438.77532	0.10584
1437.48955	0.10552
1436.20378	0.10542
1434.91801	0.10560
1433.63224	0.10609
1432.34647	0.10686
1431.06070	0.10791
1429.77494	0.10921
1428.48917	0.11073
1427.20340	0.11242
1425.91763	0.11419
1424.63186	0.11595
1423.34609	0.11759
1422.06032	0.11905
1420.77455	0.12036
1419.48878	0.12155
1418.20302	0.12263
1416.91725	0.12354
1415.63148	0.12419
1414.34571	0.12454
1413.05994	0.12460
1411.77417	0.12440
1410.48840	0.12395
1409.20263	0.12324
1407.91687	0.12224
1406.63110	0.12098
1405.34533	0.11950
1404.05956	0.11781
1402.77379	0.11595
1401.48802	0.11389
1400.20225	0.11164
1398.91648	0.10923
1397.63071	0.10676
1396.34495	0.10431
1395.05918	0.10190
1393.77341	0.09953
1392.48764	0.09719
1391.20187	0.09489
1389.91610	0.09270
1388.63033	0.09065
1387.34456	0.08874
1386.05880	0.08688
1384.77303	0.08502
1383.48726	0.08315
1382.20149	0.08128
1380.91572	0.07940
1379.62995	0.07750
1378.34418	0.07558
1377.05841	0.07359
1375.77264	0.07153
1374.48688	0.06936
1373.20111	0.06711
1371.91534	0.06487
1370.62957	0.06274
1369.34380	0.06080
1368.05803	0.05904
1366.77226	0.05745
1365.48649	0.05597
1364.20073	0.05457
1362.91496	0.05323
1361.62919	0.05194
1360.34342	0.05075
1359.05765	0.04967
1357.77188	0.04872
1356.48611	0.04785
1355.20034	0.04698
1353.91457	0.04611
1352.62881	0.04524
1351.34304	0.04439
1350.05727	0.04358
1348.77150	0.04279
1347.48573	0.04202
1346.19996	0.04125
1344.91419	0.04047
1343.62842	0.03972
1342.34266	0.03903
1341.05689	0.03842
1339.77112	0.03786
1338.48535	0.03732
1337.19958	0.03678
1335.91381	0.03625
1334.62804	0.03573
1333.34227	0.03523
1332.05650	0.03475
1330.77074	0.03432
1329.48497	0.03392
1328.19920	0.03352
1326.91343	0.03315
1325.62766	0.03280
1324.34189	0.03249
1323.05612	0.03223
1321.77035	0.03198
1320.48459	0.03174
1319.19882	0.03150
1317.91305	0.03125
1316.62728	0.03098
1315.34151	0.03071
1314.05574	0.03045
1312.76997	0.03019
1311.48420	0.02991
1310.19843	0.02962
1308.91267	0.02931
1307.62690	0.02904
1306.34113	0.02884
1305.05536	0.02871
1303.76959	0.02861
1302.48382	0.02847
1301.19805	0.02831
1299.91228	0.02816
1298.62652	0.02801
1297.34075	0.02785
1296.05498	0.02764
1294.76921	0.02741
1293.48344	0.02725
1292.19767	0.02715
1290.91190	0.02708
1289.62613	0.02699
1288.34036	0.02686
1287.05460	0.02670
1285.76883	0.02651
1284.48306	0.02634
1283.19729	0.02621
1281.91152	0.02616
1280.62575	0.02617
1279.33998	0.02618
1278.05421	0.02611
1276.76845	0.02598
1275.48268	0.02583
1274.19691	0.02570
1272.91114	0.02560
1271.62537	0.02551
1270.33960	0.02542
1269.05383	0.02533
1267.76806	0.02525
1266.48229	0.02518
1265.19653	0.02510
1263.91076	0.02499
1262.62499	0.02484
1261.33922	0.02472
1260.05345	0.02465
1258.76768	0.02462
1257.48191	0.02457
1256.19614	0.02448
1254.91037	0.02436
1253.62461	0.02426
1252.33884	0.02419
1251.05307	0.02415
1249.76730	0.02413
1248.48153	0.02410
1247.19576	0.02406
1245.90999	0.02401
1244.62422	0.02398
1243.33846	0.02396
1242.05269	0.02394
1240.76692	0.02393
1239.48115	0.02393
1238.19538	0.02396
1236.90961	0.02402
1235.62384	0.02407
1234.33807	0.02407
1233.05230	0.02401
1231.76654	0.02392
1230.48077	0.02385
1229.19500	0.02384
1227.90923	0.02385
1226.62346	0.02384
1225.33769	0.02380
1224.05192	0.02375
1222.76615	0.02372
1221.48039	0.02372
1220.19462	0.02374
1218.90885	0.02376
1217.62308	0.02380
1216.33731	0.02386
1215.05154	0.02393
1213.76577	0.02397
1212.48000	0.02398
1211.19423	0.02398
1209.90847	0.02401
1208.62270	0.02407
1207.33693	0.02410
1206.05116	0.02407
1204.76539	0.02401
1203.47962	0.02396
1202.19385	0.02396
1200.90808	0.02409
1199.62232	0.02437
1198.33655	0.02447
1197.05078	0.02457
1195.76501	0.02465
1194.47924	0.02467
1193.19347	0.02465
1191.90770	0.02462
1190.62193	0.02463
1189.33616	0.02469
1188.05040	0.02477
1186.76463	0.02484
1185.47886	0.02487
1184.19309	0.02489
1182.90732	0.02496
1181.62155	0.02512
1180.33578	0.02535
1179.05001	0.02559
1177.76425	0.02581
1176.47848	0.02598
1175.19271	0.02617
1173.90694	0.02643
1172.62117	0.02676
1171.33540	0.02708
1170.04963	0.02732
1168.76386	0.02746
1167.47809	0.02754
1166.19233	0.02763
1164.90656	0.02779
1163.62079	0.02801
1162.33502	0.02829
1161.04925	0.02857
1159.76348	0.02884
1158.47771	0.02908
1157.19194	0.02933
1155.90618	0.02964
1154.62041	0.03001
1153.33464	0.03042
1152.04887	0.03086
1150.76310	0.03133
1149.47733	0.03182
1148.19156	0.03236
1146.90579	0.03296
1145.62002	0.03363
1144.33426	0.03441
1143.04849	0.03529
1141.76272	0.03629
1140.47695	0.03742
1139.19118	0.03867
1137.90541	0.04003
1136.61964	0.04150
1135.33387	0.04314
1134.04811	0.04502
1132.76234	0.04716
1131.47657	0.04958
1130.19080	0.05225
1128.90503	0.05519
1127.61926	0.05838
1126.33349	0.06180
1125.04772	0.06542
1123.76195	0.06923
1122.47619	0.07319
1121.19042	0.07729
1119.90465	0.08148
1118.61888	0.08571
1117.33311	0.08995
1116.04734	0.09423
1114.76157	0.09852
1113.47580	0.10274
1112.19004	0.10681
1110.90427	0.11072
1109.61850	0.11453
1108.33273	0.11828
1107.04696	0.12192
1105.76119	0.12540
1104.47542	0.12875
1103.18965	0.13204
1101.90388	0.13528
1100.61812	0.13839
1099.33235	0.14131
1098.04658	0.14406
1096.76081	0.14678
1095.47504	0.14951
1094.18927	0.15220
1092.90350	0.15473
1091.61773	0.15704
1090.33197	0.15911
1089.04620	0.16100
1087.76043	0.16274
1086.47466	0.16446
1085.18889	0.16627
1083.90312	0.16826
1082.61735	0.17048
1081.33158	0.17295
1080.04581	0.17565
1078.76005	0.17848
1077.47428	0.18140
1076.18851	0.18446
1074.90274	0.18773
1073.61697	0.19117
1072.33120	0.19471
1071.04543	0.19836
1069.75966	0.20219
1068.47390	0.20629
1067.18813	0.21061
1065.90236	0.21505
1064.61659	0.21952
1063.33082	0.22401
1062.04505	0.22852
1060.75928	0.23302
1059.47351	0.23749
1058.18774	0.24191
1056.90198	0.24625
1055.61621	0.25051
1054.33044	0.25476
1053.04467	0.25911
1051.75890	0.26361
1050.47313	0.26824
1049.18736	0.27294
1047.90159	0.27769
1046.61583	0.28249
1045.33006	0.28739
1044.04429	0.29246
1042.75852	0.29773
1041.47275	0.30310
1040.18698	0.30850
1038.90121	0.31385
1037.61544	0.31914
1036.32967	0.32439
1035.04391	0.32960
1033.75814	0.33470
1032.47237	0.33957
1031.18660	0.34413
1029.90083	0.34827
1028.61506	0.35192
1027.32929	0.35501
1026.04352	0.35752
1024.75775	0.35950
1023.47199	0.36099
1022.18622	0.36193
1020.90045	0.36220
1019.61468	0.36169
1018.32891	0.36030
1017.04314	0.35804
1015.75737	0.35495
1014.47160	0.35109
1013.18584	0.34652
1011.90007	0.34123
1010.61430	0.33522
1009.32853	0.32846
1008.04276	0.32094
1006.75699	0.31270
1005.47122	0.30383
1004.18545	0.29448
1002.89968	0.28477
1001.61392	0.27480
1000.32815	0.26466
999.04238	0.25446
997.75661	0.24428
996.47084	0.23422
995.18507	0.22435
993.89930	0.21474
992.61353	0.20543
991.32777	0.19646
990.04200	0.18792
988.75623	0.17985
987.47046	0.17220
986.18469	0.16494
984.89892	0.15805
983.61315	0.15158
982.32738	0.14556
981.04161	0.14004
979.75585	0.13503
978.47008	0.13049
977.18431	0.12632
975.89854	0.12253
974.61277	0.11923
973.32700	0.11654
972.04123	0.11453
970.75546	0.11326
969.46970	0.11272
968.18393	0.11285
966.89816	0.11352
965.61239	0.11459
964.32662	0.11585
963.04085	0.11703
961.75508	0.11779
960.46931	0.11781
959.18354	0.11689
957.89778	0.11506
956.61201	0.11252
955.32624	0.10955
954.04047	0.10639
952.75470	0.10318
951.46893	0.10000
950.18316	0.09691
948.89739	0.09396
947.61163	0.09116
946.32586	0.08852
945.04009	0.08602
943.75432	0.08362
942.46855	0.08131
941.18278	0.07908
939.89701	0.07696
938.61124	0.07497
937.32547	0.07314
936.03971	0.07146
934.75394	0.06994
933.46817	0.06852
932.18240	0.06717
930.89663	0.06590
929.61086	0.06472
928.32509	0.06366
927.03932	0.06271
925.75356	0.06182
924.46779	0.06093
923.18202	0.06000
921.89625	0.05910
920.61048	0.05828
919.32471	0.05759
918.03894	0.05698
916.75317	0.05640
915.46740	0.05581
914.18164	0.05524
912.89587	0.05474
911.61010	0.05431
910.32433	0.05390
909.03856	0.05349
907.75279	0.05305
906.46702	0.05261
905.18125	0.05214
903.89549	0.05161
902.60972	0.05102
901.32395	0.05040
900.03818	0.04982
898.75241	0.04932
897.46664	0.04893
896.18087	0.04864
894.89510	0.04845
893.60933	0.04835
892.32357	0.04836
891.03780	0.04848
889.75203	0.04869
888.46626	0.04904
887.18049	0.04970
885.89472	0.05092
884.60895	0.05291
883.32318	0.05569
882.03742	0.05899
880.75165	0.06224
879.46588	0.06492
878.18011	0.06690
876.89434	0.06854
875.60857	0.07027
874.32280	0.07214
873.03703	0.07370
871.75126	0.07441
870.46550	0.07397
869.17973	0.07244
867.89396	0.07006
866.60819	0.06711
865.32242	0.06392
864.03665	0.06079
862.75088	0.05792
861.46511	0.05538
860.17935	0.05312
858.89358	0.05115
857.60781	0.04951
856.32204	0.04824
855.03627	0.04729
853.75050	0.04660
852.46473	0.04604
851.17896	0.04557
849.89319	0.04517
848.60743	0.04481
847.32166	0.04440
846.03589	0.04391
844.75012	0.04338
843.46435	0.04292
842.17858	0.04262
840.89281	0.04245
839.60704	0.04230
838.32128	0.04209
837.03551	0.04182
835.74974	0.04155
834.46397	0.04129
833.17820	0.04106
831.89243	0.04087
830.60666	0.04071
829.32089	0.04056
828.03512	0.04039
826.74936	0.04024
825.46359	0.04017
824.17782	0.04019
822.89205	0.04025
821.60628	0.04031
820.32051	0.04037
819.03474	0.04039
817.74897	0.04037
816.46321	0.04028
815.17744	0.04016
813.89167	0.04006
812.60590	0.04001
811.32013	0.04000
810.03436	0.04002
808.74859	0.04008
807.46282	0.04020
806.17705	0.04032
804.89129	0.04044
803.60552	0.04055
802.31975	0.04074
801.03398	0.04099
799.74821	0.04123
798.46244	0.04138
797.17667	0.04144
795.89090	0.04145
794.60513	0.04144
793.31937	0.04140
792.03360	0.04134
790.74783	0.04130
789.46206	0.04131
788.17629	0.04136
786.89052	0.04138
785.60475	0.04134
784.31898	0.04123
783.03322	0.04112
781.74745	0.04105
780.46168	0.04107
779.17591	0.04114
777.89014	0.04120
776.60437	0.04121
775.31860	0.04121
774.03283	0.04122
772.74706	0.04129
771.46130	0.04140
770.17553	0.04147
768.88976	0.04143
767.60399	0.04125
766.31822	0.04101
765.03245	0.04079
763.74668	0.04069
762.46091	0.04071
761.17515	0.04082
759.88938	0.04097
758.60361	0.04110
757.31784	0.04120
756.03207	0.04124
754.74630	0.04121
753.46053	0.04112
752.17476	0.04097
750.88899	0.04073
749.60323	0.04043
748.31746	0.04018
747.03169	0.04007
745.74592	0.04010
744.46015	0.04017
743.17438	0.04016
741.88861	0.04003
740.60284	0.03984
739.31708	0.03963
738.03131	0.03943
736.74554	0.03928
735.45977	0.03919
734.17400	0.03911
732.88823	0.03901
731.60246	0.03890
730.31669	0.03886
729.03092	0.03891
727.74516	0.03899
726.45939	0.03904
725.17362	0.03907
723.88785	0.03916
722.60208	0.03897
721.31631	0.03864
720.03054	0.03838
718.74477	0.03824
717.45901	0.03818
716.17324	0.03817
714.88747	0.03819
713.60170	0.03822
712.31593	0.03826
711.03016	0.03832
709.74439	0.03841
708.45862	0.03850
707.17285	0.03853
705.88709	0.03846
704.60132	0.03829
703.31555	0.03811
702.02978	0.03799
700.74401	0.03793
699.45824	0.03790
698.17247	0.03786
696.88670	0.03780
695.60094	0.03775
694.31517	0.03775
693.02940	0.03781
691.74363	0.03789
690.45786	0.03794
689.17209	0.03793
687.88632	0.03787
686.60055	0.03778
685.31478	0.03772
684.02902	0.03769
682.74325	0.03769
681.45748	0.03766
680.17171	0.03758
678.88594	0.03748
677.60017	0.03739
676.31440	0.03736
675.02863	0.03741
673.74287	0.03752
672.45710	0.03768
671.17133	0.03783
669.88556	0.03795
668.59979	0.03820
667.31402	0.03831
666.02825	0.03814
664.74248	0.03807
663.45671	0.03793
662.17095	0.03773
660.88518	0.03753
659.59941	0.03737
658.31364	0.03724
657.02787	0.03712
655.74210	0.03703
654.45633	0.03697
653.17056	0.03695
651.88480	0.03695
650.59903	0.03698
649.31326	0.03704
648.02749	0.03708
646.74172	0.03712
645.45595	0.03715
644.17018	0.03722
642.88441	0.03733
641.59864	0.03746
640.31288	0.03760
639.02711	0.03778
637.74134	0.03807
636.45557	0.03850
635.16980	0.03904
633.88403	0.03966
632.59826	0.04033
631.31249	0.04081
630.02673	0.04033
628.74096	0.03945
627.45519	0.04138
626.16942	0.04062
624.88365	0.03811
623.59788	0.03617
622.31211	0.03602
621.02634	0.03837
619.74057	0.04329
618.45481	0.05017
617.16904	0.05798
615.88327	0.06553
614.59750	0.07175
613.31173	0.07618
612.02596	0.07933
610.74019	0.08259
609.45442	0.08720
608.16866	0.09308
606.88289	0.09918
605.59712	0.10458
604.31135	0.10889
603.02558	0.11177
601.73981	0.11300
600.45404	0.11267
599.16827	0.11109
597.88250	0.10860
596.59674	0.10558
595.31097	0.10247
594.02520	0.09965
592.73943	0.09730
591.45366	0.09547
590.16789	0.09423
588.88212	0.09372
587.59635	0.09405
586.31059	0.09520
585.02482	0.09708
583.73905	0.09952
582.45328	0.10237
581.16751	0.10554
579.88174	0.10895
578.59597	0.11243
577.31020	0.11574
576.02443	0.11869
574.73867	0.12132
573.45290	0.12384
572.16713	0.12647
570.88136	0.12936
569.59559	0.13274
568.30982	0.13685
567.02405	0.14167
565.73828	0.14674
564.45251	0.15128
563.16675	0.15450
561.88098	0.15578
560.59521	0.15472
559.30944	0.15122
558.02367	0.14555
556.73790	0.13838
555.45213	0.13048
554.16636	0.12249
552.88060	0.11480
551.59483	0.10759
550.30906	0.10097
549.02329	0.09508
547.73752	0.08997
546.45175	0.08560
545.16598	0.08178
543.88021	0.07834
542.59444	0.07525
541.30868	0.07258
540.02291	0.07033
538.73714	0.06843
537.45137	0.06670
536.16560	0.06501
534.87983	0.06336
533.59406	0.06182
532.30829	0.06041
531.02253	0.05911
529.73676	0.05786
528.45099	0.05668
527.16522	0.05556
525.87945	0.05451
524.59368	0.05347
523.30791	0.05248
522.02214	0.05159
520.73637	0.05080
519.45061	0.05007
518.16484	0.04936
516.87907	0.04865
515.59330	0.04793
514.30753	0.04720
513.02176	0.04648
511.73599	0.04585
510.45022	0.04536
509.16446	0.04498
507.87869	0.04462
506.59292	0.04421
505.30715	0.04376
504.02138	0.04334
502.73561	0.04301
501.44984	0.04274
500.16407	0.04251
498.87830	0.04229
497.59254	0.04211
496.30677	0.04197
495.02100	0.04184
493.73523	0.04166
492.44946	0.04142
491.16369	0.04115
489.87792	0.04095
488.59215	0.04090
487.30639	0.04104
486.02062	0.04131
484.73485	0.04163
483.44908	0.04192
482.16331	0.04216
480.87754	0.04239
479.59177	0.04272
478.30600	0.04325
477.02023	0.04395
475.73447	0.04471
474.44870	0.04542
473.16293	0.04601
471.87716	0.04645
470.59139	0.04671
469.30562	0.04677
468.01985	0.04663
466.73408	0.04633
465.44832	0.04593
464.16255	0.04546
462.87678	0.04496
461.59101	0.04445
460.30524	0.04396
459.01947	0.04347
457.73370	0.04297
456.44793	0.04244
455.16216	0.04194
453.87640	0.04151
452.59063	0.04118
451.30486	0.04091
450.01909	0.04066
448.73332	0.04043
447.44755	0.04026
446.16178	0.04017
444.87601	0.04012
443.59025	0.04004
442.30448	0.03986
441.01871	0.03957
439.73294	0.03919
438.44717	0.03880
437.16140	0.03849
435.87563	0.03831
434.58986	0.03821
433.30409	0.03815
432.01833	0.03809
430.73256	0.03804
429.44679	0.03798
428.16102	0.03789
426.87525	0.03778
425.58948	0.03767
424.30371	0.03757
423.01794	0.03744
421.73218	0.03724
420.44641	0.03697
419.16064	0.03667
417.87487	0.03637
416.58910	0.03611
415.30333	0.03586
414.01756	0.03564
412.73179	0.03546
411.44602	0.03531
410.16026	0.03516
408.87449	0.03501
407.58872	0.03488
406.30295	0.03475
405.01718	0.03463
403.73141	0.03455
402.44564	0.03457
401.15987	0.03466
399.87411	0.03479
