3997.45528 0.02582
3996.16951 0.02670
3994.88374 0.02752
3993.59798 0.02795
3992.31221 0.02782
3991.02644 0.02734
3989.74067 0.02690
3988.45490 0.02685
3987.16913 0.02721
3985.88336 0.02763
3984.59759 0.02757
3983.31183 0.02682
3982.02606 0.02575
3980.74029 0.02501
3979.45452 0.02499
3978.16875 0.02543
3976.88298 0.02575
3975.59721 0.02568
3974.31144 0.02556
3973.02567 0.02570
3971.73991 0.02589
3970.45414 0.02568
3969.16837 0.02510
3967.88260 0.02472
3966.59683 0.02515
3965.31106 0.02646
3964.02529 0.02809
3962.73952 0.02915
3961.45376 0.02904
3960.16799 0.02795
3958.88222 0.02670
3957.59645 0.02594
3956.31068 0.02567
3955.02491 0.02553
3953.73914 0.02547
3952.45337 0.02576
3951.16760 0.02642
3949.88184 0.02685
3948.59607 0.02636
3947.31030 0.02509
3946.02453 0.02406
3944.73876 0.02425
3943.45299 0.02570
3942.16722 0.02743
3940.88145 0.02825
3939.59569 0.02770
3938.30992 0.02646
3937.02415 0.02574
3935.73838 0.02612
3934.45261 0.02705
3933.16684 0.02758
3931.88107 0.02734
3930.59530 0.02671
3929.30953 0.02621
3928.02377 0.02607
3926.73800 0.02624
3925.45223 0.02664
3924.16646 0.02714
3922.88069 0.02748
3921.59492 0.02737
3920.30915 0.02676
3919.02338 0.02585
3917.73762 0.02494
3916.45185 0.02432
3915.16608 0.02404
3913.88031 0.02386
3912.59454 0.02352
3911.30877 0.02313
3910.02300 0.02307
3908.73723 0.02359
3907.45146 0.02436
3906.16570 0.02477
3904.87993 0.02470
3903.59416 0.02467
3902.30839 0.02521
3901.02262 0.02626
3899.73685 0.02721
3898.45108 0.02751
3897.16531 0.02716
3895.87955 0.02678
3894.59378 0.02703
3893.30801 0.02809
3892.02224 0.02955
3890.73647 0.03081
3889.45070 0.03126
3888.16493 0.03046
3886.87916 0.02868
3885.59339 0.02692
3884.30763 0.02610
3883.02186 0.02623
3881.73609 0.02672
3880.45032 0.02716
3879.16455 0.02743
3877.87878 0.02750
3876.59301 0.02729
3875.30724 0.02685
3874.02148 0.02642
3872.73571 0.02624
3871.44994 0.02634
3870.16417 0.02663
3868.87840 0.02680
3867.59263 0.02653
3866.30686 0.02598
3865.02109 0.02568
3863.73532 0.02580
3862.44956 0.02598
3861.16379 0.02601
3859.87802 0.02603
3858.59225 0.02625
3857.30648 0.02657
3856.02071 0.02672
3854.73494 0.02669
3853.44917 0.02682
3852.16341 0.02731
3850.87764 0.02795
3849.59187 0.02836
3848.30610 0.02841
3847.02033 0.02820
3845.73456 0.02799
3844.44879 0.02800
3843.16302 0.02821
3841.87725 0.02830
3840.59149 0.02781
3839.30572 0.02665
3838.01995 0.02535
3836.73418 0.02461
3835.44841 0.02462
3834.16264 0.02511
3832.87687 0.02566
3831.59110 0.02599
3830.30534 0.02589
3829.01957 0.02526
3827.73380 0.02422
3826.44803 0.02313
3825.16226 0.02242
3823.87649 0.02219
3822.59072 0.02241
3821.30495 0.02317
3820.01918 0.02446
3818.73342 0.02580
3817.44765 0.02657
3816.16188 0.02654
3814.87611 0.02590
3813.59034 0.02503
3812.30457 0.02454
3811.01880 0.02491
3809.73303 0.02592
3808.44726 0.02682
3807.16150 0.02722
3805.87573 0.02722
3804.58996 0.02690
3803.30419 0.02638
3802.01842 0.02619
3800.73265 0.02676
3799.44688 0.02774
3798.16111 0.02848
3796.87535 0.02879
3795.58958 0.02884
3794.30381 0.02848
3793.01804 0.02739
3791.73227 0.02575
3790.44650 0.02438
3789.16073 0.02404
3787.87496 0.02473
3786.58919 0.02583
3785.30343 0.02661
3784.01766 0.02671
3782.73189 0.02618
3781.44612 0.02542
3780.16035 0.02504
3778.87458 0.02531
3777.58881 0.02593
3776.30304 0.02632
3775.01728 0.02623
3773.73151 0.02585
3772.44574 0.02549
3771.15997 0.02551
3769.87420 0.02617
3768.58843 0.02723
3767.30266 0.02798
3766.01689 0.02781
3764.73112 0.02683
3763.44536 0.02560
3762.15959 0.02469
3760.87382 0.02430
3759.58805 0.02417
3758.30228 0.02389
3757.01651 0.02336
3755.73074 0.02297
3754.44497 0.02316
3753.15921 0.02405
3751.87344 0.02518
3750.58767 0.02590
3749.30190 0.02596
3748.01613 0.02558
3746.73036 0.02479
3745.44459 0.02363
3744.15882 0.02264
3742.87305 0.02243
3741.58729 0.02312
3740.30152 0.02448
3739.01575 0.02609
3737.72998 0.02741
3736.44421 0.02814
3735.15844 0.02823
3733.87267 0.02768
3732.58690 0.02671
3731.30114 0.02578
3730.01537 0.02517
3728.72960 0.02475
3727.44383 0.02429
3726.15806 0.02385
3724.87229 0.02366
3723.58652 0.02387
3722.30075 0.02438
3721.01498 0.02495
3719.72922 0.02545
3718.44345 0.02585
3717.15768 0.02609
3715.87191 0.02599
3714.58614 0.02553
3713.30037 0.02495
3712.01460 0.02451
3710.72883 0.02417
3709.44307 0.02377
3708.15730 0.02331
3706.87153 0.02298
3705.58576 0.02281
3704.29999 0.02273
3703.01422 0.02257
3701.72845 0.02220
3700.44268 0.02165
3699.15691 0.02116
3697.87115 0.02100
3696.58538 0.02130
3695.29961 0.02193
3694.01384 0.02267
3692.72807 0.02335
3691.44230 0.02391
3690.15653 0.02422
3688.87076 0.02408
3687.58500 0.02354
3686.29923 0.02279
3685.01346 0.02205
3683.72769 0.02157
3682.44192 0.02142
3681.15615 0.02159
3679.87038 0.02219
3678.58461 0.02323
3677.29884 0.02440
3676.01308 0.02543
3674.72731 0.02626
3673.44154 0.02674
3672.15577 0.02672
3670.87000 0.02657
3669.58423 0.02684
3668.29846 0.02752
3667.01269 0.02803
3665.72693 0.02779
3664.44116 0.02671
3663.15539 0.02525
3661.86962 0.02409
3660.58385 0.02364
3659.29808 0.02377
3658.01231 0.02415
3656.72654 0.02460
3655.44077 0.02507
3654.15501 0.02537
3652.86924 0.02531
3651.58347 0.02499
3650.29770 0.02477
3649.01193 0.02486
3647.72616 0.02507
3646.44039 0.02503
3645.15462 0.02464
3643.86886 0.02424
3642.58309 0.02437
3641.29732 0.02516
3640.01155 0.02622
3638.72578 0.02710
3637.44001 0.02760
3636.15424 0.02772
3634.86847 0.02758
3633.58270 0.02750
3632.29694 0.02766
3631.01117 0.02786
3629.72540 0.02777
3628.43963 0.02735
3627.15386 0.02673
3625.86809 0.02603
3624.58232 0.02540
3623.29655 0.02491
3622.01079 0.02443
3620.72502 0.02394
3619.43925 0.02356
3618.15348 0.02345
3616.86771 0.02357
3615.58194 0.02397
3614.29617 0.02488
3613.01040 0.02631
3611.72463 0.02771
3610.43887 0.02835
3609.15310 0.02815
3607.86733 0.02780
3606.58156 0.02795
3605.29579 0.02860
3604.01002 0.02928
3602.72425 0.02949
3601.43848 0.02903
3600.15272 0.02819
3598.86695 0.02766
3597.58118 0.02795
3596.29541 0.02884
3595.00964 0.02959
3593.72387 0.02966
3592.43810 0.02916
3591.15233 0.02852
3589.86656 0.02803
3588.58080 0.02767
3587.29503 0.02742
3586.00926 0.02752
3584.72349 0.02820
3583.43772 0.02919
3582.15195 0.02978
3580.86618 0.02949
3579.58041 0.02858
3578.29464 0.02783
3577.00888 0.02778
3575.72311 0.02823
3574.43734 0.02858
3573.15157 0.02844
3571.86580 0.02790
3570.58003 0.02736
3569.29426 0.02713
3568.00849 0.02731
3566.72273 0.02795
3565.43696 0.02898
3564.15119 0.03008
3562.86542 0.03079
3561.57965 0.03094
3560.29388 0.03074
3559.00811 0.03050
3557.72234 0.03037
3556.43657 0.03041
3555.15081 0.03064
3553.86504 0.03100
3552.57927 0.03133
3551.29350 0.03144
3550.00773 0.03125
3548.72196 0.03082
3547.43619 0.03035
3546.15042 0.03015
3544.86466 0.03038
3543.57889 0.03091
3542.29312 0.03138
3541.00735 0.03151
3539.72158 0.03134
3538.43581 0.03111
3537.15004 0.03095
3535.86427 0.03073
3534.57850 0.03031
3533.29274 0.02989
3532.00697 0.02992
3530.72120 0.03060
3529.43543 0.03156
3528.14966 0.03225
3526.86389 0.03244
3525.57812 0.03236
3524.29235 0.03235
3523.00659 0.03247
3521.72082 0.03252
3520.43505 0.03227
3519.14928 0.03168
3517.86351 0.03089
3516.57774 0.03020
3515.29197 0.02996
3514.00620 0.03034
3512.72043 0.03107
3511.43467 0.03162
3510.14890 0.03158
3508.86313 0.03100
3507.57736 0.03036
3506.29159 0.03017
3505.00582 0.03065
3503.72005 0.03144
3502.43428 0.03194
3501.14852 0.03188
3499.86275 0.03163
3498.57698 0.03170
3497.29121 0.03212
3496.00544 0.03242
3494.71967 0.03229
3493.43390 0.03188
3492.14813 0.03167
3490.86236 0.03197
3489.57660 0.03270
3488.29083 0.03345
3487.00506 0.03386
3485.71929 0.03396
3484.43352 0.03414
3483.14775 0.03470
3481.86198 0.03547
3480.57621 0.03611
3479.29045 0.03643
3478.00468 0.03648
3476.71891 0.03635
3475.43314 0.03607
3474.14737 0.03567
3472.86160 0.03531
3471.57583 0.03521
3470.29006 0.03545
3469.00429 0.03586
3467.71853 0.03612
3466.43276 0.03606
3465.14699 0.03578
3463.86122 0.03541
3462.57545 0.03499
3461.28968 0.03453
3460.00391 0.03419
3458.71814 0.03418
3457.43238 0.03456
3456.14661 0.03511
3454.86084 0.03555
3453.57507 0.03569
3452.28930 0.03551
3451.00353 0.03503
3449.71776 0.03434
3448.43199 0.03370
3447.14622 0.03344
3445.86046 0.03366
3444.57469 0.03410
3443.28892 0.03441
3442.00315 0.03451
3440.71738 0.03465
3439.43161 0.03502
3438.14584 0.03544
3436.86007 0.03556
3435.57431 0.03527
3434.28854 0.03486
3433.00277 0.03468
3431.71700 0.03487
3430.43123 0.03532
3429.14546 0.03575
3427.85969 0.03583
3426.57392 0.03541
3425.28815 0.03469
3424.00239 0.03406
3422.71662 0.03377
3421.43085 0.03378
3420.14508 0.03394
3418.85931 0.03414
3417.57354 0.03441
3416.28777 0.03482
3415.00200 0.03544
3413.71624 0.03618
3412.43047 0.03687
3411.14470 0.03727
3409.85893 0.03727
3408.57316 0.03687
3407.28739 0.03627
3406.00162 0.03575
3404.71585 0.03549
3403.43008 0.03551
3402.14432 0.03578
3400.85855 0.03627
3399.57278 0.03695
3398.28701 0.03754
3397.00124 0.03774
3395.71547 0.03752
3394.42970 0.03717
3393.14393 0.03711
3391.85817 0.03747
3390.57240 0.03803
3389.28663 0.03849
3388.00086 0.03875
3386.71509 0.03873
3385.42932 0.03831
3384.14355 0.03755
3382.85778 0.03677
3381.57201 0.03628
3380.28625 0.03599
3379.00048 0.03566
3377.71471 0.03527
3376.42894 0.03513
3375.14317 0.03540
3373.85740 0.03596
3372.57163 0.03663
3371.28586 0.03734
3370.00010 0.03802
3368.71433 0.03846
3367.42856 0.03849
3366.14279 0.03808
3364.85702 0.03738
3363.57125 0.03665
3362.28548 0.03617
3360.99971 0.03610
3359.71394 0.03638
3358.42818 0.03677
3357.14241 0.03713
3355.85664 0.03749
3354.57087 0.03797
3353.28510 0.03850
3351.99933 0.03878
3350.71356 0.03851
3349.42779 0.03771
3348.14202 0.03679
3346.85626 0.03618
3345.57049 0.03603
3344.28472 0.03619
3342.99895 0.03647
3341.71318 0.03670
3340.42741 0.03675
3339.14164 0.03659
3337.85587 0.03632
3336.57011 0.03616
3335.28434 0.03626
3333.99857 0.03655
3332.71280 0.03685
3331.42703 0.03704
3330.14126 0.03723
3328.85549 0.03749
3327.56972 0.03773
3326.28395 0.03777
3324.99819 0.03767
3323.71242 0.03764
3322.42665 0.03774
3321.14088 0.03779
3319.85511 0.03757
3318.56934 0.03705
3317.28357 0.03653
3315.99780 0.03637
3314.71204 0.03671
3313.42627 0.03731
3312.14050 0.03775
3310.85473 0.03780
3309.56896 0.03754
3308.28319 0.03722
3306.99742 0.03700
3305.71165 0.03690
3304.42588 0.03693
3303.14012 0.03706
3301.85435 0.03717
3300.56858 0.03711
3299.28281 0.03682
3297.99704 0.03649
3296.71127 0.03628
3295.42550 0.03623
3294.13973 0.03624
3292.85397 0.03627
3291.56820 0.03633
3290.28243 0.03638
3288.99666 0.03625
3287.71089 0.03585
3286.42512 0.03535
3285.13935 0.03504
3283.85358 0.03496
3282.56781 0.03494
3281.28205 0.03494
3279.99628 0.03517
3278.71051 0.03571
3277.42474 0.03630
3276.13897 0.03659
3274.85320 0.03649
3273.56743 0.03626
3272.28166 0.03618
3270.99590 0.03638
3269.71013 0.03674
3268.42436 0.03698
3267.13859 0.03684
3265.85282 0.03631
3264.56705 0.03567
3263.28128 0.03521
3261.99551 0.03513
3260.70974 0.03540
3259.42398 0.03586
3258.13821 0.03622
3256.85244 0.03620
3255.56667 0.03572
3254.28090 0.03502
3252.99513 0.03448
3251.70936 0.03436
3250.42359 0.03462
3249.13783 0.03503
3247.85206 0.03533
3246.56629 0.03535
3245.28052 0.03509
3243.99475 0.03473
3242.70898 0.03458
3241.42321 0.03488
3240.13744 0.03558
3238.85167 0.03625
3237.56591 0.03646
3236.28014 0.03617
3234.99437 0.03572
3233.70860 0.03550
3232.42283 0.03567
3231.13706 0.03617
3229.85129 0.03687
3228.56552 0.03754
3227.27976 0.03794
3225.99399 0.03801
3224.70822 0.03792
3223.42245 0.03784
3222.13668 0.03776
3220.85091 0.03756
3219.56514 0.03722
3218.27937 0.03685
3216.99360 0.03654
3215.70784 0.03630
3214.42207 0.03613
3213.13630 0.03599
3211.85053 0.03582
3210.56476 0.03555
3209.27899 0.03533
3207.99322 0.03530
3206.70745 0.03539
3205.42169 0.03532
3204.13592 0.03496
3202.85015 0.03449
3201.56438 0.03427
3200.27861 0.03448
3198.99284 0.03503
3197.70707 0.03572
3196.42130 0.03631
3195.13553 0.03659
3193.84977 0.03644
3192.56400 0.03593
3191.27823 0.03526
3189.99246 0.03465
3188.70669 0.03418
3187.42092 0.03388
3186.13515 0.03376
3184.84938 0.03385
3183.56362 0.03408
3182.27785 0.03432
3180.99208 0.03444
3179.70631 0.03446
3178.42054 0.03443
3177.13477 0.03435
3175.84900 0.03421
3174.56323 0.03411
3173.27746 0.03415
3171.99170 0.03438
3170.70593 0.03473
3169.42016 0.03502
3168.13439 0.03499
3166.84862 0.03451
3165.56285 0.03376
3164.27708 0.03323
3162.99131 0.03322
3161.70555 0.03357
3160.41978 0.03390
3159.13401 0.03403
3157.84824 0.03409
3156.56247 0.03423
3155.27670 0.03449
3153.99093 0.03480
3152.70516 0.03501
3151.41939 0.03499
3150.13363 0.03474
3148.84786 0.03443
3147.56209 0.03427
3146.27632 0.03427
3144.99055 0.03435
3143.70478 0.03445
3142.41901 0.03454
3141.13324 0.03464
3139.84748 0.03473
3138.56171 0.03478
3137.27594 0.03477
3135.99017 0.03464
3134.70440 0.03436
3133.41863 0.03399
3132.13286 0.03363
3130.84709 0.03340
3129.56132 0.03346
3128.27556 0.03390
3126.98979 0.03462
3125.70402 0.03538
3124.41825 0.03584
3123.13248 0.03577
3121.84671 0.03516
3120.56094 0.03423
3119.27517 0.03327
3117.98940 0.03253
3116.70364 0.03207
3115.41787 0.03185
3114.13210 0.03188
3112.84633 0.03222
3111.56056 0.03279
3110.27479 0.03333
3108.98902 0.03357
3107.70325 0.03359
3106.41749 0.03366
3105.13172 0.03394
3103.84595 0.03427
3102.56018 0.03436
3101.27441 0.03409
3099.98864 0.03361
3098.70287 0.03314
3097.41710 0.03293
3096.13133 0.03307
3094.84557 0.03343
3093.55980 0.03366
3092.27403 0.03350
3090.98826 0.03295
3089.70249 0.03224
3088.41672 0.03168
3087.13095 0.03146
3085.84518 0.03157
3084.55942 0.03186
3083.27365 0.03208
3081.98788 0.03207
3080.70211 0.03194
3079.41634 0.03189
3078.13057 0.03208
3076.84480 0.03243
3075.55903 0.03279
3074.27326 0.03305
3072.98750 0.03314
3071.70173 0.03303
3070.41596 0.03276
3069.13019 0.03249
3067.84442 0.03243
3066.55865 0.03264
3065.27288 0.03295
3063.98711 0.03312
3062.70135 0.03305
3061.41558 0.03292
3060.12981 0.03293
3058.84404 0.03311
3057.55827 0.03331
3056.27250 0.03332
3054.98673 0.03304
3053.70096 0.03254
3052.41519 0.03201
3051.12943 0.03167
3049.84366 0.03165
3048.55789 0.03192
3047.27212 0.03232
3045.98635 0.03259
3044.70058 0.03255
3043.41481 0.03223
3042.12904 0.03196
3040.84328 0.03202
3039.55751 0.03240
3038.27174 0.03274
3036.98597 0.03268
3035.70020 0.03219
3034.41443 0.03158
3033.12866 0.03123
3031.84289 0.03128
3030.55712 0.03160
3029.27136 0.03197
3027.98559 0.03220
3026.69982 0.03216
3025.41405 0.03189
3024.12828 0.03152
3022.84251 0.03125
3021.55674 0.03115
3020.27097 0.03108
3018.98521 0.03097
3017.69944 0.03093
3016.41367 0.03109
3015.12790 0.03141
3013.84213 0.03163
3012.55636 0.03157
3011.27059 0.03123
3009.98482 0.03076
3008.69905 0.03029
3007.41329 0.02993
3006.12752 0.02977
3004.84175 0.02984
3003.55598 0.03012
3002.27021 0.03055
3000.98444 0.03099
2999.69867 0.03122
2998.41290 0.03107
2997.12714 0.03069
2995.84137 0.03030
2994.55560 0.03000
2993.26983 0.02976
2991.98406 0.02959
2990.69829 0.02957
2989.41252 0.02979
2988.12675 0.03024
2986.84098 0.03076
2985.55522 0.03124
2984.26945 0.03157
2982.98368 0.03166
2981.69791 0.03147
2980.41214 0.03118
2979.12637 0.03115
2977.84060 0.03163
2976.55483 0.03250
2975.26907 0.03336
2973.98330 0.03395
2972.69753 0.03429
2971.41176 0.03452
2970.12599 0.03471
2968.84022 0.03489
2967.55445 0.03511
2966.26868 0.03547
2964.98291 0.03603
2963.69715 0.03674
2962.41138 0.03749
2961.12561 0.03816
2959.83984 0.03868
2958.55407 0.03908
2957.26830 0.03944
2955.98253 0.03978
2954.69676 0.04003
2953.41100 0.04016
2952.12523 0.04018
2950.83946 0.04014
2949.55369 0.04008
2948.26792 0.04008
2946.98215 0.04014
2945.69638 0.04024
2944.41061 0.04032
2943.12484 0.04034
2941.83908 0.04030
2940.55331 0.04031
2939.26754 0.04054
2937.98177 0.04100
2936.69600 0.04154
2935.41023 0.04198
2934.12446 0.04234
2932.83869 0.04278
2931.55293 0.04335
2930.26716 0.04387
2928.98139 0.04419
2927.69562 0.04430
2926.40985 0.04432
2925.12408 0.04434
2923.83831 0.04439
2922.55254 0.04446
2921.26677 0.04444
2919.98101 0.04421
2918.69524 0.04380
2917.40947 0.04336
2916.12370 0.04299
2914.83793 0.04269
2913.55216 0.04238
2912.26639 0.04203
2910.98062 0.04164
2909.69486 0.04119
2908.40909 0.04068
2907.12332 0.04017
2905.83755 0.03983
2904.55178 0.03973
2903.26601 0.03982
2901.98024 0.03985
2900.69447 0.03968
2899.40870 0.03934
2898.12294 0.03901
2896.83717 0.03880
2895.55140 0.03863
2894.26563 0.03837
2892.97986 0.03800
2891.69409 0.03763
2890.40832 0.03733
2889.12255 0.03712
2887.83678 0.03695
2886.55102 0.03683
2885.26525 0.03671
2883.97948 0.03652
2882.69371 0.03622
2881.40794 0.03582
2880.12217 0.03542
2878.83640 0.03517
2877.55063 0.03518
2876.26487 0.03542
2874.97910 0.03571
2873.69333 0.03593
2872.40756 0.03612
2871.12179 0.03636
2869.83602 0.03661
2868.55025 0.03679
2867.26448 0.03691
2865.97871 0.03703
2864.69295 0.03716
2863.40718 0.03721
2862.12141 0.03708
2860.83564 0.03684
2859.54987 0.03663
2858.26410 0.03650
2856.97833 0.03640
2855.69256 0.03627
2854.40680 0.03611
2853.12103 0.03594
2851.83526 0.03573
2850.54949 0.03544
2849.26372 0.03509
2847.97795 0.03467
2846.69218 0.03420
2845.40641 0.03376
2844.12064 0.03343
2842.83488 0.03321
2841.54911 0.03299
2840.26334 0.03274
2838.97757 0.03254
2837.69180 0.03241
2836.40603 0.03228
2835.12026 0.03199
2833.83449 0.03150
2832.54873 0.03093
2831.26296 0.03046
2829.97719 0.03021
2828.69142 0.03012
2827.40565 0.03001
2826.11988 0.02973
2824.83411 0.02926
2823.54834 0.02879
2822.26257 0.02855
2820.97681 0.02867
2819.69104 0.02906
2818.40527 0.02946
2817.11950 0.02958
2815.83373 0.02934
2814.54796 0.02892
2813.26219 0.02854
2811.97642 0.02824
2810.69066 0.02788
2809.40489 0.02750
2808.11912 0.02727
2806.83335 0.02728
2805.54758 0.02738
2804.26181 0.02737
2802.97604 0.02721
2801.69027 0.02707
2800.40450 0.02704
2799.11874 0.02705
2797.83297 0.02696
2796.54720 0.02679
2795.26143 0.02667
2793.97566 0.02671
2792.68989 0.02686
2791.40412 0.02694
2790.11835 0.02684
2788.83259 0.02658
2787.54682 0.02630
2786.26105 0.02616
2784.97528 0.02622
2783.68951 0.02639
2782.40374 0.02654
2781.11797 0.02661
2779.83220 0.02663
2778.54643 0.02671
2777.26067 0.02694
2775.97490 0.02728
2774.68913 0.02751
2773.40336 0.02742
2772.11759 0.02707
2770.83182 0.02673
2769.54605 0.02659
2768.26028 0.02658
2766.97452 0.02651
2765.68875 0.02634
2764.40298 0.02625
2763.11721 0.02636
2761.83144 0.02657
2760.54567 0.02670
2759.25990 0.02666
2757.97413 0.02649
2756.68836 0.02625
2755.40260 0.02598
2754.11683 0.02570
2752.83106 0.02549
2751.54529 0.02546
2750.25952 0.02564
2748.97375 0.02594
2747.68798 0.02616
2746.40221 0.02616
2745.11645 0.02596
2743.83068 0.02574
2742.54491 0.02565
2741.25914 0.02570
2739.97337 0.02579
2738.68760 0.02573
2737.40183 0.02549
2736.11606 0.02516
2734.83029 0.02494
2733.54453 0.02495
2732.25876 0.02510
2730.97299 0.02524
2729.68722 0.02523
2728.40145 0.02512
2727.11568 0.02502
2725.82991 0.02498
2724.54414 0.02495
2723.25838 0.02490
2721.97261 0.02487
2720.68684 0.02488
2719.40107 0.02493
2718.11530 0.02502
2716.82953 0.02514
2715.54376 0.02517
2714.25799 0.02496
2712.97222 0.02452
2711.68646 0.02406
2710.40069 0.02377
2709.11492 0.02370
2707.82915 0.02382
2706.54338 0.02406
2705.25761 0.02434
2703.97184 0.02456
2702.68607 0.02468
2701.40031 0.02470
2700.11454 0.02461
2698.82877 0.02432
2697.54300 0.02383
2696.25723 0.02331
2694.97146 0.02300
2693.68569 0.02300
2692.39992 0.02325
2691.11415 0.02360
2689.82839 0.02398
2688.54262 0.02432
2687.25685 0.02451
2685.97108 0.02447
2684.68531 0.02421
2683.39954 0.02390
2682.11377 0.02369
2680.82800 0.02361
2679.54224 0.02357
2678.25647 0.02351
2676.97070 0.02351
2675.68493 0.02365
2674.39916 0.02387
2673.11339 0.02399
2671.82762 0.02389
2670.54185 0.02370
2669.25608 0.02364
2667.97032 0.02380
2666.68455 0.02409
2665.39878 0.02426
2664.11301 0.02417
2662.82724 0.02387
2661.54147 0.02359
2660.25570 0.02349
2658.96993 0.02355
2657.68417 0.02361
2656.39840 0.02362
2655.11263 0.02364
2653.82686 0.02375
2652.54109 0.02389
2651.25532 0.02398
2649.96955 0.02395
2648.68378 0.02378
2647.39801 0.02349
2646.11225 0.02323
2644.82648 0.02315
2643.54071 0.02326
2642.25494 0.02349
2640.96917 0.02373
2639.68340 0.02386
2638.39763 0.02375
2637.11186 0.02330
2635.82609 0.02262
2634.54033 0.02196
2633.25456 0.02151
2631.96879 0.02131
2630.68302 0.02131
2629.39725 0.02142
2628.11148 0.02152
2626.82571 0.02155
2625.53994 0.02153
2624.25418 0.02155
2622.96841 0.02167
2621.68264 0.02181
2620.39687 0.02183
2619.11110 0.02162
2617.82533 0.02119
2616.53956 0.02069
2615.25379 0.02031
2613.96802 0.02021
2612.68226 0.02046
2611.39649 0.02098
2610.11072 0.02156
2608.82495 0.02199
2607.53918 0.02212
2606.25341 0.02195
2604.96764 0.02157
2603.68187 0.02113
2602.39611 0.02086
2601.11034 0.02096
2599.82457 0.02140
2598.53880 0.02179
2597.25303 0.02175
2595.96726 0.02124
2594.68149 0.02063
2593.39572 0.02024
2592.10995 0.02007
2590.82419 0.01992
2589.53842 0.01964
2588.25265 0.01930
2586.96688 0.01900
2585.68111 0.01885
2584.39534 0.01878
2583.10957 0.01868
2581.82380 0.01849
2580.53804 0.01838
2579.25227 0.01849
2577.96650 0.01882
2576.68073 0.01914
2575.39496 0.01934
2574.10919 0.01944
2572.82342 0.01956
2571.53765 0.01972
2570.25188 0.01976
2568.96612 0.01952
2567.68035 0.01904
2566.39458 0.01856
2565.10881 0.01839
2563.82304 0.01858
2562.53727 0.01894
2561.25150 0.01915
2559.96573 0.01899
2558.67997 0.01853
2557.39420 0.01801
2556.10843 0.01779
2554.82266 0.01805
2553.53689 0.01865
2552.25112 0.01914
2550.96535 0.01919
2549.67958 0.01891
2548.39381 0.01870
2547.10805 0.01881
2545.82228 0.01910
2544.53651 0.01923
2543.25074 0.01893
2541.96497 0.01824
2540.67920 0.01744
2539.39343 0.01686
2538.10766 0.01673
2536.82190 0.01717
2535.53613 0.01805
2534.25036 0.01902
2532.96459 0.01961
2531.67882 0.01962
2530.39305 0.01925
2529.10728 0.01878
2527.82151 0.01835
2526.53574 0.01790
2525.24998 0.01747
2523.96421 0.01722
2522.67844 0.01725
2521.39267 0.01742
2520.10690 0.01753
2518.82113 0.01750
2517.53536 0.01747
2516.24959 0.01759
2514.96383 0.01779
2513.67806 0.01789
2512.39229 0.01781
2511.10652 0.01764
2509.82075 0.01755
2508.53498 0.01768
2507.24921 0.01807
2505.96344 0.01866
2504.67767 0.01917
2503.39191 0.01927
2502.10614 0.01883
2500.82037 0.01811
2499.53460 0.01768
2498.24883 0.01783
2496.96306 0.01825
2495.67729 0.01835
2494.39152 0.01798
2493.10576 0.01751
2491.81999 0.01741
2490.53422 0.01771
2489.24845 0.01813
2487.96268 0.01843
2486.67691 0.01859
2485.39114 0.01870
2484.10537 0.01877
2482.81960 0.01871
2481.53384 0.01845
2480.24807 0.01803
2478.96230 0.01756
2477.67653 0.01722
2476.39076 0.01718
2475.10499 0.01750
2473.81922 0.01805
2472.53345 0.01850
2471.24769 0.01858
2469.96192 0.01828
2468.67615 0.01784
2467.39038 0.01748
2466.10461 0.01728
2464.81884 0.01720
2463.53307 0.01719
2462.24730 0.01727
2460.96153 0.01751
2459.67577 0.01786
2458.39000 0.01818
2457.10423 0.01824
2455.81846 0.01805
2454.53269 0.01776
2453.24692 0.01755
2451.96115 0.01750
2450.67538 0.01762
2449.38962 0.01789
2448.10385 0.01816
2446.81808 0.01816
2445.53231 0.01784
2444.24654 0.01736
2442.96077 0.01696
2441.67500 0.01681
2440.38923 0.01689
2439.10346 0.01707
2437.81770 0.01718
2436.53193 0.01719
2435.24616 0.01717
2433.96039 0.01721
2432.67462 0.01727
2431.38885 0.01727
2430.10308 0.01715
2428.81731 0.01692
2427.53155 0.01668
2426.24578 0.01655
2424.96001 0.01659
2423.67424 0.01671
2422.38847 0.01687
2421.10270 0.01703
2419.81693 0.01713
2418.53116 0.01707
2417.24539 0.01675
2415.95963 0.01622
2414.67386 0.01566
2413.38809 0.01527
2412.10232 0.01516
2410.81655 0.01533
2409.53078 0.01571
2408.24501 0.01616
2406.95924 0.01651
2405.67347 0.01659
2404.38771 0.01645
2403.10194 0.01625
2401.81617 0.01617
2400.53040 0.01619
2399.24463 0.01619
2397.95886 0.01603
2396.67309 0.01573
2395.38732 0.01538
2394.10156 0.01515
2392.81579 0.01518
2391.53002 0.01543
2390.24425 0.01576
2388.95848 0.01598
2387.67271 0.01600
2386.38694 0.01594
2385.10117 0.01597
2383.81540 0.01623
2382.52964 0.01671
2381.24387 0.01724
2379.95810 0.01761
2378.67233 0.01773
2377.38656 0.01763
2376.10079 0.01743
2374.81502 0.01722
2373.52925 0.01697
2372.24349 0.01663
2370.95772 0.01628
2369.67195 0.01606
2368.38618 0.01607
2367.10041 0.01626
2365.81464 0.01657
2364.52887 0.01685
2363.24310 0.01693
2361.95733 0.01676
2360.67157 0.01634
2359.38580 0.01599
2358.10003 0.01596
2356.81426 0.01627
2355.52849 0.01678
2354.24272 0.01733
2352.95695 0.01764
2351.67118 0.01747
2350.38542 0.01702
2349.09965 0.01672
2347.81388 0.01666
2346.52811 0.01656
2345.24234 0.01659
2343.95657 0.01715
2342.67080 0.01783
2341.38503 0.01757
2340.09926 0.01655
2338.81350 0.01636
2337.52773 0.01709
2336.24196 0.01708
2334.95619 0.01650
2333.67042 0.01689
2332.38465 0.01766
2331.09888 0.01716
2329.81311 0.01660
2328.52735 0.01715
2327.24158 0.01725
2325.95581 0.01707
2324.67004 0.01763
2323.38427 0.01788
2322.09850 0.01747
2320.81273 0.01739
2319.52696 0.01713
2318.24119 0.01681
2316.95543 0.01701
2315.66966 0.01715
2314.38389 0.01712
2313.09812 0.01707
2311.81235 0.01669
2310.52658 0.01631
2309.24081 0.01608
2307.95504 0.01593
2306.66928 0.01598
2305.38351 0.01598
2304.09774 0.01588
2302.81197 0.01571
2301.52620 0.01554
2300.24043 0.01552
2298.95466 0.01557
2297.66889 0.01562
2296.38312 0.01563
2295.09736 0.01563
2293.81159 0.01566
2292.52582 0.01567
2291.24005 0.01563
2289.95428 0.01551
2288.66851 0.01528
2287.38274 0.01495
2286.09697 0.01457
2284.81121 0.01427
2283.52544 0.01423
2282.23967 0.01458
2280.95390 0.01519
2279.66813 0.01570
2278.38236 0.01577
2277.09659 0.01538
2275.81082 0.01477
2274.52505 0.01413
2273.23929 0.01347
2271.95352 0.01275
2270.66775 0.01212
2269.38198 0.01183
2268.09621 0.01202
2266.81044 0.01247
2265.52467 0.01281
2264.23890 0.01276
2262.95314 0.01242
2261.66737 0.01221
2260.38160 0.01252
2259.09583 0.01329
2257.81006 0.01400
2256.52429 0.01422
2255.23852 0.01394
2253.95275 0.01346
2252.66698 0.01304
2251.38122 0.01285
2250.09545 0.01290
2248.80968 0.01308
2247.52391 0.01310
2246.23814 0.01273
2244.95237 0.01212
2243.66660 0.01167
2242.38083 0.01165
2241.09507 0.01202
2239.80930 0.01260
2238.52353 0.01315
2237.23776 0.01331
2235.95199 0.01287
2234.66622 0.01215
2233.38045 0.01176
2232.09468 0.01198
2230.80891 0.01234
2229.52315 0.01223
2228.23738 0.01161
2226.95161 0.01086
2225.66584 0.01020
2224.38007 0.00962
2223.09430 0.00917
2221.80853 0.00912
2220.52276 0.00963
2219.23700 0.01056
2217.95123 0.01147
2216.66546 0.01188
2215.37969 0.01150
2214.09392 0.01041
2212.80815 0.00910
2211.52238 0.00828
2210.23661 0.00840
2208.95084 0.00939
2207.66508 0.01075
2206.37931 0.01204
2205.09354 0.01301
2203.80777 0.01352
2202.52200 0.01349
2201.23623 0.01314
2199.95046 0.01280
2198.66469 0.01261
2197.37893 0.01239
2196.09316 0.01186
2194.80739 0.01077
2193.52162 0.00911
2192.23585 0.00718
2190.95008 0.00563
2189.66431 0.00506
2188.37854 0.00555
2187.09277 0.00680
2185.80701 0.00830
2184.52124 0.00954
2183.23547 0.01017
2181.94970 0.01009
2180.66393 0.00953
2179.37816 0.00895
2178.09239 0.00869
2176.80662 0.00884
2175.52085 0.00913
2174.23509 0.00932
2172.94932 0.00934
2171.66355 0.00927
2170.37778 0.00923
2169.09201 0.00935
2167.80624 0.00959
2166.52047 0.00955
2165.23470 0.00893
2163.94894 0.00806
2162.66317 0.00755
2161.37740 0.00748
2160.09163 0.00731
2158.80586 0.00663
2157.52009 0.00557
2156.23432 0.00447
2154.94855 0.00360
2153.66278 0.00313
2152.37702 0.00312
2151.09125 0.00348
2149.80548 0.00410
2148.51971 0.00486
2147.23394 0.00550
2145.94817 0.00566
2144.66240 0.00521
2143.37663 0.00449
2142.09087 0.00405
2140.80510 0.00424
2139.51933 0.00497
2138.23356 0.00583
2136.94779 0.00650
2135.66202 0.00689
2134.37625 0.00707
2133.09048 0.00709
2131.80471 0.00700
2130.51895 0.00700
2129.23318 0.00731
2127.94741 0.00794
2126.66164 0.00869
2125.37587 0.00925
2124.09010 0.00944
2122.80433 0.00932
2121.51856 0.00920
2120.23280 0.00923
2118.94703 0.00930
2117.66126 0.00931
2116.37549 0.00949
2115.08972 0.01019
2113.80395 0.01127
2112.51818 0.01212
2111.23241 0.01217
2109.94664 0.01136
2108.66088 0.01009
2107.37511 0.00893
2106.08934 0.00826
2104.80357 0.00804
2103.51780 0.00788
2102.23203 0.00751
2100.94626 0.00722
2099.66049 0.00826
2098.37473 0.00920
2097.08896 0.00961
2095.80319 0.00945
2094.51742 0.00883
2093.23165 0.00816
2091.94588 0.00782
2090.66011 0.00795
2089.37434 0.00837
2088.08857 0.00880
2086.80281 0.00910
2085.51704 0.00929
2084.23127 0.00943
2082.94550 0.00948
2081.65973 0.00929
2080.37396 0.00883
2079.08819 0.00826
2077.80242 0.00789
2076.51666 0.00794
2075.23089 0.00825
2073.94512 0.00832
2072.65935 0.00774
2071.37358 0.00668
2070.08781 0.00580
2068.80204 0.00572
2067.51627 0.00648
2066.23050 0.00756
2064.94474 0.00832
2063.65897 0.00848
2062.37320 0.00807
2061.08743 0.00728
2059.80166 0.00637
2058.51589 0.00563
2057.23012 0.00525
2055.94435 0.00519
2054.65859 0.00525
2053.37282 0.00533
2052.08705 0.00546
2050.80128 0.00571
2049.51551 0.00608
2048.22974 0.00647
2046.94397 0.00665
2045.65820 0.00636
2044.37243 0.00561
2043.08667 0.00476
2041.80090 0.00415
2040.51513 0.00393
2039.22936 0.00422
2037.94359 0.00506
2036.65782 0.00613
2035.37205 0.00676
2034.08628 0.00654
2032.80052 0.00576
2031.51475 0.00508
2030.22898 0.00489
2028.94321 0.00490
2027.65744 0.00458
2026.37167 0.00374
2025.08590 0.00287
2023.80013 0.00259
2022.51436 0.00299
2021.22860 0.00358
2019.94283 0.00400
2018.65706 0.00428
2017.37129 0.00461
2016.08552 0.00504
2014.79975 0.00553
2013.51398 0.00602
2012.22821 0.00636
2010.94245 0.00638
2009.65668 0.00617
2008.37091 0.00603
2007.08514 0.00614
2005.79937 0.00638
2004.51360 0.00655
2003.22783 0.00659
2001.94206 0.00659
2000.65629 0.00655
1999.37053 0.00641
1998.08476 0.00616
1996.79899 0.00591
1995.51322 0.00574
1994.22745 0.00559
1992.94168 0.00534
1991.65591 0.00517
1990.37014 0.00535
1989.08438 0.00588
1987.79861 0.00642
1986.51284 0.00670
1985.22707 0.00688
1983.94130 0.00726
1982.65553 0.00780
1981.36976 0.00821
1980.08399 0.00836
1978.79822 0.00841
1977.51246 0.00860
1976.22669 0.00905
1974.94092 0.00972
1973.65515 0.01038
1972.36938 0.01067
1971.08361 0.01034
1969.79784 0.00955
1968.51207 0.00884
1967.22631 0.00867
1965.94054 0.00900
1964.65477 0.00933
1963.36900 0.00904
1962.08323 0.00801
1960.79746 0.00683
1959.51169 0.00630
1958.22592 0.00666
1956.94015 0.00739
1955.65439 0.00779
1954.36862 0.00774
1953.08285 0.00757
1951.79708 0.00756
1950.51131 0.00761
1949.22554 0.00757
1947.93977 0.00761
1946.65400 0.00799
1945.36823 0.00868
1944.08247 0.00942
1942.79670 0.00995
1941.51093 0.01014
1940.22516 0.00994
1938.93939 0.00944
1937.65362 0.00885
1936.36785 0.00839
1935.08208 0.00814
1933.79632 0.00807
1932.51055 0.00817
1931.22478 0.00855
1929.93901 0.00922
1928.65324 0.00999
1927.36747 0.01061
1926.08170 0.01088
1924.79593 0.01083
1923.51016 0.01056
1922.22440 0.01012
1920.93863 0.00949
1919.65286 0.00876
1918.36709 0.00829
1917.08132 0.00841
1915.79555 0.00912
1914.50978 0.00997
1913.22401 0.01046
1911.93825 0.01035
1910.65248 0.00983
1909.36671 0.00925
1908.08094 0.00884
1906.79517 0.00868
1905.50940 0.00872
1904.22363 0.00899
1902.93786 0.00944
1901.65209 0.00983
1900.36633 0.00989
1899.08056 0.00959
1897.79479 0.00920
1896.50902 0.00905
1895.22325 0.00917
1893.93748 0.00941
1892.65171 0.00961
1891.36594 0.00976
1890.08018 0.00987
1888.79441 0.00992
1887.50864 0.00994
1886.22287 0.00995
1884.93710 0.00998
1883.65133 0.00998
1882.36556 0.00993
1881.07979 0.00988
1879.79402 0.00989
1878.50826 0.01000
1877.22249 0.01020
1875.93672 0.01037
1874.65095 0.01043
1873.36518 0.01036
1872.07941 0.01027
1870.79364 0.01029
1869.50787 0.01044
1868.22211 0.01064
1866.93634 0.01075
1865.65057 0.01064
1864.36480 0.01035
1863.07903 0.01004
1861.79326 0.00990
1860.50749 0.00999
1859.22172 0.01022
1857.93595 0.01045
1856.65019 0.01059
1855.36442 0.01060
1854.07865 0.01053
1852.79288 0.01044
1851.50711 0.01040
1850.22134 0.01043
1848.93557 0.01053
1847.64980 0.01068
1846.36404 0.01076
1845.07827 0.01070
1843.79250 0.01055
1842.50673 0.01042
1841.22096 0.01036
1839.93519 0.01030
1838.64942 0.01018
1837.36365 0.01003
1836.07788 0.00993
1834.79212 0.00991
1833.50635 0.00997
1832.22058 0.01002
1830.93481 0.01005
1829.64904 0.01010
1828.36327 0.01018
1827.07750 0.01029
1825.79173 0.01039
1824.50597 0.01050
1823.22020 0.01059
1821.93443 0.01066
1820.64866 0.01072
1819.36289 0.01078
1818.07712 0.01073
1816.79135 0.01052
1815.50558 0.01018
1814.21981 0.00987
1812.93405 0.00971
1811.64828 0.00973
1810.36251 0.00989
1809.07674 0.01011
1807.79097 0.01030
1806.50520 0.01038
1805.21943 0.01035
1803.93366 0.01024
1802.64790 0.01012
1801.36213 0.01006
1800.07636 0.01009
1798.79059 0.01014
1797.50482 0.01014
1796.21905 0.01010
1794.93328 0.01008
1793.64751 0.01020
1792.36174 0.01046
1791.07598 0.01078
1789.79021 0.01102
1788.50444 0.01112
1787.21867 0.01114
1785.93290 0.01114
1784.64713 0.01113
1783.36136 0.01112
1782.07559 0.01107
1780.78983 0.01100
1779.50406 0.01093
1778.21829 0.01088
1776.93252 0.01086
1775.64675 0.01084
1774.36098 0.01083
1773.07521 0.01085
1771.78944 0.01094
1770.50367 0.01104
1769.21791 0.01106
1767.93214 0.01105
1766.64637 0.01107
1765.36060 0.01113
1764.07483 0.01117
1762.78906 0.01122
1761.50329 0.01130
1760.21752 0.01134
1758.93176 0.01125
1757.64599 0.01107
1756.36022 0.01099
1755.07445 0.01112
1753.78868 0.01134
1752.50291 0.01150
1751.21714 0.01159
1749.93137 0.01162
1748.64560 0.01162
1747.35984 0.01159
1746.07407 0.01158
1744.78830 0.01164
1743.50253 0.01173
1742.21676 0.01179
1740.93099 0.01175
1739.64522 0.01170
1738.35945 0.01173
1737.07369 0.01184
1735.78792 0.01190
1734.50215 0.01190
1733.21638 0.01190
1731.93061 0.01191
1730.64484 0.01188
1729.35907 0.01185
1728.07330 0.01192
1726.78753 0.01202
1725.50177 0.01205
1724.21600 0.01201
1722.93023 0.01200
1721.64446 0.01212
1720.35869 0.01232
1719.07292 0.01254
1717.78715 0.01278
1716.50138 0.01305
1715.21561 0.01325
1713.92985 0.01334
1712.64408 0.01340
1711.35831 0.01352
1710.07254 0.01373
1708.78677 0.01397
1707.50100 0.01416
1706.21523 0.01431
1704.92946 0.01456
1703.64370 0.01493
1702.35793 0.01529
1701.07216 0.01558
1699.78639 0.01588
1698.50062 0.01613
1697.21485 0.01616
1695.92908 0.01608
1694.64331 0.01607
1693.35754 0.01612
1692.07178 0.01608
1690.78601 0.01602
1689.50024 0.01612
1688.21447 0.01640
1686.92870 0.01670
1685.64293 0.01690
1684.35716 0.01705
1683.07139 0.01720
1681.78563 0.01726
1680.49986 0.01725
1679.21409 0.01730
1677.92832 0.01747
1676.64255 0.01769
1675.35678 0.01795
1674.07101 0.01825
1672.78524 0.01850
1671.49947 0.01859
1670.21371 0.01852
1668.92794 0.01844
1667.64217 0.01844
1666.35640 0.01858
1665.07063 0.01878
1663.78486 0.01900
1662.49909 0.01921
1661.21332 0.01939
1659.92756 0.01950
1658.64179 0.01963
1657.35602 0.01988
1656.07025 0.02023
1654.78448 0.02050
1653.49871 0.02066
1652.21294 0.02078
1650.92717 0.02085
1649.64140 0.02074
1648.35564 0.02052
1647.06987 0.02036
1645.78410 0.02034
1644.49833 0.02038
1643.21256 0.02041
1641.92679 0.02045
1640.64102 0.02056
1639.35525 0.02072
1638.06949 0.02082
1636.78372 0.02080
1635.49795 0.02075
1634.21218 0.02072
1632.92641 0.02067
1631.64064 0.02054
1630.35487 0.02043
1629.06910 0.02046
1627.78333 0.02062
1626.49757 0.02083
1625.21180 0.02097
1623.92603 0.02100
1622.64026 0.02098
1621.35449 0.02101
1620.06872 0.02107
1618.78295 0.02111
1617.49718 0.02113
1616.21142 0.02118
1614.92565 0.02127
1613.63988 0.02131
1612.35411 0.02131
1611.06834 0.02134
1609.78257 0.02142
1608.49680 0.02151
1607.21103 0.02163
1605.92526 0.02177
1604.63950 0.02191
1603.35373 0.02203
1602.06796 0.02214
1600.78219 0.02227
1599.49642 0.02243
1598.21065 0.02262
1596.92488 0.02281
1595.63911 0.02297
1594.35335 0.02308
1593.06758 0.02316
1591.78181 0.02322
1590.49604 0.02329
1589.21027 0.02335
1587.92450 0.02341
1586.63873 0.02352
1585.35296 0.02371
1584.06719 0.02400
1582.78143 0.02435
1581.49566 0.02475
1580.20989 0.02519
1578.92412 0.02559
1577.63835 0.02586
1576.35258 0.02606
1575.06681 0.02626
1573.78104 0.02646
1572.49528 0.02664
1571.20951 0.02684
1569.92374 0.02712
1568.63797 0.02745
1567.35220 0.02772
1566.06643 0.02789
1564.78066 0.02811
1563.49489 0.02848
1562.20912 0.02895
1560.92336 0.02936
1559.63759 0.02971
1558.35182 0.03004
1557.06605 0.03030
1555.78028 0.03040
1554.49451 0.03042
1553.20874 0.03054
1551.92297 0.03074
1550.63721 0.03093
1549.35144 0.03107
1548.06567 0.03118
1546.77990 0.03126
1545.49413 0.03133
1544.20836 0.03145
1542.92259 0.03161
1541.63682 0.03173
1540.35105 0.03174
1539.06529 0.03168
1537.77952 0.03161
1536.49375 0.03152
1535.20798 0.03143
1533.92221 0.03145
1532.63644 0.03163
1531.35067 0.03191
1530.06490 0.03221
1528.77914 0.03255
1527.49337 0.03297
1526.20760 0.03350
1524.92183 0.03410
1523.63606 0.03465
1522.35029 0.03514
1521.06452 0.03567
1519.77875 0.03633
1518.49298 0.03705
1517.20722 0.03778
1515.92145 0.03852
1514.63568 0.03926
1513.34991 0.04002
1512.06414 0.04088
1510.77837 0.04191
1509.49260 0.04301
1508.20683 0.04405
1506.92107 0.04498
1505.63530 0.04587
1504.34953 0.04672
1503.06376 0.04750
1501.77799 0.04824
1500.49222 0.04903
1499.20645 0.04981
1497.92068 0.05053
1496.63491 0.05116
1495.34915 0.05178
1494.06338 0.05241
1492.77761 0.05302
1491.49184 0.05361
1490.20607 0.05425
1488.92030 0.05495
1487.63453 0.05569
1486.34876 0.05644
1485.06299 0.05723
1483.77723 0.05806
1482.49146 0.05893
1481.20569 0.05985
1479.91992 0.06080
1478.63415 0.06175
1477.34838 0.06265
1476.06261 0.06350
1474.77684 0.06423
1473.49108 0.06480
1472.20531 0.06524
1470.91954 0.06565
1469.63377 0.06609
1468.34800 0.06652
1467.06223 0.06688
1465.77646 0.06713
1464.49069 0.06732
1463.20492 0.06754
1461.91916 0.06785
1460.63339 0.06828
1459.34762 0.06872
1458.06185 0.06911
1456.77608 0.06946
1455.49031 0.06980
1454.20454 0.07009
1452.91877 0.07031
1451.63301 0.07052
1450.34724 0.07076
1449.06147 0.07099
1447.77570 0.07115
1446.48993 0.07124
1445.20416 0.07125
1443.91839 0.07121
1442.63262 0.07114
1441.34685 0.07106
1440.06109 0.07094
1438.77532 0.07076
1437.48955 0.07063
1436.20378 0.07063
1434.91801 0.07079
1433.63224 0.07102
1432.34647 0.07129
1431.06070 0.07166
1429.77494 0.07219
1428.48917 0.07288
1427.20340 0.07368
1425.91763 0.07456
1424.63186 0.07551
1423.34609 0.07650
1422.06032 0.07746
1420.77455 0.07830
1419.48878 0.07902
1418.20302 0.07967
1416.91725 0.08022
1415.63148 0.08063
1414.34571 0.08088
1413.05994 0.08100
1411.77417 0.08098
1410.48840 0.08080
1409.20263 0.08047
1407.91687 0.07998
1406.63110 0.07934
1405.34533 0.07856
1404.05956 0.07766
1402.77379 0.07664
1401.48802 0.07549
1400.20225 0.07424
1398.91648 0.07292
1397.63071 0.07154
1396.34495 0.07005
1395.05918 0.06847
1393.77341 0.06686
1392.48764 0.06526
1391.20187 0.06371
1389.91610 0.06222
1388.63033 0.06079
1387.34456 0.05943
1386.05880 0.05811
1384.77303 0.05678
1383.48726 0.05541
1382.20149 0.05407
1380.91572 0.05282
1379.62995 0.05163
1378.34418 0.05043
1377.05841 0.04913
1375.77264 0.04768
1374.48688 0.04614
1373.20111 0.04456
1371.91534 0.04300
1370.62957 0.04152
1369.34380 0.04015
1368.05803 0.03893
1366.77226 0.03782
1365.48649 0.03673
1364.20073 0.03562
1362.91496 0.03450
1361.62919 0.03343
1360.34342 0.03243
1359.05765 0.03151
1357.77188 0.03067
1356.48611 0.02991
1355.20034 0.02921
1353.91457 0.02856
1352.62881 0.02793
1351.34304 0.02734
1350.05727 0.02677
1348.77150 0.02621
1347.48573 0.02566
1346.19996 0.02512
1344.91419 0.02465
1343.62842 0.02426
1342.34266 0.02396
1341.05689 0.02371
1339.77112 0.02344
1338.48535 0.02313
1337.19958 0.02278
1335.91381 0.02246
1334.62804 0.02218
1333.34227 0.02192
1332.05650 0.02164
1330.77074 0.02136
1329.48497 0.02110
1328.19920 0.02090
1326.91343 0.02076
1325.62766 0.02067
1324.34189 0.02056
1323.05612 0.02038
1321.77035 0.02011
1320.48459 0.01979
1319.19882 0.01948
1317.91305 0.01923
1316.62728 0.01905
1315.34151 0.01895
1314.05574 0.01887
1312.76997 0.01879
1311.48420 0.01868
1310.19843 0.01853
1308.91267 0.01838
1307.62690 0.01824
1306.34113 0.01813
1305.05536 0.01802
1303.76959 0.01791
1302.48382 0.01783
1301.19805 0.01777
1299.91228 0.01773
1298.62652 0.01769
1297.34075 0.01760
1296.05498 0.01746
1294.76921 0.01730
1293.48344 0.01714
1292.19767 0.01698
1290.91190 0.01683
1289.62613 0.01664
1288.34036 0.01643
1287.05460 0.01623
1285.76883 0.01611
1284.48306 0.01607
1283.19729 0.01606
1281.91152 0.01601
1280.62575 0.01591
1279.33998 0.01578
1278.05421 0.01570
1276.76845 0.01567
1275.48268 0.01564
1274.19691 0.01558
1272.91114 0.01549
1271.62537 0.01537
1270.33960 0.01523
1269.05383 0.01508
1267.76806 0.01492
1266.48229 0.01477
1265.19653 0.01465
1263.91076 0.01456
1262.62499 0.01448
1261.33922 0.01437
1260.05345 0.01427
1258.76768 0.01420
1257.48191 0.01417
1256.19614 0.01418
1254.91037 0.01419
1253.62461 0.01416
1252.33884 0.01409
1251.05307 0.01399
1249.76730 0.01390
1248.48153 0.01386
1247.19576 0.01385
1245.90999 0.01384
1244.62422 0.01381
1243.33846 0.01374
1242.05269 0.01367
1240.76692 0.01360
1239.48115 0.01356
1238.19538 0.01353
1236.90961 0.01348
1235.62384 0.01339
1234.33807 0.01327
1233.05230 0.01315
1231.76654 0.01305
1230.48077 0.01295
1229.19500 0.01286
1227.90923 0.01279
1226.62346 0.01278
1225.33769 0.01282
1224.05192 0.01290
1222.76615 0.01295
1221.48039 0.01294
1220.19462 0.01289
1218.90885 0.01283
1217.62308 0.01275
1216.33731 0.01265
1215.05154 0.01253
1213.76577 0.01244
1212.48000 0.01242
1211.19423 0.01248
1209.90847 0.01255
1208.62270 0.01257
1207.33693 0.01253
1206.05116 0.01248
1204.76539 0.01246
1203.47962 0.01249
1202.19385 0.01252
1200.90808 0.01248
1199.62232 0.01237
1198.33655 0.01242
1197.05078 0.01248
1195.76501 0.01249
1194.47924 0.01245
1193.19347 0.01242
1191.90770 0.01245
1190.62193 0.01248
1189.33616 0.01244
1188.05040 0.01234
1186.76463 0.01227
1185.47886 0.01229
1184.19309 0.01236
1182.90732 0.01245
1181.62155 0.01250
1180.33578 0.01250
1179.05001 0.01245
1177.76425 0.01240
1176.47848 0.01237
1175.19271 0.01239
1173.90694 0.01245
1172.62117 0.01256
1171.33540 0.01274
1170.04963 0.01294
1168.76386 0.01308
1167.47809 0.01315
1166.19233 0.01319
1164.90656 0.01325
1163.62079 0.01332
1162.33502 0.01340
1161.04925 0.01348
1159.76348 0.01359
1158.47771 0.01378
1157.19194 0.01405
1155.90618 0.01436
1154.62041 0.01465
1153.33464 0.01485
1152.04887 0.01499
1150.76310 0.01512
1149.47733 0.01533
1148.19156 0.01563
1146.90579 0.01605
1145.62002 0.01653
1144.33426 0.01703
1143.04849 0.01754
1141.76272 0.01807
1140.47695 0.01864
1139.19118 0.01926
1137.90541 0.01992
1136.61964 0.02062
1135.33387 0.02142
1134.04811 0.02236
1132.76234 0.02353
1131.47657 0.02491
1130.19080 0.02645
1128.90503 0.02811
1127.61926 0.02989
1126.33349 0.03179
1125.04772 0.03380
1123.76195 0.03590
1122.47619 0.03806
1121.19042 0.04030
1119.90465 0.04265
1118.61888 0.04510
1117.33311 0.04761
1116.04734 0.05012
1114.76157 0.05261
1113.47580 0.05502
1112.19004 0.05738
1110.90427 0.05970
1109.61850 0.06203
1108.33273 0.06438
1107.04696 0.06669
1105.76119 0.06888
1104.47542 0.07092
1103.18965 0.07288
1101.90388 0.07483
1100.61812 0.07676
1099.33235 0.07862
1098.04658 0.08035
1096.76081 0.08195
1095.47504 0.08349
1094.18927 0.08498
1092.90350 0.08640
1091.61773 0.08770
1090.33197 0.08885
1089.04620 0.08990
1087.76043 0.09092
1086.47466 0.09198
1085.18889 0.09309
1083.90312 0.09421
1082.61735 0.09536
1081.33158 0.09662
1080.04581 0.09805
1078.76005 0.09967
1077.47428 0.10143
1076.18851 0.10326
1074.90274 0.10512
1073.61697 0.10702
1072.33120 0.10898
1071.04543 0.11100
1069.75966 0.11307
1068.47390 0.11515
1067.18813 0.11724
1065.90236 0.11938
1064.61659 0.12161
1063.33082 0.12390
1062.04505 0.12619
1060.75928 0.12839
1059.47351 0.13047
1058.18774 0.13249
1056.90198 0.13451
1055.61621 0.13654
1054.33044 0.13856
1053.04467 0.14053
1051.75890 0.14249
1050.47313 0.14450
1049.18736 0.14660
1047.90159 0.14874
1046.61583 0.15084
1045.33006 0.15288
1044.04429 0.15487
1042.75852 0.15690
1041.47275 0.15901
1040.18698 0.16121
1038.90121 0.16345
1037.61544 0.16564
1036.32967 0.16772
1035.04391 0.16969
1033.75814 0.17157
1032.47237 0.17334
1031.18660 0.17495
1029.90083 0.17633
1028.61506 0.17743
1027.32929 0.17825
1026.04352 0.17882
1024.75775 0.17916
1023.47199 0.17928
1022.18622 0.17917
1020.90045 0.17879
1019.61468 0.17811
1018.32891 0.17713
1017.04314 0.17584
1015.75737 0.17427
1014.47160 0.17242
1013.18584 0.17032
1011.90007 0.16793
1010.61430 0.16522
1009.32853 0.16220
1008.04276 0.15892
1006.75699 0.15544
1005.47122 0.15179
1004.18545 0.14798
1002.89968 0.14399
1001.61392 0.13983
1000.32815 0.13551
999.04238 0.13106
997.75661 0.12657
996.47084 0.12210
995.18507 0.11767
993.89930 0.11327
992.61353 0.10891
991.32777 0.10468
990.04200 0.10070
988.75623 0.09694
987.47046 0.09334
986.18469 0.08983
984.89892 0.08643
983.61315 0.08318
982.32738 0.08013
981.04161 0.07729
979.75585 0.07468
978.47008 0.07226
977.18431 0.07006
975.89854 0.06811
974.61277 0.06641
973.32700 0.06499
972.04123 0.06388
970.75546 0.06313
969.46970 0.06278
968.18393 0.06285
966.89816 0.06332
965.61239 0.06406
964.32662 0.06488
963.04085 0.06558
961.75508 0.06602
960.46931 0.06614
959.18354 0.06585
957.89778 0.06511
956.61201 0.06394
955.32624 0.06247
954.04047 0.06083
952.75470 0.05912
951.46893 0.05740
950.18316 0.05573
948.89739 0.05419
947.61163 0.05276
946.32586 0.05135
945.04009 0.04992
943.75432 0.04851
942.46855 0.04719
941.18278 0.04599
939.89701 0.04487
938.61124 0.04375
937.32547 0.04263
936.03971 0.04157
934.75394 0.04063
933.46817 0.03983
932.18240 0.03914
930.89663 0.03849
929.61086 0.03782
928.32509 0.03709
927.03932 0.03632
925.75356 0.03559
924.46779 0.03497
923.18202 0.03451
921.89625 0.03418
920.61048 0.03387
919.32471 0.03348
918.03894 0.03298
916.75317 0.03241
915.46740 0.03185
914.18164 0.03138
912.89587 0.03102
911.61010 0.03073
910.32433 0.03049
909.03856 0.03030
907.75279 0.03011
906.46702 0.02992
905.18125 0.02970
903.89549 0.02946
902.60972 0.02916
901.32395 0.02883
900.03818 0.02852
898.75241 0.02828
897.46664 0.02811
896.18087 0.02800
894.89510 0.02793
893.60933 0.02790
892.32357 0.02792
891.03780 0.02801
889.75203 0.02821
888.46626 0.02857
887.18049 0.02923
885.89472 0.03035
884.60895 0.03205
883.32318 0.03428
882.03742 0.03682
880.75165 0.03938
879.46588 0.04165
878.18011 0.04341
876.89434 0.04471
875.60857 0.04576
874.32280 0.04673
873.03703 0.04754
871.75126 0.04792
870.46550 0.04769
869.17973 0.04680
867.89396 0.04533
866.60819 0.04340
865.32242 0.04120
864.03665 0.03898
862.75088 0.03694
861.46511 0.03516
860.17935 0.03362
858.89358 0.03228
857.60781 0.03112
856.32204 0.03012
855.03627 0.02930
853.75050 0.02867
852.46473 0.02820
851.17896 0.02781
849.89319 0.02749
848.60743 0.02719
847.32166 0.02688
846.03589 0.02652
844.75012 0.02613
843.46435 0.02578
842.17858 0.02553
840.89281 0.02535
839.60704 0.02519
838.32128 0.02500
837.03551 0.02483
835.74974 0.02470
834.46397 0.02463
833.17820 0.02457
831.89243 0.02445
830.60666 0.02424
829.32089 0.02395
828.03512 0.02368
826.74936 0.02352
825.46359 0.02346
824.17782 0.02344
822.89205 0.02341
821.60628 0.02338
820.32051 0.02334
819.03474 0.02328
817.74897 0.02317
816.46321 0.02302
815.17744 0.02289
813.89167 0.02280
812.60590 0.02273
811.32013 0.02261
810.03436 0.02241
808.74859 0.02222
807.46282 0.02212
806.17705 0.02215
804.89129 0.02223
803.60552 0.02224
802.31975 0.02213
801.03398 0.02195
799.74821 0.02181
798.46244 0.02178
797.17667 0.02183
795.89090 0.02187
794.60513 0.02185
793.31937 0.02179
792.03360 0.02175
790.74783 0.02171
789.46206 0.02160
788.17629 0.02138
786.89052 0.02114
785.60475 0.02096
784.31898 0.02089
783.03322 0.02087
781.74745 0.02085
780.46168 0.02084
779.17591 0.02089
777.89014 0.02101
776.60437 0.02113
775.31860 0.02115
774.03283 0.02105
772.74706 0.02088
771.46130 0.02073
770.17553 0.02066
768.88976 0.02068
767.60399 0.02074
766.31822 0.02078
765.03245 0.02080
763.74668 0.02082
762.46091 0.02086
761.17515 0.02091
759.88938 0.02097
758.60361 0.02104
757.31784 0.02110
756.03207 0.02117
754.74630 0.02122
753.46053 0.02123
752.17476 0.02116
750.88899 0.02103
749.60323 0.02088
748.31746 0.02074
747.03169 0.02064
745.74592 0.02061
744.46015 0.02066
743.17438 0.02076
741.88861 0.02081
740.60284 0.02080
739.31708 0.02074
738.03131 0.02065
736.74554 0.02053
735.45977 0.02038
734.17400 0.02026
732.88823 0.02016
731.60246 0.02005
730.31669 0.01993
729.03092 0.01987
727.74516 0.01991
726.45939 0.02001
725.17362 0.02005
723.88785 0.01998
722.60208 0.01988
721.31631 0.01986
720.03054 0.01995
718.74477 0.02010
717.45901 0.02023
716.17324 0.02029
714.88747 0.02031
713.60170 0.02029
712.31593 0.02025
711.03016 0.02019
709.74439 0.02014
708.45862 0.02011
707.17285 0.02009
705.88709 0.02008
704.60132 0.02004
703.31555 0.01999
702.02978 0.01992
700.74401 0.01987
699.45824 0.01986
698.17247 0.01988
696.88670 0.01990
695.60094 0.01990
694.31517 0.01985
693.02940 0.01976
691.74363 0.01967
690.45786 0.01959
689.17209 0.01954
687.88632 0.01954
686.60055 0.01954
685.31478 0.01953
684.02902 0.01949
682.74325 0.01942
681.45748 0.01934
680.17171 0.01928
678.88594 0.01925
677.60017 0.01922
676.31440 0.01919
675.02863 0.01922
673.74287 0.01934
672.45710 0.01954
671.17133 0.01976
669.88556 0.01992
668.59979 0.02001
667.31402 0.02005
666.02825 0.01996
664.74248 0.01980
663.45671 0.01959
662.17095 0.01938
660.88518 0.01919
659.59941 0.01906
658.31364 0.01898
657.02787 0.01896
655.74210 0.01901
654.45633 0.01911
653.17056 0.01921
651.88480 0.01925
650.59903 0.01921
649.31326 0.01914
648.02749 0.01911
646.74172 0.01920
645.45595 0.01938
644.17018 0.01962
642.88441 0.01986
641.59864 0.02006
640.31288 0.02023
639.02711 0.02036
637.74134 0.02047
636.45557 0.02061
635.16980 0.02082
633.88403 0.02110
632.59826 0.02137
631.31249 0.02168
630.02673 0.02247
628.74096 0.02351
627.45519 0.02288
626.16942 0.02396
624.88365 0.02642
623.59788 0.02923
622.31211 0.03185
621.02634 0.03363
619.74057 0.03409
618.45481 0.03363
617.16904 0.03333
615.88327 0.03425
614.59750 0.03695
613.31173 0.04125
612.02596 0.04621
610.74019 0.05062
609.45442 0.05409
608.16866 0.05751
606.88289 0.06189
605.59712 0.06675
604.31135 0.07042
603.02558 0.07175
601.73981 0.07105
600.45404 0.06942
599.16827 0.06751
597.88250 0.06539
596.59674 0.06305
595.31097 0.06073
594.02520 0.05876
592.73943 0.05732
591.45366 0.05635
590.16789 0.05572
588.88212 0.05543
587.59635 0.05561
586.31059 0.05643
585.02482 0.05781
583.73905 0.05948
582.45328 0.06114
581.16751 0.06265
579.88174 0.06411
578.59597 0.06565
577.31020 0.06735
576.02443 0.06920
574.73867 0.07111
573.45290 0.07297
572.16713 0.07477
570.88136 0.07666
569.59559 0.07887
568.30982 0.08147
567.02405 0.08422
565.73828 0.08674
564.45251 0.08867
563.16675 0.08977
561.88098 0.08985
560.59521 0.08875
559.30944 0.08646
558.02367 0.08317
556.73790 0.07921
555.45213 0.07489
554.16636 0.07041
552.88060 0.06598
551.59483 0.06182
550.30906 0.05811
549.02329 0.05492
547.73752 0.05214
546.45175 0.04963
545.16598 0.04730
543.88021 0.04509
542.59444 0.04297
541.30868 0.04095
540.02291 0.03913
538.73714 0.03763
537.45137 0.03646
536.16560 0.03552
534.87983 0.03465
533.59406 0.03378
532.30829 0.03292
531.02253 0.03215
529.73676 0.03148
528.45099 0.03082
527.16522 0.03009
525.87945 0.02930
524.59368 0.02855
523.30791 0.02791
522.02214 0.02736
520.73637 0.02681
519.45061 0.02619
518.16484 0.02555
516.87907 0.02500
515.59330 0.02454
514.30753 0.02413
513.02176 0.02370
511.73599 0.02329
510.45022 0.02294
509.16446 0.02265
507.87869 0.02239
506.59292 0.02212
505.30715 0.02183
504.02138 0.02153
502.73561 0.02122
501.44984 0.02089
500.16407 0.02057
498.87830 0.02029
497.59254 0.02010
496.30677 0.01999
495.02100 0.01989
493.73523 0.01970
492.44946 0.01942
491.16369 0.01913
489.87792 0.01891
488.59215 0.01878
487.30639 0.01871
486.02062 0.01869
484.73485 0.01875
483.44908 0.01894
482.16331 0.01922
480.87754 0.01946
479.59177 0.01955
478.30600 0.01953
477.02023 0.01952
475.73447 0.01960
474.44870 0.01975
473.16293 0.01992
471.87716 0.02006
470.59139 0.02012
469.30562 0.02005
468.01985 0.01988
466.73408 0.01971
465.44832 0.01958
464.16255 0.01945
462.87678 0.01925
461.59101 0.01900
460.30524 0.01874
459.01947 0.01854
457.73370 0.01838
456.44793 0.01819
455.16216 0.01795
453.87640 0.01771
452.59063 0.01752
451.30486 0.01738
450.01909 0.01722
448.73332 0.01700
447.44755 0.01678
446.16178 0.01667
444.87601 0.01670
443.59025 0.01676
442.30448 0.01673
441.01871 0.01657
439.73294 0.01638
438.44717 0.01628
437.16140 0.01629
435.87563 0.01636
434.58986 0.01640
433.30409 0.01638
432.01833 0.01631
430.73256 0.01624
429.44679 0.01618
428.16102 0.01614
426.87525 0.01612
425.58948 0.01610
424.30371 0.01607
423.01794 0.01600
421.73218 0.01588
420.44641 0.01577
419.16064 0.01573
417.87487 0.01575
416.58910 0.01577
415.30333 0.01576
414.01756 0.01577
412.73179 0.01578
411.44602 0.01575
410.16026 0.01567
408.87449 0.01560
407.58872 0.01562
406.30295 0.01571
405.01718 0.01584
403.73141 0.01598
402.44564 0.01611
401.15987 0.01625
399.87411 0.01640
