3997.45528	0.04973
3996.16951	0.05064
3994.88374	0.05120
3993.59798	0.05099
3992.31221	0.04982
3991.02644	0.04806
3989.74067	0.04648
3988.45490	0.04576
3987.16913	0.04596
3985.88336	0.04660
3984.59759	0.04723
3983.31183	0.04773
3982.02606	0.04815
3980.74029	0.04849
3979.45452	0.04862
3978.16875	0.04849
3976.88298	0.04830
3975.59721	0.04831
3974.31144	0.04858
3973.02567	0.04881
3971.73991	0.04865
3970.45414	0.04806
3969.16837	0.04741
3967.88260	0.04726
3966.59683	0.04789
3965.31106	0.04906
3964.02529	0.05018
3962.73952	0.05073
3961.45376	0.05049
3960.16799	0.04960
3958.88222	0.04836
3957.59645	0.04724
3956.31068	0.04671
3955.02491	0.04699
3953.73914	0.04787
3952.45337	0.04893
3951.16760	0.04984
3949.88184	0.05055
3948.59607	0.05108
3947.31030	0.05131
3946.02453	0.05109
3944.73876	0.05047
3943.45299	0.04972
3942.16722	0.04915
3940.88145	0.04895
3939.59569	0.04906
3938.30992	0.04925
3937.02415	0.04940
3935.73838	0.04949
3934.45261	0.04952
3933.16684	0.04939
3931.88107	0.04906
3930.59530	0.04855
3929.30953	0.04793
3928.02377	0.04738
3926.73800	0.04712
3925.45223	0.04729
3924.16646	0.04776
3922.88069	0.04822
3921.59492	0.04850
3920.30915	0.04854
3919.02338	0.04834
3917.73762	0.04788
3916.45185	0.04725
3915.16608	0.04668
3913.88031	0.04643
3912.59454	0.04653
3911.30877	0.04678
3910.02300	0.04691
3908.73723	0.04683
3907.45146	0.04661
3906.16570	0.04637
3904.87993	0.04617
3903.59416	0.04609
3902.30839	0.04618
3901.02262	0.04644
3899.73685	0.04680
3898.45108	0.04713
3897.16531	0.04727
3895.87955	0.04716
3894.59378	0.04690
3893.30801	0.04685
3892.02224	0.04725
3890.73647	0.04794
3889.45070	0.04853
3888.16493	0.04880
3886.87916	0.04868
3885.59339	0.04802
3884.30763	0.04685
3883.02186	0.04560
3881.73609	0.04487
3880.45032	0.04483
3879.16455	0.04515
3877.87878	0.04549
3876.59301	0.04571
3875.30724	0.04575
3874.02148	0.04552
3872.73571	0.04512
3871.44994	0.04493
3870.16417	0.04517
3868.87840	0.04575
3867.59263	0.04639
3866.30686	0.04680
3865.02109	0.04684
3863.73532	0.04664
3862.44956	0.04648
3861.16379	0.04646
3859.87802	0.04641
3858.59225	0.04623
3857.30648	0.04604
3856.02071	0.04603
3854.73494	0.04617
3853.44917	0.04618
3852.16341	0.04590
3850.87764	0.04545
3849.59187	0.04508
3848.30610	0.04499
3847.02033	0.04523
3845.73456	0.04574
3844.44879	0.04630
3843.16302	0.04661
3841.87725	0.04648
3840.59149	0.04592
3839.30572	0.04527
3838.01995	0.04491
3836.73418	0.04508
3835.44841	0.04568
3834.16264	0.04630
3832.87687	0.04656
3831.59110	0.04640
3830.30534	0.04616
3829.01957	0.04610
3827.73380	0.04611
3826.44803	0.04595
3825.16226	0.04566
3823.87649	0.04552
3822.59072	0.04558
3821.30495	0.04550
3820.01918	0.04503
3818.73342	0.04430
3817.44765	0.04354
3816.16188	0.04281
3814.87611	0.04234
3813.59034	0.04243
3812.30457	0.04295
3811.01880	0.04329
3809.73303	0.04317
3808.44726	0.04290
3807.16150	0.04297
3805.87573	0.04351
3804.58996	0.04438
3803.30419	0.04536
3802.01842	0.04606
3800.73265	0.04618
3799.44688	0.04580
3798.16111	0.04529
3796.87535	0.04486
3795.58958	0.04449
3794.30381	0.04415
3793.01804	0.04387
3791.73227	0.04365
3790.44650	0.04343
3789.16073	0.04313
3787.87496	0.04271
3786.58919	0.04222
3785.30343	0.04175
3784.01766	0.04140
3782.73189	0.04128
3781.44612	0.04146
3780.16035	0.04186
3778.87458	0.04237
3777.58881	0.04295
3776.30304	0.04364
3775.01728	0.04432
3773.73151	0.04474
3772.44574	0.04482
3771.15997	0.04468
3769.87420	0.04444
3768.58843	0.04405
3767.30266	0.04347
3766.01689	0.04282
3764.73112	0.04220
3763.44536	0.04170
3762.15959	0.04131
3760.87382	0.04103
3759.58805	0.04089
3758.30228	0.04103
3757.01651	0.04149
3755.73074	0.04214
3754.44497	0.04277
3753.15921	0.04328
3751.87344	0.04375
3750.58767	0.04426
3749.30190	0.04472
3748.01613	0.04495
3746.73036	0.04491
3745.44459	0.04449
3744.15882	0.04353
3742.87305	0.04232
3741.58729	0.04145
3740.30152	0.04107
3739.01575	0.04093
3737.72998	0.04093
3736.44421	0.04110
3735.15844	0.04138
3733.87267	0.04156
3732.58690	0.04146
3731.30114	0.04108
3730.01537	0.04067
3728.72960	0.04057
3727.44383	0.04087
3726.15806	0.04135
3724.87229	0.04183
3723.58652	0.04235
3722.30075	0.04303
3721.01498	0.04388
3719.72922	0.04470
3718.44345	0.04519
3717.15768	0.04514
3715.87191	0.04464
3714.58614	0.04400
3713.30037	0.04337
3712.01460	0.04271
3710.72883	0.04196
3709.44307	0.04124
3708.15730	0.04076
3706.87153	0.04060
3705.58576	0.04065
3704.29999	0.04069
3703.01422	0.04066
3701.72845	0.04073
3700.44268	0.04101
3699.15691	0.04130
3697.87115	0.04146
3696.58538	0.04168
3695.29961	0.04223
3694.01384	0.04305
3692.72807	0.04385
3691.44230	0.04428
3690.15653	0.04422
3688.87076	0.04385
3687.58500	0.04346
3686.29923	0.04334
3685.01346	0.04367
3683.72769	0.04415
3682.44192	0.04424
3681.15615	0.04383
3679.87038	0.04308
3678.58461	0.04230
3677.29884	0.04166
3676.01308	0.04109
3674.72731	0.04061
3673.44154	0.04060
3672.15577	0.04129
3670.87000	0.04232
3669.58423	0.04296
3668.29846	0.04298
3667.01269	0.04270
3665.72693	0.04250
3664.44116	0.04255
3663.15539	0.04274
3661.86962	0.04290
3660.58385	0.04299
3659.29808	0.04305
3658.01231	0.04309
3656.72654	0.04305
3655.44077	0.04289
3654.15501	0.04275
3652.86924	0.04284
3651.58347	0.04312
3650.29770	0.04339
3649.01193	0.04349
3647.72616	0.04349
3646.44039	0.04354
3645.15462	0.04379
3643.86886	0.04429
3642.58309	0.04488
3641.29732	0.04522
3640.01155	0.04509
3638.72578	0.04468
3637.44001	0.04446
3636.15424	0.04477
3634.86847	0.04552
3633.58270	0.04634
3632.29694	0.04694
3631.01117	0.04722
3629.72540	0.04719
3628.43963	0.04695
3627.15386	0.04678
3625.86809	0.04692
3624.58232	0.04738
3623.29655	0.04797
3622.01079	0.04849
3620.72502	0.04877
3619.43925	0.04882
3618.15348	0.04882
3616.86771	0.04902
3615.58194	0.04946
3614.29617	0.04995
3613.01040	0.05035
3611.72463	0.05067
3610.43887	0.05095
3609.15310	0.05119
3607.86733	0.05131
3606.58156	0.05131
3605.29579	0.05126
3604.01002	0.05123
3602.72425	0.05121
3601.43848	0.05132
3600.15272	0.05173
3598.86695	0.05252
3597.58118	0.05351
3596.29541	0.05430
3595.00964	0.05458
3593.72387	0.05439
3592.43810	0.05419
3591.15233	0.05440
3589.86656	0.05489
3588.58080	0.05519
3587.29503	0.05513
3586.00926	0.05498
3584.72349	0.05511
3583.43772	0.05569
3582.15195	0.05656
3580.86618	0.05753
3579.58041	0.05837
3578.29464	0.05878
3577.00888	0.05859
3575.72311	0.05808
3574.43734	0.05773
3573.15157	0.05776
3571.86580	0.05806
3570.58003	0.05842
3569.29426	0.05880
3568.00849	0.05920
3566.72273	0.05951
3565.43696	0.05965
3564.15119	0.05966
3562.86542	0.05962
3561.57965	0.05966
3560.29388	0.05997
3559.00811	0.06069
3557.72234	0.06172
3556.43657	0.06264
3555.15081	0.06304
3553.86504	0.06291
3552.57927	0.06267
3551.29350	0.06275
3550.00773	0.06326
3548.72196	0.06392
3547.43619	0.06435
3546.15042	0.06444
3544.86466	0.06436
3543.57889	0.06444
3542.29312	0.06480
3541.00735	0.06524
3539.72158	0.06542
3538.43581	0.06520
3537.15004	0.06485
3535.86427	0.06489
3534.57850	0.06549
3533.29274	0.06626
3532.00697	0.06668
3530.72120	0.06663
3529.43543	0.06646
3528.14966	0.06643
3526.86389	0.06645
3525.57812	0.06643
3524.29235	0.06660
3523.00659	0.06720
3521.72082	0.06808
3520.43505	0.06870
3519.14928	0.06874
3517.86351	0.06836
3516.57774	0.06803
3515.29197	0.06814
3514.00620	0.06863
3512.72043	0.06912
3511.43467	0.06924
3510.14890	0.06908
3508.86313	0.06899
3507.57736	0.06925
3506.29159	0.06973
3505.00582	0.07011
3503.72005	0.07018
3502.43428	0.07000
3501.14852	0.06982
3499.86275	0.06987
3498.57698	0.07019
3497.29121	0.07075
3496.00544	0.07153
3494.71967	0.07251
3493.43390	0.07356
3492.14813	0.07437
3490.86236	0.07467
3489.57660	0.07440
3488.29083	0.07374
3487.00506	0.07297
3485.71929	0.07237
3484.43352	0.07207
3483.14775	0.07201
3481.86198	0.07212
3480.57621	0.07240
3479.29045	0.07294
3478.00468	0.07367
3476.71891	0.07443
3475.43314	0.07507
3474.14737	0.07557
3472.86160	0.07596
3471.57583	0.07610
3470.29006	0.07588
3469.00429	0.07543
3467.71853	0.07503
3466.43276	0.07478
3465.14699	0.07457
3463.86122	0.07430
3462.57545	0.07416
3461.28968	0.07443
3460.00391	0.07524
3458.71814	0.07639
3457.43238	0.07746
3456.14661	0.07811
3454.86084	0.07832
3453.57507	0.07831
3452.28930	0.07840
3451.00353	0.07871
3449.71776	0.07912
3448.43199	0.07944
3447.14622	0.07954
3445.86046	0.07953
3444.57469	0.07966
3443.28892	0.07999
3442.00315	0.08031
3440.71738	0.08028
3439.43161	0.07979
3438.14584	0.07910
3436.86007	0.07867
3435.57431	0.07879
3434.28854	0.07943
3433.00277	0.08029
3431.71700	0.08101
3430.43123	0.08134
3429.14546	0.08126
3427.85969	0.08095
3426.57392	0.08066
3425.28815	0.08061
3424.00239	0.08085
3422.71662	0.08119
3421.43085	0.08127
3420.14508	0.08087
3418.85931	0.08016
3417.57354	0.07958
3416.28777	0.07948
3415.00200	0.07986
3413.71624	0.08052
3412.43047	0.08122
3411.14470	0.08179
3409.85893	0.08224
3408.57316	0.08269
3407.28739	0.08313
3406.00162	0.08336
3404.71585	0.08322
3403.43008	0.08287
3402.14432	0.08260
3400.85855	0.08258
3399.57278	0.08269
3398.28701	0.08271
3397.00124	0.08258
3395.71547	0.08242
3394.42970	0.08244
3393.14393	0.08274
3391.85817	0.08322
3390.57240	0.08365
3389.28663	0.08381
3388.00086	0.08371
3386.71509	0.08354
3385.42932	0.08348
3384.14355	0.08357
3382.85778	0.08374
3381.57201	0.08404
3380.28625	0.08449
3379.00048	0.08504
3377.71471	0.08552
3376.42894	0.08584
3375.14317	0.08602
3373.85740	0.08610
3372.57163	0.08613
3371.28586	0.08614
3370.00010	0.08619
3368.71433	0.08626
3367.42856	0.08620
3366.14279	0.08589
3364.85702	0.08544
3363.57125	0.08516
3362.28548	0.08530
3360.99971	0.08574
3359.71394	0.08602
3358.42818	0.08572
3357.14241	0.08488
3355.85664	0.08409
3354.57087	0.08409
3353.28510	0.08501
3351.99933	0.08621
3350.71356	0.08690
3349.42779	0.08695
3348.14202	0.08683
3346.85626	0.08691
3345.57049	0.08708
3344.28472	0.08703
3342.99895	0.08664
3341.71318	0.08600
3340.42741	0.08532
3339.14164	0.08486
3337.85587	0.08484
3336.57011	0.08527
3335.28434	0.08583
3333.99857	0.08608
3332.71280	0.08583
3331.42703	0.08524
3330.14126	0.08463
3328.85549	0.08424
3327.56972	0.08415
3326.28395	0.08429
3324.99819	0.08449
3323.71242	0.08451
3322.42665	0.08422
3321.14088	0.08379
3319.85511	0.08356
3318.56934	0.08370
3317.28357	0.08408
3315.99780	0.08441
3314.71204	0.08448
3313.42627	0.08430
3312.14050	0.08403
3310.85473	0.08383
3309.56896	0.08377
3308.28319	0.08380
3306.99742	0.08386
3305.71165	0.08397
3304.42588	0.08414
3303.14012	0.08431
3301.85435	0.08436
3300.56858	0.08433
3299.28281	0.08439
3297.99704	0.08461
3296.71127	0.08481
3295.42550	0.08471
3294.13973	0.08431
3292.85397	0.08394
3291.56820	0.08388
3290.28243	0.08409
3288.99666	0.08431
3287.71089	0.08436
3286.42512	0.08414
3285.13935	0.08364
3283.85358	0.08289
3282.56781	0.08207
3281.28205	0.08146
3279.99628	0.08131
3278.71051	0.08163
3277.42474	0.08221
3276.13897	0.08277
3274.85320	0.08315
3273.56743	0.08328
3272.28166	0.08311
3270.99590	0.08274
3269.71013	0.08245
3268.42436	0.08249
3267.13859	0.08289
3265.85282	0.08345
3264.56705	0.08389
3263.28128	0.08402
3261.99551	0.08378
3260.70974	0.08330
3259.42398	0.08287
3258.13821	0.08268
3256.85244	0.08270
3255.56667	0.08271
3254.28090	0.08255
3252.99513	0.08223
3251.70936	0.08182
3250.42359	0.08140
3249.13783	0.08106
3247.85206	0.08088
3246.56629	0.08082
3245.28052	0.08073
3243.99475	0.08057
3242.70898	0.08045
3241.42321	0.08052
3240.13744	0.08072
3238.85167	0.08078
3237.56591	0.08049
3236.28014	0.07987
3234.99437	0.07921
3233.70860	0.07881
3232.42283	0.07888
3231.13706	0.07935
3229.85129	0.07995
3228.56552	0.08030
3227.27976	0.08028
3225.99399	0.08004
3224.70822	0.07984
3223.42245	0.07975
3222.13668	0.07969
3220.85091	0.07960
3219.56514	0.07956
3218.27937	0.07969
3216.99360	0.07993
3215.70784	0.08009
3214.42207	0.08001
3213.13630	0.07974
3211.85053	0.07954
3210.56476	0.07966
3209.27899	0.08013
3207.99322	0.08068
3206.70745	0.08097
3205.42169	0.08078
3204.13592	0.08020
3202.85015	0.07950
3201.56438	0.07891
3200.27861	0.07848
3198.99284	0.07816
3197.70707	0.07790
3196.42130	0.07766
3195.13553	0.07744
3193.84977	0.07722
3192.56400	0.07700
3191.27823	0.07673
3189.99246	0.07636
3188.70669	0.07600
3187.42092	0.07586
3186.13515	0.07598
3184.84938	0.07622
3183.56362	0.07638
3182.27785	0.07642
3180.99208	0.07640
3179.70631	0.07629
3178.42054	0.07601
3177.13477	0.07561
3175.84900	0.07532
3174.56323	0.07537
3173.27746	0.07575
3171.99170	0.07619
3170.70593	0.07637
3169.42016	0.07622
3168.13439	0.07597
3166.84862	0.07588
3165.56285	0.07597
3164.27708	0.07593
3162.99131	0.07555
3161.70555	0.07497
3160.41978	0.07453
3159.13401	0.07449
3157.84824	0.07476
3156.56247	0.07509
3155.27670	0.07522
3153.99093	0.07503
3152.70516	0.07456
3151.41939	0.07390
3150.13363	0.07323
3148.84786	0.07279
3147.56209	0.07272
3146.27632	0.07296
3144.99055	0.07318
3143.70478	0.07313
3142.41901	0.07289
3141.13324	0.07280
3139.84748	0.07301
3138.56171	0.07331
3137.27594	0.07334
3135.99017	0.07294
3134.70440	0.07234
3133.41863	0.07191
3132.13286	0.07174
3130.84709	0.07167
3129.56132	0.07155
3128.27556	0.07144
3126.98979	0.07144
3125.70402	0.07153
3124.41825	0.07165
3123.13248	0.07176
3121.84671	0.07189
3120.56094	0.07194
3119.27517	0.07174
3117.98940	0.07123
3116.70364	0.07051
3115.41787	0.06988
3114.13210	0.06954
3112.84633	0.06950
3111.56056	0.06964
3110.27479	0.06983
3108.98902	0.07005
3107.70325	0.07029
3106.41749	0.07057
3105.13172	0.07084
3103.84595	0.07099
3102.56018	0.07091
3101.27441	0.07058
3099.98864	0.07016
3098.70287	0.06985
3097.41710	0.06971
3096.13133	0.06968
3094.84557	0.06975
3093.55980	0.06987
3092.27403	0.06991
3090.98826	0.06972
3089.70249	0.06929
3088.41672	0.06882
3087.13095	0.06850
3085.84518	0.06829
3084.55942	0.06807
3083.27365	0.06778
3081.98788	0.06753
3080.70211	0.06752
3079.41634	0.06778
3078.13057	0.06814
3076.84480	0.06824
3075.55903	0.06799
3074.27326	0.06759
3072.98750	0.06731
3071.70173	0.06722
3070.41596	0.06722
3069.13019	0.06730
3067.84442	0.06747
3066.55865	0.06765
3065.27288	0.06763
3063.98711	0.06729
3062.70135	0.06672
3061.41558	0.06613
3060.12981	0.06570
3058.84404	0.06550
3057.55827	0.06549
3056.27250	0.06562
3054.98673	0.06581
3053.70096	0.06599
3052.41519	0.06608
3051.12943	0.06605
3049.84366	0.06592
3048.55789	0.06573
3047.27212	0.06550
3045.98635	0.06527
3044.70058	0.06510
3043.41481	0.06497
3042.12904	0.06478
3040.84328	0.06443
3039.55751	0.06397
3038.27174	0.06360
3036.98597	0.06346
3035.70020	0.06356
3034.41443	0.06376
3033.12866	0.06386
3031.84289	0.06377
3030.55712	0.06356
3029.27136	0.06337
3027.98559	0.06329
3026.69982	0.06322
3025.41405	0.06301
3024.12828	0.06271
3022.84251	0.06251
3021.55674	0.06251
3020.27097	0.06266
3018.98521	0.06275
3017.69944	0.06268
3016.41367	0.06246
3015.12790	0.06225
3013.84213	0.06214
3012.55636	0.06212
3011.27059	0.06210
3009.98482	0.06204
3008.69905	0.06195
3007.41329	0.06181
3006.12752	0.06161
3004.84175	0.06140
3003.55598	0.06124
3002.27021	0.06112
3000.98444	0.06093
2999.69867	0.06063
2998.41290	0.06025
2997.12714	0.06000
2995.84137	0.06001
2994.55560	0.06028
2993.26983	0.06064
2991.98406	0.06091
2990.69829	0.06104
2989.41252	0.06109
2988.12675	0.06112
2986.84098	0.06110
2985.55522	0.06104
2984.26945	0.06103
2982.98368	0.06115
2981.69791	0.06139
2980.41214	0.06173
2979.12637	0.06220
2977.84060	0.06284
2976.55483	0.06364
2975.26907	0.06450
2973.98330	0.06526
2972.69753	0.06584
2971.41176	0.06629
2970.12599	0.06677
2968.84022	0.06742
2967.55445	0.06823
2966.26868	0.06914
2964.98291	0.07002
2963.69715	0.07082
2962.41138	0.07153
2961.12561	0.07219
2959.83984	0.07288
2958.55407	0.07356
2957.26830	0.07411
2955.98253	0.07437
2954.69676	0.07432
2953.41100	0.07411
2952.12523	0.07391
2950.83946	0.07377
2949.55369	0.07368
2948.26792	0.07367
2946.98215	0.07382
2945.69638	0.07410
2944.41061	0.07438
2943.12484	0.07453
2941.83908	0.07458
2940.55331	0.07459
2939.26754	0.07457
2937.98177	0.07456
2936.69600	0.07470
2935.41023	0.07513
2934.12446	0.07585
2932.83869	0.07664
2931.55293	0.07727
2930.26716	0.07771
2928.98139	0.07811
2927.69562	0.07858
2926.40985	0.07905
2925.12408	0.07940
2923.83831	0.07951
2922.55254	0.07932
2921.26677	0.07885
2919.98101	0.07825
2918.69524	0.07766
2917.40947	0.07718
2916.12370	0.07670
2914.83793	0.07610
2913.55216	0.07528
2912.26639	0.07425
2910.98062	0.07312
2909.69486	0.07204
2908.40909	0.07113
2907.12332	0.07044
2905.83755	0.06992
2904.55178	0.06949
2903.26601	0.06910
2901.98024	0.06875
2900.69447	0.06845
2899.40870	0.06816
2898.12294	0.06785
2896.83717	0.06745
2895.55140	0.06689
2894.26563	0.06620
2892.97986	0.06550
2891.69409	0.06493
2890.40832	0.06451
2889.12255	0.06417
2887.83678	0.06384
2886.55102	0.06349
2885.26525	0.06315
2883.97948	0.06287
2882.69371	0.06275
2881.40794	0.06291
2880.12217	0.06331
2878.83640	0.06377
2877.55063	0.06406
2876.26487	0.06416
2874.97910	0.06419
2873.69333	0.06424
2872.40756	0.06430
2871.12179	0.06438
2869.83602	0.06450
2868.55025	0.06465
2867.26448	0.06469
2865.97871	0.06453
2864.69295	0.06425
2863.40718	0.06404
2862.12141	0.06399
2860.83564	0.06398
2859.54987	0.06384
2858.26410	0.06351
2856.97833	0.06316
2855.69256	0.06291
2854.40680	0.06271
2853.12103	0.06238
2851.83526	0.06187
2850.54949	0.06125
2849.26372	0.06063
2847.97795	0.06006
2846.69218	0.05949
2845.40641	0.05886
2844.12064	0.05822
2842.83488	0.05764
2841.54911	0.05715
2840.26334	0.05664
2838.97757	0.05595
2837.69180	0.05505
2836.40603	0.05408
2835.12026	0.05323
2833.83449	0.05261
2832.54873	0.05220
2831.26296	0.05189
2829.97719	0.05155
2828.69142	0.05115
2827.40565	0.05075
2826.11988	0.05046
2824.83411	0.05031
2823.54834	0.05020
2822.26257	0.05002
2820.97681	0.04978
2819.69104	0.04963
2818.40527	0.04964
2817.11950	0.04968
2815.83373	0.04954
2814.54796	0.04916
2813.26219	0.04869
2811.97642	0.04832
2810.69066	0.04817
2809.40489	0.04822
2808.11912	0.04836
2806.83335	0.04846
2805.54758	0.04843
2804.26181	0.04830
2802.97604	0.04817
2801.69027	0.04804
2800.40450	0.04787
2799.11874	0.04758
2797.83297	0.04716
2796.54720	0.04671
2795.26143	0.04632
2793.97566	0.04608
2792.68989	0.04600
2791.40412	0.04603
2790.11835	0.04613
2788.83259	0.04618
2787.54682	0.04614
2786.26105	0.04600
2784.97528	0.04587
2783.68951	0.04581
2782.40374	0.04586
2781.11797	0.04596
2779.83220	0.04601
2778.54643	0.04592
2777.26067	0.04565
2775.97490	0.04526
2774.68913	0.04487
2773.40336	0.04467
2772.11759	0.04469
2770.83182	0.04480
2769.54605	0.04481
2768.26028	0.04465
2766.97452	0.04442
2765.68875	0.04426
2764.40298	0.04419
2763.11721	0.04417
2761.83144	0.04415
2760.54567	0.04411
2759.25990	0.04402
2757.97413	0.04387
2756.68836	0.04372
2755.40260	0.04365
2754.11683	0.04367
2752.83106	0.04376
2751.54529	0.04387
2750.25952	0.04392
2748.97375	0.04380
2747.68798	0.04349
2746.40221	0.04318
2745.11645	0.04307
2743.83068	0.04318
2742.54491	0.04332
2741.25914	0.04336
2739.97337	0.04331
2738.68760	0.04325
2737.40183	0.04326
2736.11606	0.04330
2734.83029	0.04330
2733.54453	0.04319
2732.25876	0.04298
2730.97299	0.04274
2729.68722	0.04251
2728.40145	0.04231
2727.11568	0.04213
2725.82991	0.04198
2724.54414	0.04185
2723.25838	0.04169
2721.97261	0.04152
2720.68684	0.04140
2719.40107	0.04143
2718.11530	0.04161
2716.82953	0.04175
2715.54376	0.04168
2714.25799	0.04136
2712.97222	0.04098
2711.68646	0.04077
2710.40069	0.04078
2709.11492	0.04088
2707.82915	0.04090
2706.54338	0.04080
2705.25761	0.04068
2703.97184	0.04062
2702.68607	0.04060
2701.40031	0.04059
2700.11454	0.04062
2698.82877	0.04069
2697.54300	0.04073
2696.25723	0.04067
2694.97146	0.04052
2693.68569	0.04038
2692.39992	0.04022
2691.11415	0.04000
2689.82839	0.03971
2688.54262	0.03941
2687.25685	0.03923
2685.97108	0.03920
2684.68531	0.03931
2683.39954	0.03950
2682.11377	0.03970
2680.82800	0.03988
2679.54224	0.03997
2678.25647	0.03994
2676.97070	0.03980
2675.68493	0.03964
2674.39916	0.03951
2673.11339	0.03939
2671.82762	0.03919
2670.54185	0.03892
2669.25608	0.03867
2667.97032	0.03852
2666.68455	0.03852
2665.39878	0.03860
2664.11301	0.03867
2662.82724	0.03863
2661.54147	0.03845
2660.25570	0.03821
2658.96993	0.03805
2657.68417	0.03805
2656.39840	0.03813
2655.11263	0.03818
2653.82686	0.03814
2652.54109	0.03798
2651.25532	0.03767
2649.96955	0.03726
2648.68378	0.03690
2647.39801	0.03674
2646.11225	0.03679
2644.82648	0.03692
2643.54071	0.03699
2642.25494	0.03693
2640.96917	0.03675
2639.68340	0.03651
2638.39763	0.03632
2637.11186	0.03630
2635.82609	0.03636
2634.54033	0.03629
2633.25456	0.03595
2631.96879	0.03545
2630.68302	0.03500
2629.39725	0.03472
2628.11148	0.03466
2626.82571	0.03481
2625.53994	0.03515
2624.25418	0.03550
2622.96841	0.03560
2621.68264	0.03536
2620.39687	0.03491
2619.11110	0.03443
2617.82533	0.03402
2616.53956	0.03375
2615.25379	0.03364
2613.96802	0.03365
2612.68226	0.03366
2611.39649	0.03363
2610.11072	0.03362
2608.82495	0.03373
2607.53918	0.03393
2606.25341	0.03401
2604.96764	0.03378
2603.68187	0.03325
2602.39611	0.03274
2601.11034	0.03258
2599.82457	0.03277
2598.53880	0.03286
2597.25303	0.03249
2595.96726	0.03183
2594.68149	0.03138
2593.39572	0.03138
2592.10995	0.03160
2590.82419	0.03172
2589.53842	0.03166
2588.25265	0.03161
2586.96688	0.03166
2585.68111	0.03172
2584.39534	0.03164
2583.10957	0.03147
2581.82380	0.03129
2580.53804	0.03118
2579.25227	0.03108
2577.96650	0.03101
2576.68073	0.03098
2575.39496	0.03099
2574.10919	0.03101
2572.82342	0.03104
2571.53765	0.03109
2570.25188	0.03116
2568.96612	0.03119
2567.68035	0.03109
2566.39458	0.03084
2565.10881	0.03055
2563.82304	0.03037
2562.53727	0.03035
2561.25150	0.03046
2559.96573	0.03064
2558.67997	0.03082
2557.39420	0.03095
2556.10843	0.03093
2554.82266	0.03079
2553.53689	0.03063
2552.25112	0.03052
2550.96535	0.03041
2549.67958	0.03019
2548.39381	0.02978
2547.10805	0.02928
2545.82228	0.02879
2544.53651	0.02843
2543.25074	0.02830
2541.96497	0.02845
2540.67920	0.02877
2539.39343	0.02900
2538.10766	0.02898
2536.82190	0.02878
2535.53613	0.02859
2534.25036	0.02863
2532.96459	0.02897
2531.67882	0.02949
2530.39305	0.02992
2529.10728	0.03001
2527.82151	0.02975
2526.53574	0.02919
2525.24998	0.02850
2523.96421	0.02793
2522.67844	0.02773
2521.39267	0.02794
2520.10690	0.02832
2518.82113	0.02863
2517.53536	0.02883
2516.24959	0.02909
2514.96383	0.02941
2513.67806	0.02960
2512.39229	0.02945
2511.10652	0.02900
2509.82075	0.02849
2508.53498	0.02806
2507.24921	0.02768
2505.96344	0.02737
2504.67767	0.02729
2503.39191	0.02756
2502.10614	0.02800
2500.82037	0.02827
2499.53460	0.02817
2498.24883	0.02785
2496.96306	0.02760
2495.67729	0.02762
2494.39152	0.02783
2493.10576	0.02807
2491.81999	0.02816
2490.53422	0.02807
2489.24845	0.02783
2487.96268	0.02758
2486.67691	0.02747
2485.39114	0.02755
2484.10537	0.02775
2482.81960	0.02791
2481.53384	0.02796
2480.24807	0.02784
2478.96230	0.02761
2477.67653	0.02735
2476.39076	0.02716
2475.10499	0.02706
2473.81922	0.02708
2472.53345	0.02724
2471.24769	0.02751
2469.96192	0.02780
2468.67615	0.02793
2467.39038	0.02774
2466.10461	0.02726
2464.81884	0.02678
2463.53307	0.02665
2462.24730	0.02686
2460.96153	0.02711
2459.67577	0.02727
2458.39000	0.02743
2457.10423	0.02765
2455.81846	0.02782
2454.53269	0.02778
2453.24692	0.02760
2451.96115	0.02740
2450.67538	0.02716
2449.38962	0.02689
2448.10385	0.02672
2446.81808	0.02676
2445.53231	0.02694
2444.24654	0.02708
2442.96077	0.02708
2441.67500	0.02686
2440.38923	0.02644
2439.10346	0.02592
2437.81770	0.02556
2436.53193	0.02551
2435.24616	0.02565
2433.96039	0.02573
2432.67462	0.02569
2431.38885	0.02567
2430.10308	0.02577
2428.81731	0.02589
2427.53155	0.02587
2426.24578	0.02567
2424.96001	0.02542
2423.67424	0.02524
2422.38847	0.02519
2421.10270	0.02526
2419.81693	0.02536
2418.53116	0.02540
2417.24539	0.02534
2415.95963	0.02518
2414.67386	0.02495
2413.38809	0.02472
2412.10232	0.02461
2410.81655	0.02466
2409.53078	0.02484
2408.24501	0.02503
2406.95924	0.02515
2405.67347	0.02517
2404.38771	0.02514
2403.10194	0.02511
2401.81617	0.02513
2400.53040	0.02517
2399.24463	0.02503
2397.95886	0.02492
2396.67309	0.02483
2395.38732	0.02474
2394.10156	0.02467
2392.81579	0.02465
2391.53002	0.02470
2390.24425	0.02482
2388.95848	0.02495
2387.67271	0.02502
2386.38694	0.02504
2385.10117	0.02511
2383.81540	0.02535
2382.52964	0.02574
2381.24387	0.02618
2379.95810	0.02655
2378.67233	0.02680
2377.38656	0.02702
2376.10079	0.02729
2374.81502	0.02760
2373.52925	0.02795
2372.24349	0.02826
2370.95772	0.02866
2369.67195	0.02898
2368.38618	0.02925
2367.10041	0.02956
2365.81464	0.02999
2364.52887	0.03020
2363.24310	0.03022
2361.95733	0.03022
2360.67157	0.03041
2359.38580	0.03053
2358.10003	0.03073
2356.81426	0.03099
2355.52849	0.03109
2354.24272	0.03094
2352.95695	0.03050
2351.67118	0.03016
2350.38542	0.03014
2349.09965	0.03006
2347.81388	0.02963
2346.52811	0.02938
2345.24234	0.02941
2343.95657	0.02931
2342.67080	0.02888
2341.38503	0.02886
2340.09926	0.02943
2338.81350	0.02957
2337.52773	0.02916
2336.24196	0.02937
2334.95619	0.03017
2333.67042	0.03045
2332.38465	0.03018
2331.09888	0.03092
2329.81311	0.03179
2328.52735	0.03148
2327.24158	0.03214
2325.95581	0.03303
2324.67004	0.03212
2323.38427	0.03093
2322.09850	0.03006
2320.81273	0.02825
2319.52696	0.02730
2318.24119	0.02699
2316.95543	0.02611
2315.66966	0.02574
2314.38389	0.02557
2313.09812	0.02509
2311.81235	0.02506
2310.52658	0.02497
2309.24081	0.02498
2307.95504	0.02521
2306.66928	0.02516
2305.38351	0.02511
2304.09774	0.02493
2302.81197	0.02464
2301.52620	0.02450
2300.24043	0.02438
2298.95466	0.02435
2297.66889	0.02432
2296.38312	0.02441
2295.09736	0.02470
2293.81159	0.02504
2292.52582	0.02527
2291.24005	0.02522
2289.95428	0.02493
2288.66851	0.02447
2287.38274	0.02385
2286.09697	0.02314
2284.81121	0.02247
2283.52544	0.02199
2282.23967	0.02168
2280.95390	0.02144
2279.66813	0.02120
2278.38236	0.02102
2277.09659	0.02100
2275.81082	0.02117
2274.52505	0.02139
2273.23929	0.02143
2271.95352	0.02120
2270.66775	0.02088
2269.38198	0.02075
2268.09621	0.02076
2266.81044	0.02058
2265.52467	0.01993
2264.23890	0.01894
2262.95314	0.01808
2261.66737	0.01780
2260.38160	0.01811
2259.09583	0.01866
2257.81006	0.01910
2256.52429	0.01927
2255.23852	0.01922
2253.95275	0.01917
2252.66698	0.01930
2251.38122	0.01963
2250.09545	0.01976
2248.80968	0.01942
2247.52391	0.01966
2246.23814	0.01967
2244.95237	0.01930
2243.66660	0.01872
2242.38083	0.01833
2241.09507	0.01843
2239.80930	0.01872
2238.52353	0.01857
2237.23776	0.01771
2235.95199	0.01645
2234.66622	0.01540
2233.38045	0.01506
2232.09468	0.01562
2230.80891	0.01696
2229.52315	0.01862
2228.23738	0.01991
2226.95161	0.02028
2225.66584	0.01968
2224.38007	0.01858
2223.09430	0.01757
2221.80853	0.01703
2220.52276	0.01709
2219.23700	0.01751
2217.95123	0.01772
2216.66546	0.01723
2215.37969	0.01619
2214.09392	0.01527
2212.80815	0.01492
2211.52238	0.01493
2210.23661	0.01487
2208.95084	0.01452
2207.66508	0.01402
2206.37931	0.01356
2205.09354	0.01331
2203.80777	0.01339
2202.52200	0.01382
2201.23623	0.01443
2199.95046	0.01496
2198.66469	0.01511
2197.37893	0.01468
2196.09316	0.01374
2194.80739	0.01277
2193.52162	0.01240
2192.23585	0.01283
2190.95008	0.01362
2189.66431	0.01401
2188.37854	0.01353
2187.09277	0.01243
2185.80701	0.01143
2184.52124	0.01105
2183.23547	0.01112
2181.94970	0.01102
2180.66393	0.01031
2179.37816	0.00927
2178.09239	0.00851
2176.80662	0.00842
2175.52085	0.00879
2174.23509	0.00899
2172.94932	0.00853
2171.66355	0.00749
2170.37778	0.00646
2169.09201	0.00605
2167.80624	0.00646
2166.52047	0.00742
2165.23470	0.00851
2163.94894	0.00939
2162.66317	0.00967
2161.37740	0.00905
2160.09163	0.00763
2158.80586	0.00621
2157.52009	0.00567
2156.23432	0.00611
2154.94855	0.00693
2153.66278	0.00756
2152.37702	0.00785
2151.09125	0.00774
2149.80548	0.00709
2148.51971	0.00601
2147.23394	0.00503
2145.94817	0.00464
2144.66240	0.00482
2143.37663	0.00530
2142.09087	0.00611
2140.80510	0.00746
2139.51933	0.00919
2138.23356	0.01063
2136.94779	0.01111
2135.66202	0.01060
2134.37625	0.00978
2133.09048	0.00941
2131.80471	0.00963
2130.51895	0.01001
2129.23318	0.01010
2127.94741	0.00996
2126.66164	0.01001
2125.37587	0.01044
2124.09010	0.01109
2122.80433	0.01176
2121.51856	0.01238
2120.23280	0.01290
2118.94703	0.01317
2117.66126	0.01312
2116.37549	0.01286
2115.08972	0.01258
2113.80395	0.01248
2112.51818	0.01269
2111.23241	0.01310
2109.94664	0.01335
2108.66088	0.01315
2107.37511	0.01269
2106.08934	0.01244
2104.80357	0.01257
2103.51780	0.01273
2102.23203	0.01246
2100.94626	0.01170
2099.66049	0.01002
2098.37473	0.00908
2097.08896	0.00903
2095.80319	0.00951
2094.51742	0.01032
2093.23165	0.01127
2091.94588	0.01208
2090.66011	0.01250
2089.37434	0.01250
2088.08857	0.01229
2086.80281	0.01204
2085.51704	0.01178
2084.23127	0.01151
2082.94550	0.01129
2081.65973	0.01112
2080.37396	0.01080
2079.08819	0.01015
2077.80242	0.00923
2076.51666	0.00846
2075.23089	0.00821
2073.94512	0.00849
2072.65935	0.00892
2071.37358	0.00915
2070.08781	0.00914
2068.80204	0.00901
2067.51627	0.00883
2066.23050	0.00868
2064.94474	0.00870
2063.65897	0.00893
2062.37320	0.00919
2061.08743	0.00920
2059.80166	0.00899
2058.51589	0.00876
2057.23012	0.00865
2055.94435	0.00863
2054.65859	0.00862
2053.37282	0.00846
2052.08705	0.00788
2050.80128	0.00677
2049.51551	0.00532
2048.22974	0.00392
2046.94397	0.00278
2045.65820	0.00194
2044.37243	0.00124
2043.08667	0.00049
2041.80090	-0.00020
2040.51513	-0.00049
2039.22936	-0.00011
2037.94359	0.00070
2036.65782	0.00134
2035.37205	0.00133
2034.08628	0.00071
2032.80052	-0.00005
2031.51475	-0.00045
2030.22898	-0.00036
2028.94321	-0.00003
2027.65744	0.00034
2026.37167	0.00079
2025.08590	0.00142
2023.80013	0.00209
2022.51436	0.00259
2021.22860	0.00285
2019.94283	0.00302
2018.65706	0.00319
2017.37129	0.00325
2016.08552	0.00301
2014.79975	0.00234
2013.51398	0.00147
2012.22821	0.00084
2010.94245	0.00072
2009.65668	0.00104
2008.37091	0.00157
2007.08514	0.00223
2005.79937	0.00312
2004.51360	0.00425
2003.22783	0.00536
2001.94206	0.00610
2000.65629	0.00631
1999.37053	0.00620
1998.08476	0.00615
1996.79899	0.00644
1995.51322	0.00720
1994.22745	0.00832
1992.94168	0.00945
1991.65591	0.01003
1990.37014	0.00977
1989.08438	0.00890
1987.79861	0.00793
1986.51284	0.00712
1985.22707	0.00645
1983.94130	0.00587
1982.65553	0.00550
1981.36976	0.00550
1980.08399	0.00591
1978.79822	0.00653
1977.51246	0.00699
1976.22669	0.00701
1974.94092	0.00676
1973.65515	0.00670
1972.36938	0.00714
1971.08361	0.00783
1969.79784	0.00816
1968.51207	0.00766
1967.22631	0.00643
1965.94054	0.00513
1964.65477	0.00458
1963.36900	0.00506
1962.08323	0.00611
1960.79746	0.00701
1959.51169	0.00762
1958.22592	0.00831
1956.94015	0.00938
1955.65439	0.01054
1954.36862	0.01121
1953.08285	0.01115
1951.79708	0.01065
1950.51131	0.01017
1949.22554	0.00997
1947.93977	0.01011
1946.65400	0.01052
1945.36823	0.01098
1944.08247	0.01122
1942.79670	0.01114
1941.51093	0.01094
1940.22516	0.01084
1938.93939	0.01079
1937.65362	0.01060
1936.36785	0.01023
1935.08208	0.00997
1933.79632	0.01018
1932.51055	0.01094
1931.22478	0.01184
1929.93901	0.01231
1928.65324	0.01211
1927.36747	0.01149
1926.08170	0.01094
1924.79593	0.01077
1923.51016	0.01090
1922.22440	0.01111
1920.93863	0.01127
1919.65286	0.01139
1918.36709	0.01149
1917.08132	0.01149
1915.79555	0.01132
1914.50978	0.01106
1913.22401	0.01090
1911.93825	0.01099
1910.65248	0.01131
1909.36671	0.01165
1908.08094	0.01185
1906.79517	0.01193
1905.50940	0.01196
1904.22363	0.01199
1902.93786	0.01199
1901.65209	0.01195
1900.36633	0.01191
1899.08056	0.01189
1897.79479	0.01187
1896.50902	0.01183
1895.22325	0.01185
1893.93748	0.01201
1892.65171	0.01233
1891.36594	0.01270
1890.08018	0.01301
1888.79441	0.01320
1887.50864	0.01328
1886.22287	0.01327
1884.93710	0.01321
1883.65133	0.01313
1882.36556	0.01306
1881.07979	0.01299
1879.79402	0.01281
1878.50826	0.01254
1877.22249	0.01228
1875.93672	0.01217
1874.65095	0.01224
1873.36518	0.01240
1872.07941	0.01256
1870.79364	0.01267
1869.50787	0.01273
1868.22211	0.01271
1866.93634	0.01264
1865.65057	0.01258
1864.36480	0.01261
1863.07903	0.01276
1861.79326	0.01298
1860.50749	0.01313
1859.22172	0.01315
1857.93595	0.01312
1856.65019	0.01307
1855.36442	0.01296
1854.07865	0.01276
1852.79288	0.01253
1851.50711	0.01245
1850.22134	0.01259
1848.93557	0.01282
1847.64980	0.01298
1846.36404	0.01305
1845.07827	0.01308
1843.79250	0.01306
1842.50673	0.01296
1841.22096	0.01282
1839.93519	0.01272
1838.64942	0.01274
1837.36365	0.01285
1836.07788	0.01301
1834.79212	0.01310
1833.50635	0.01307
1832.22058	0.01300
1830.93481	0.01298
1829.64904	0.01302
1828.36327	0.01306
1827.07750	0.01305
1825.79173	0.01304
1824.50597	0.01306
1823.22020	0.01312
1821.93443	0.01314
1820.64866	0.01305
1819.36289	0.01287
1818.07712	0.01273
1816.79135	0.01280
1815.50558	0.01309
1814.21981	0.01351
1812.93405	0.01394
1811.64828	0.01424
1810.36251	0.01441
1809.07674	0.01446
1807.79097	0.01447
1806.50520	0.01448
1805.21943	0.01451
1803.93366	0.01453
1802.64790	0.01452
1801.36213	0.01444
1800.07636	0.01433
1798.79059	0.01423
1797.50482	0.01415
1796.21905	0.01412
1794.93328	0.01413
1793.64751	0.01419
1792.36174	0.01429
1791.07598	0.01439
1789.79021	0.01447
1788.50444	0.01454
1787.21867	0.01462
1785.93290	0.01469
1784.64713	0.01475
1783.36136	0.01481
1782.07559	0.01489
1780.78983	0.01497
1779.50406	0.01500
1778.21829	0.01494
1776.93252	0.01487
1775.64675	0.01487
1774.36098	0.01503
1773.07521	0.01526
1771.78944	0.01547
1770.50367	0.01561
1769.21791	0.01575
1767.93214	0.01590
1766.64637	0.01601
1765.36060	0.01607
1764.07483	0.01604
1762.78906	0.01592
1761.50329	0.01577
1760.21752	0.01572
1758.93176	0.01590
1757.64599	0.01620
1756.36022	0.01645
1755.07445	0.01656
1753.78868	0.01661
1752.50291	0.01670
1751.21714	0.01679
1749.93137	0.01681
1748.64560	0.01679
1747.35984	0.01679
1746.07407	0.01686
1744.78830	0.01696
1743.50253	0.01704
1742.21676	0.01710
1740.93099	0.01717
1739.64522	0.01725
1738.35945	0.01731
1737.07369	0.01737
1735.78792	0.01748
1734.50215	0.01765
1733.21638	0.01785
1731.93061	0.01809
1730.64484	0.01838
1729.35907	0.01865
1728.07330	0.01881
1726.78753	0.01894
1725.50177	0.01914
1724.21600	0.01943
1722.93023	0.01969
1721.64446	0.01986
1720.35869	0.01999
1719.07292	0.02022
1717.78715	0.02057
1716.50138	0.02099
1715.21561	0.02147
1713.92985	0.02199
1712.64408	0.02250
1711.35831	0.02295
1710.07254	0.02334
1708.78677	0.02370
1707.50100	0.02411
1706.21523	0.02455
1704.92946	0.02493
1703.64370	0.02522
1702.35793	0.02552
1701.07216	0.02588
1699.78639	0.02629
1698.50062	0.02676
1697.21485	0.02736
1695.92908	0.02797
1694.64331	0.02850
1693.35754	0.02897
1692.07178	0.02947
1690.78601	0.02992
1689.50024	0.03023
1688.21447	0.03047
1686.92870	0.03083
1685.64293	0.03137
1684.35716	0.03198
1683.07139	0.03252
1681.78563	0.03301
1680.49986	0.03352
1679.21409	0.03404
1677.92832	0.03457
1676.64255	0.03513
1675.35678	0.03567
1674.07101	0.03614
1672.78524	0.03656
1671.49947	0.03698
1670.21371	0.03743
1668.92794	0.03790
1667.64217	0.03837
1666.35640	0.03883
1665.07063	0.03931
1663.78486	0.03982
1662.49909	0.04033
1661.21332	0.04081
1659.92756	0.04124
1658.64179	0.04159
1657.35602	0.04180
1656.07025	0.04191
1654.78448	0.04202
1653.49871	0.04217
1652.21294	0.04233
1650.92717	0.04252
1649.64140	0.04281
1648.35564	0.04319
1647.06987	0.04354
1645.78410	0.04378
1644.49833	0.04392
1643.21256	0.04404
1641.92679	0.04419
1640.64102	0.04438
1639.35525	0.04458
1638.06949	0.04479
1636.78372	0.04499
1635.49795	0.04514
1634.21218	0.04521
1632.92641	0.04525
1631.64064	0.04534
1630.35487	0.04552
1629.06910	0.04578
1627.78333	0.04610
1626.49757	0.04646
1625.21180	0.04682
1623.92603	0.04716
1622.64026	0.04744
1621.35449	0.04769
1620.06872	0.04796
1618.78295	0.04832
1617.49718	0.04875
1616.21142	0.04918
1614.92565	0.04959
1613.63988	0.05004
1612.35411	0.05057
1611.06834	0.05115
1609.78257	0.05174
1608.49680	0.05230
1607.21103	0.05276
1605.92526	0.05316
1604.63950	0.05356
1603.35373	0.05403
1602.06796	0.05457
1600.78219	0.05512
1599.49642	0.05560
1598.21065	0.05600
1596.92488	0.05635
1595.63911	0.05669
1594.35335	0.05705
1593.06758	0.05744
1591.78181	0.05785
1590.49604	0.05828
1589.21027	0.05870
1587.92450	0.05912
1586.63873	0.05953
1585.35296	0.05990
1584.06719	0.06025
1582.78143	0.06058
1581.49566	0.06091
1580.20989	0.06126
1578.92412	0.06164
1577.63835	0.06207
1576.35258	0.06248
1575.06681	0.06284
1573.78104	0.06314
1572.49528	0.06348
1571.20951	0.06383
1569.92374	0.06414
1568.63797	0.06441
1567.35220	0.06466
1566.06643	0.06490
1564.78066	0.06505
1563.49489	0.06509
1562.20912	0.06505
1560.92336	0.06503
1559.63759	0.06506
1558.35182	0.06509
1557.06605	0.06515
1555.78028	0.06526
1554.49451	0.06538
1553.20874	0.06541
1551.92297	0.06534
1550.63721	0.06521
1549.35144	0.06503
1548.06567	0.06477
1546.77990	0.06444
1545.49413	0.06402
1544.20836	0.06351
1542.92259	0.06293
1541.63682	0.06236
1540.35105	0.06183
1539.06529	0.06135
1537.77952	0.06090
1536.49375	0.06054
1535.20798	0.06031
1533.92221	0.06018
1532.63644	0.06012
1531.35067	0.06015
1530.06490	0.06031
1528.77914	0.06060
1527.49337	0.06097
1526.20760	0.06138
1524.92183	0.06184
1523.63606	0.06241
1522.35029	0.06313
1521.06452	0.06395
1519.77875	0.06483
1518.49298	0.06584
1517.20722	0.06699
1515.92145	0.06825
1514.63568	0.06957
1513.34991	0.07097
1512.06414	0.07242
1510.77837	0.07387
1509.49260	0.07536
1508.20683	0.07689
1506.92107	0.07845
1505.63530	0.07997
1504.34953	0.08142
1503.06376	0.08283
1501.77799	0.08418
1500.49222	0.08546
1499.20645	0.08665
1497.92068	0.08778
1496.63491	0.08885
1495.34915	0.08983
1494.06338	0.09075
1492.77761	0.09167
1491.49184	0.09262
1490.20607	0.09359
1488.92030	0.09459
1487.63453	0.09570
1486.34876	0.09696
1485.06299	0.09838
1483.77723	0.09989
1482.49146	0.10142
1481.20569	0.10289
1479.91992	0.10431
1478.63415	0.10573
1477.34838	0.10717
1476.06261	0.10861
1474.77684	0.11000
1473.49108	0.11126
1472.20531	0.11234
1470.91954	0.11325
1469.63377	0.11404
1468.34800	0.11477
1467.06223	0.11545
1465.77646	0.11610
1464.49069	0.11676
1463.20492	0.11746
1461.91916	0.11821
1460.63339	0.11899
1459.34762	0.11979
1458.06185	0.12059
1456.77608	0.12133
1455.49031	0.12193
1454.20454	0.12240
1452.91877	0.12279
1451.63301	0.12313
1450.34724	0.12342
1449.06147	0.12363
1447.77570	0.12373
1446.48993	0.12367
1445.20416	0.12344
1443.91839	0.12310
1442.63262	0.12267
1441.34685	0.12219
1440.06109	0.12176
1438.77532	0.12150
1437.48955	0.12151
1436.20378	0.12184
1434.91801	0.12246
1433.63224	0.12336
1432.34647	0.12448
1431.06070	0.12576
1429.77494	0.12723
1428.48917	0.12890
1427.20340	0.13073
1425.91763	0.13266
1424.63186	0.13462
1423.34609	0.13654
1422.06032	0.13839
1420.77455	0.14013
1419.48878	0.14170
1418.20302	0.14302
1416.91725	0.14407
1415.63148	0.14482
1414.34571	0.14522
1413.05994	0.14528
1411.77417	0.14502
1410.48840	0.14448
1409.20263	0.14364
1407.91687	0.14249
1406.63110	0.14100
1405.34533	0.13921
1404.05956	0.13713
1402.77379	0.13481
1401.48802	0.13226
1400.20225	0.12950
1398.91648	0.12652
1397.63071	0.12338
1396.34495	0.12020
1395.05918	0.11704
1393.77341	0.11390
1392.48764	0.11079
1391.20187	0.10775
1389.91610	0.10482
1388.63033	0.10197
1387.34456	0.09915
1386.05880	0.09629
1384.77303	0.09344
1383.48726	0.09065
1382.20149	0.08798
1380.91572	0.08541
1379.62995	0.08286
1378.34418	0.08025
1377.05841	0.07756
1375.77264	0.07483
1374.48688	0.07212
1373.20111	0.06944
1371.91534	0.06682
1370.62957	0.06430
1369.34380	0.06194
1368.05803	0.05976
1366.77226	0.05778
1365.48649	0.05598
1364.20073	0.05431
1362.91496	0.05271
1361.62919	0.05118
1360.34342	0.04976
1359.05765	0.04847
1357.77188	0.04727
1356.48611	0.04614
1355.20034	0.04506
1353.91457	0.04403
1352.62881	0.04304
1351.34304	0.04210
1350.05727	0.04122
1348.77150	0.04043
1347.48573	0.03970
1346.19996	0.03899
1344.91419	0.03825
1343.62842	0.03749
1342.34266	0.03675
1341.05689	0.03605
1339.77112	0.03539
1338.48535	0.03477
1337.19958	0.03420
1335.91381	0.03368
1334.62804	0.03322
1333.34227	0.03278
1332.05650	0.03236
1330.77074	0.03193
1329.48497	0.03147
1328.19920	0.03101
1326.91343	0.03060
1325.62766	0.03027
1324.34189	0.03000
1323.05612	0.02974
1321.77035	0.02949
1320.48459	0.02921
1319.19882	0.02890
1317.91305	0.02854
1316.62728	0.02818
1315.34151	0.02785
1314.05574	0.02756
1312.76997	0.02732
1311.48420	0.02709
1310.19843	0.02685
1308.91267	0.02662
1307.62690	0.02638
1306.34113	0.02618
1305.05536	0.02601
1303.76959	0.02586
1302.48382	0.02571
1301.19805	0.02554
1299.91228	0.02534
1298.62652	0.02512
1297.34075	0.02489
1296.05498	0.02469
1294.76921	0.02456
1293.48344	0.02450
1292.19767	0.02449
1290.91190	0.02446
1289.62613	0.02437
1288.34036	0.02420
1287.05460	0.02400
1285.76883	0.02380
1284.48306	0.02362
1283.19729	0.02349
1281.91152	0.02340
1280.62575	0.02334
1279.33998	0.02327
1278.05421	0.02318
1276.76845	0.02304
1275.48268	0.02286
1274.19691	0.02269
1272.91114	0.02257
1271.62537	0.02251
1270.33960	0.02249
1269.05383	0.02247
1267.76806	0.02242
1266.48229	0.02230
1265.19653	0.02213
1263.91076	0.02193
1262.62499	0.02177
1261.33922	0.02164
1260.05345	0.02155
1258.76768	0.02147
1257.48191	0.02142
1256.19614	0.02139
1254.91037	0.02140
1253.62461	0.02141
1252.33884	0.02140
1251.05307	0.02138
1249.76730	0.02133
1248.48153	0.02125
1247.19576	0.02114
1245.90999	0.02102
1244.62422	0.02091
1243.33846	0.02084
1242.05269	0.02081
1240.76692	0.02079
1239.48115	0.02075
1238.19538	0.02069
1236.90961	0.02063
1235.62384	0.02057
1234.33807	0.02051
1233.05230	0.02046
1231.76654	0.02040
1230.48077	0.02030
1229.19500	0.02018
1227.90923	0.02006
1226.62346	0.01994
1225.33769	0.01985
1224.05192	0.01979
1222.76615	0.01977
1221.48039	0.01980
1220.19462	0.01983
1218.90885	0.01982
1217.62308	0.01978
1216.33731	0.01972
1215.05154	0.01964
1213.76577	0.01955
1212.48000	0.01945
1211.19423	0.01938
1209.90847	0.01936
1208.62270	0.01939
1207.33693	0.01944
1206.05116	0.01946
1204.76539	0.01943
1203.47962	0.01936
1202.19385	0.01927
1200.90808	0.01925
1199.62232	0.01937
1198.33655	0.01946
1197.05078	0.01957
1195.76501	0.01961
1194.47924	0.01957
1193.19347	0.01951
1191.90770	0.01951
1190.62193	0.01957
1189.33616	0.01965
1188.05040	0.01971
1186.76463	0.01973
1185.47886	0.01972
1184.19309	0.01970
1182.90732	0.01972
1181.62155	0.01980
1180.33578	0.01993
1179.05001	0.02009
1177.76425	0.02026
1176.47848	0.02043
1175.19271	0.02062
1173.90694	0.02084
1172.62117	0.02111
1171.33540	0.02144
1170.04963	0.02177
1168.76386	0.02206
1167.47809	0.02227
1166.19233	0.02245
1164.90656	0.02268
1163.62079	0.02296
1162.33502	0.02327
1161.04925	0.02362
1159.76348	0.02402
1158.47771	0.02444
1157.19194	0.02486
1155.90618	0.02531
1154.62041	0.02586
1153.33464	0.02650
1152.04887	0.02715
1150.76310	0.02777
1149.47733	0.02843
1148.19156	0.02920
1146.90579	0.03010
1145.62002	0.03108
1144.33426	0.03210
1143.04849	0.03317
1141.76272	0.03430
1140.47695	0.03553
1139.19118	0.03688
1137.90541	0.03839
1136.61964	0.04011
1135.33387	0.04208
1134.04811	0.04434
1132.76234	0.04686
1131.47657	0.04957
1130.19080	0.05246
1128.90503	0.05553
1127.61926	0.05882
1126.33349	0.06237
1125.04772	0.06616
1123.76195	0.07016
1122.47619	0.07435
1121.19042	0.07867
1119.90465	0.08308
1118.61888	0.08754
1117.33311	0.09204
1116.04734	0.09662
1114.76157	0.10129
1113.47580	0.10602
1112.19004	0.11070
1110.90427	0.11529
1109.61850	0.11973
1108.33273	0.12407
1107.04696	0.12835
1105.76119	0.13265
1104.47542	0.13698
1103.18965	0.14130
1101.90388	0.14550
1100.61812	0.14950
1099.33235	0.15329
1098.04658	0.15697
1096.76081	0.16059
1095.47504	0.16416
1094.18927	0.16763
1092.90350	0.17096
1091.61773	0.17413
1090.33197	0.17712
1089.04620	0.17989
1087.76043	0.18250
1086.47466	0.18503
1085.18889	0.18761
1083.90312	0.19035
1082.61735	0.19332
1081.33158	0.19652
1080.04581	0.19994
1078.76005	0.20352
1077.47428	0.20722
1076.18851	0.21103
1074.90274	0.21492
1073.61697	0.21894
1072.33120	0.22318
1071.04543	0.22771
1069.75966	0.23255
1068.47390	0.23760
1067.18813	0.24271
1065.90236	0.24777
1064.61659	0.25277
1063.33082	0.25782
1062.04505	0.26303
1060.75928	0.26835
1059.47351	0.27369
1058.18774	0.27898
1056.90198	0.28422
1055.61621	0.28946
1054.33044	0.29475
1053.04467	0.30006
1051.75890	0.30534
1050.47313	0.31059
1049.18736	0.31583
1047.90159	0.32114
1046.61583	0.32660
1045.33006	0.33225
1044.04429	0.33811
1042.75852	0.34415
1041.47275	0.35034
1040.18698	0.35665
1038.90121	0.36303
1037.61544	0.36946
1036.32967	0.37591
1035.04391	0.38229
1033.75814	0.38852
1032.47237	0.39450
1031.18660	0.40016
1029.90083	0.40543
1028.61506	0.41014
1027.32929	0.41414
1026.04352	0.41737
1024.75775	0.41994
1023.47199	0.42198
1022.18622	0.42357
1020.90045	0.42456
1019.61468	0.42471
1018.32891	0.42388
1017.04314	0.42206
1015.75737	0.41934
1014.47160	0.41580
1013.18584	0.41150
1011.90007	0.40643
1010.61430	0.40051
1009.32853	0.39365
1008.04276	0.38591
1006.75699	0.37740
1005.47122	0.36826
1004.18545	0.35858
1002.89968	0.34838
1001.61392	0.33772
1000.32815	0.32668
999.04238	0.31534
997.75661	0.30379
996.47084	0.29218
995.18507	0.28070
993.89930	0.26942
992.61353	0.25834
991.32777	0.24742
990.04200	0.23671
988.75623	0.22629
987.47046	0.21622
986.18469	0.20652
984.89892	0.19725
983.61315	0.18847
982.32738	0.18025
981.04161	0.17260
979.75585	0.16548
978.47008	0.15886
977.18431	0.15277
975.89854	0.14730
974.61277	0.14257
973.32700	0.13868
972.04123	0.13564
970.75546	0.13349
969.46970	0.13228
968.18393	0.13201
966.89816	0.13258
965.61239	0.13376
964.32662	0.13525
963.04085	0.13662
961.75508	0.13743
960.46931	0.13731
959.18354	0.13606
957.89778	0.13377
956.61201	0.13067
955.32624	0.12707
954.04047	0.12321
952.75470	0.11924
951.46893	0.11529
950.18316	0.11146
948.89739	0.10783
947.61163	0.10435
946.32586	0.10096
945.04009	0.09765
943.75432	0.09439
942.46855	0.09121
941.18278	0.08816
939.89701	0.08529
938.61124	0.08263
937.32547	0.08015
936.03971	0.07783
934.75394	0.07567
933.46817	0.07366
932.18240	0.07178
930.89663	0.07000
929.61086	0.06836
928.32509	0.06690
927.03932	0.06560
925.75356	0.06438
924.46779	0.06316
923.18202	0.06192
921.89625	0.06072
920.61048	0.05964
919.32471	0.05868
918.03894	0.05780
916.75317	0.05697
915.46740	0.05615
914.18164	0.05536
912.89587	0.05462
911.61010	0.05394
910.32433	0.05335
909.03856	0.05285
907.75279	0.05244
906.46702	0.05203
905.18125	0.05155
903.89549	0.05100
902.60972	0.05046
901.32395	0.04995
900.03818	0.04948
898.75241	0.04903
897.46664	0.04862
896.18087	0.04829
894.89510	0.04810
893.60933	0.04806
892.32357	0.04822
891.03780	0.04857
889.75203	0.04908
888.46626	0.04973
887.18049	0.05068
885.89472	0.05225
884.60895	0.05476
883.32318	0.05829
882.03742	0.06247
880.75165	0.06663
879.46588	0.07013
878.18011	0.07283
876.89434	0.07506
875.60857	0.07732
874.32280	0.07969
873.03703	0.08168
871.75126	0.08266
870.46550	0.08223
869.17973	0.08050
867.89396	0.07783
866.60819	0.07459
865.32242	0.07109
864.03665	0.06759
862.75088	0.06432
861.46511	0.06135
860.17935	0.05864
858.89358	0.05620
857.60781	0.05409
856.32204	0.05234
855.03627	0.05093
853.75050	0.04976
852.46473	0.04881
851.17896	0.04811
849.89319	0.04761
848.60743	0.04720
847.32166	0.04679
846.03589	0.04630
844.75012	0.04573
843.46435	0.04513
842.17858	0.04460
840.89281	0.04421
839.60704	0.04392
838.32128	0.04366
837.03551	0.04339
835.74974	0.04311
834.46397	0.04282
833.17820	0.04250
831.89243	0.04220
830.60666	0.04198
829.32089	0.04184
828.03512	0.04175
826.74936	0.04164
825.46359	0.04152
824.17782	0.04140
822.89205	0.04130
821.60628	0.04128
820.32051	0.04132
819.03474	0.04133
817.74897	0.04122
816.46321	0.04096
815.17744	0.04061
813.89167	0.04030
812.60590	0.04006
811.32013	0.03993
810.03436	0.03989
808.74859	0.03994
807.46282	0.04000
806.17705	0.03997
804.89129	0.03983
803.60552	0.03966
802.31975	0.03956
801.03398	0.03956
799.74821	0.03960
798.46244	0.03963
797.17667	0.03966
795.89090	0.03971
794.60513	0.03972
793.31937	0.03964
792.03360	0.03946
790.74783	0.03926
789.46206	0.03913
788.17629	0.03910
786.89052	0.03919
785.60475	0.03934
784.31898	0.03944
783.03322	0.03942
781.74745	0.03929
780.46168	0.03914
779.17591	0.03902
777.89014	0.03893
776.60437	0.03889
775.31860	0.03891
774.03283	0.03897
772.74706	0.03901
771.46130	0.03899
770.17553	0.03897
768.88976	0.03901
767.60399	0.03908
766.31822	0.03914
765.03245	0.03913
763.74668	0.03904
762.46091	0.03895
761.17515	0.03896
759.88938	0.03910
758.60361	0.03930
757.31784	0.03949
756.03207	0.03963
754.74630	0.03971
753.46053	0.03973
752.17476	0.03965
750.88899	0.03948
749.60323	0.03928
748.31746	0.03912
747.03169	0.03908
745.74592	0.03913
744.46015	0.03916
743.17438	0.03909
741.88861	0.03894
740.60284	0.03881
739.31708	0.03874
738.03131	0.03874
736.74554	0.03878
735.45977	0.03880
734.17400	0.03879
732.88823	0.03876
731.60246	0.03879
730.31669	0.03891
729.03092	0.03911
727.74516	0.03927
726.45939	0.03932
725.17362	0.03928
723.88785	0.03936
722.60208	0.03900
721.31631	0.03843
720.03054	0.03798
718.74477	0.03776
717.45901	0.03775
716.17324	0.03792
714.88747	0.03819
713.60170	0.03846
712.31593	0.03867
711.03016	0.03881
709.74439	0.03891
708.45862	0.03895
707.17285	0.03896
705.88709	0.03891
704.60132	0.03882
703.31555	0.03870
702.02978	0.03858
700.74401	0.03849
699.45824	0.03839
698.17247	0.03827
696.88670	0.03812
695.60094	0.03799
694.31517	0.03793
693.02940	0.03793
691.74363	0.03797
690.45786	0.03800
689.17209	0.03801
687.88632	0.03801
686.60055	0.03803
685.31478	0.03807
684.02902	0.03812
682.74325	0.03816
681.45748	0.03818
680.17171	0.03818
678.88594	0.03817
677.60017	0.03821
676.31440	0.03833
675.02863	0.03853
673.74287	0.03878
672.45710	0.03905
671.17133	0.03938
669.88556	0.03965
668.59979	0.03954
667.31402	0.03949
666.02825	0.03969
664.74248	0.03935
663.45671	0.03894
662.17095	0.03863
660.88518	0.03837
659.59941	0.03816
658.31364	0.03802
657.02787	0.03791
655.74210	0.03781
654.45633	0.03771
653.17056	0.03759
651.88480	0.03745
650.59903	0.03733
649.31326	0.03724
648.02749	0.03722
646.74172	0.03725
645.45595	0.03729
644.17018	0.03730
642.88441	0.03730
641.59864	0.03735
640.31288	0.03751
639.02711	0.03784
637.74134	0.03831
636.45557	0.03889
635.16980	0.03956
633.88403	0.04030
632.59826	0.04108
631.31249	0.04172
630.02673	0.04170
628.74096	0.04134
627.45519	0.04264
626.16942	0.04258
624.88365	0.04187
623.59788	0.04196
622.31211	0.04373
621.02634	0.04785
619.74057	0.05425
618.45481	0.06189
617.16904	0.06946
615.88327	0.07604
614.59750	0.08131
613.31173	0.08561
612.02596	0.08985
610.74019	0.09518
609.45442	0.10229
608.16866	0.11083
606.88289	0.11965
605.59712	0.12747
604.31135	0.13331
603.02558	0.13673
601.73981	0.13782
600.45404	0.13693
599.16827	0.13442
597.88250	0.13072
596.59674	0.12641
595.31097	0.12217
594.02520	0.11851
592.73943	0.11563
591.45366	0.11352
590.16789	0.11212
588.88212	0.11152
587.59635	0.11186
586.31059	0.11319
585.02482	0.11546
583.73905	0.11852
582.45328	0.12218
581.16751	0.12623
579.88174	0.13045
578.59597	0.13468
577.31020	0.13876
576.02443	0.14262
574.73867	0.14629
573.45290	0.14986
572.16713	0.15348
570.88136	0.15739
569.59559	0.16184
568.30982	0.16699
567.02405	0.17272
565.73828	0.17862
564.45251	0.18398
563.16675	0.18799
561.88098	0.18984
560.59521	0.18895
559.30944	0.18514
558.02367	0.17881
556.73790	0.17071
555.45213	0.16165
554.16636	0.15225
552.88060	0.14297
551.59483	0.13415
550.30906	0.12602
549.02329	0.11870
547.73752	0.11217
546.45175	0.10635
545.16598	0.10107
543.88021	0.09622
542.59444	0.09171
541.30868	0.08753
540.02291	0.08372
538.73714	0.08032
537.45137	0.07729
536.16560	0.07455
534.87983	0.07203
533.59406	0.06967
532.30829	0.06751
531.02253	0.06551
529.73676	0.06358
528.45099	0.06165
527.16522	0.05978
525.87945	0.05806
524.59368	0.05650
523.30791	0.05500
522.02214	0.05349
520.73637	0.05202
519.45061	0.05068
518.16484	0.04952
516.87907	0.04851
515.59330	0.04754
514.30753	0.04657
513.02176	0.04561
511.73599	0.04470
510.45022	0.04388
509.16446	0.04316
507.87869	0.04251
506.59292	0.04183
505.30715	0.04109
504.02138	0.04032
502.73561	0.03961
501.44984	0.03901
500.16407	0.03853
498.87830	0.03814
497.59254	0.03785
496.30677	0.03760
495.02100	0.03733
493.73523	0.03698
492.44946	0.03659
491.16369	0.03621
489.87792	0.03592
488.59215	0.03577
487.30639	0.03573
486.02062	0.03580
484.73485	0.03593
483.44908	0.03609
482.16331	0.03626
480.87754	0.03641
479.59177	0.03654
478.30600	0.03667
477.02023	0.03686
475.73447	0.03713
474.44870	0.03745
473.16293	0.03776
471.87716	0.03798
470.59139	0.03803
469.30562	0.03785
468.01985	0.03745
466.73408	0.03693
465.44832	0.03642
464.16255	0.03599
462.87678	0.03563
461.59101	0.03527
460.30524	0.03485
459.01947	0.03437
457.73370	0.03387
456.44793	0.03340
455.16216	0.03297
453.87640	0.03260
452.59063	0.03228
451.30486	0.03198
450.01909	0.03170
448.73332	0.03145
447.44755	0.03127
446.16178	0.03118
444.87601	0.03112
443.59025	0.03104
442.30448	0.03090
441.01871	0.03068
439.73294	0.03040
438.44717	0.03012
437.16140	0.02990
435.87563	0.02976
434.58986	0.02969
433.30409	0.02962
432.01833	0.02952
430.73256	0.02941
429.44679	0.02932
428.16102	0.02927
426.87525	0.02924
425.58948	0.02919
424.30371	0.02912
423.01794	0.02900
421.73218	0.02883
420.44641	0.02860
419.16064	0.02836
417.87487	0.02818
416.58910	0.02811
415.30333	0.02814
414.01756	0.02818
412.73179	0.02818
411.44602	0.02815
410.16026	0.02815
408.87449	0.02823
407.58872	0.02838
406.30295	0.02856
405.01718	0.02870
403.73141	0.02878
402.44564	0.02884
401.15987	0.02892
399.87411	0.02905
