3997.45528 0.05274
3996.16951 0.05171
3994.88374 0.05068
3993.59798 0.04928
3992.31221 0.04762
3991.02644 0.04633
3989.74067 0.04608
3988.45490 0.04711
3987.16913 0.04888
3985.88336 0.05037
3984.59759 0.05075
3983.31183 0.05006
3982.02606 0.04909
3980.74029 0.04870
3979.45452 0.04910
3978.16875 0.04989
3976.88298 0.05059
3975.59721 0.05098
3974.31144 0.05102
3973.02567 0.05076
3971.73991 0.05028
3970.45414 0.04972
3969.16837 0.04914
3967.88260 0.04859
3966.59683 0.04825
3965.31106 0.04825
3964.02529 0.04848
3962.73952 0.04863
3961.45376 0.04856
3960.16799 0.04847
3958.88222 0.04861
3957.59645 0.04906
3956.31068 0.04968
3955.02491 0.05017
3953.73914 0.05033
3952.45337 0.05028
3951.16760 0.05035
3949.88184 0.05076
3948.59607 0.05135
3947.31030 0.05171
3946.02453 0.05150
3944.73876 0.05063
3943.45299 0.04931
3942.16722 0.04795
3940.88145 0.04694
3939.59569 0.04652
3938.30992 0.04670
3937.02415 0.04725
3935.73838 0.04776
3934.45261 0.04797
3933.16684 0.04799
3931.88107 0.04820
3930.59530 0.04882
3929.30953 0.04964
3928.02377 0.05022
3926.73800 0.05022
3925.45223 0.04968
3924.16646 0.04887
3922.88069 0.04805
3921.59492 0.04751
3920.30915 0.04760
3919.02338 0.04853
3917.73762 0.05010
3916.45185 0.05164
3915.16608 0.05249
3913.88031 0.05251
3912.59454 0.05210
3911.30877 0.05174
3910.02300 0.05167
3908.73723 0.05192
3907.45146 0.05242
3906.16570 0.05297
3904.87993 0.05318
3903.59416 0.05260
3902.30839 0.05119
3901.02262 0.04949
3899.73685 0.04832
3898.45108 0.04821
3897.16531 0.04886
3895.87955 0.04948
3894.59378 0.04949
3893.30801 0.04893
3892.02224 0.04820
3890.73647 0.04766
3889.45070 0.04743
3888.16493 0.04757
3886.87916 0.04799
3885.59339 0.04837
3884.30763 0.04831
3883.02186 0.04776
3881.73609 0.04718
3880.45032 0.04712
3879.16455 0.04767
3877.87878 0.04840
3876.59301 0.04886
3875.30724 0.04899
3874.02148 0.04894
3872.73571 0.04881
3871.44994 0.04869
3870.16417 0.04888
3868.87840 0.04956
3867.59263 0.05048
3866.30686 0.05115
3865.02109 0.05130
3863.73532 0.05105
3862.44956 0.05055
3861.16379 0.04988
3859.87802 0.04917
3858.59225 0.04877
3857.30648 0.04891
3856.02071 0.04933
3854.73494 0.04941
3853.44917 0.04887
3852.16341 0.04818
3850.87764 0.04789
3849.59187 0.04795
3848.30610 0.04781
3847.02033 0.04720
3845.73456 0.04640
3844.44879 0.04593
3843.16302 0.04599
3841.87725 0.04644
3840.59149 0.04708
3839.30572 0.04776
3838.01995 0.04833
3836.73418 0.04861
3835.44841 0.04848
3834.16264 0.04788
3832.87687 0.04694
3831.59110 0.04595
3830.30534 0.04520
3829.01957 0.04475
3827.73380 0.04444
3826.44803 0.04420
3825.16226 0.04433
3823.87649 0.04512
3822.59072 0.04633
3821.30495 0.04743
3820.01918 0.04806
3818.73342 0.04822
3817.44765 0.04805
3816.16188 0.04778
3814.87611 0.04767
3813.59034 0.04773
3812.30457 0.04772
3811.01880 0.04740
3809.73303 0.04687
3808.44726 0.04642
3807.16150 0.04627
3805.87573 0.04638
3804.58996 0.04656
3803.30419 0.04669
3802.01842 0.04680
3800.73265 0.04701
3799.44688 0.04731
3798.16111 0.04747
3796.87535 0.04726
3795.58958 0.04674
3794.30381 0.04623
3793.01804 0.04602
3791.73227 0.04606
3790.44650 0.04616
3789.16073 0.04635
3787.87496 0.04680
3786.58919 0.04737
3785.30343 0.04752
3784.01766 0.04683
3782.73189 0.04556
3781.44612 0.04447
3780.16035 0.04412
3778.87458 0.04451
3777.58881 0.04529
3776.30304 0.04614
3775.01728 0.04687
3773.73151 0.04738
3772.44574 0.04754
3771.15997 0.04738
3769.87420 0.04703
3768.58843 0.04663
3767.30266 0.04630
3766.01689 0.04618
3764.73112 0.04634
3763.44536 0.04659
3762.15959 0.04652
3760.87382 0.04594
3759.58805 0.04510
3758.30228 0.04452
3757.01651 0.04461
3755.73074 0.04530
3754.44497 0.04626
3753.15921 0.04714
3751.87344 0.04772
3750.58767 0.04779
3749.30190 0.04732
3748.01613 0.04651
3746.73036 0.04553
3745.44459 0.04464
3744.15882 0.04424
3742.87305 0.04457
3741.58729 0.04537
3740.30152 0.04606
3739.01575 0.04625
3737.72998 0.04597
3736.44421 0.04557
3735.15844 0.04519
3733.87267 0.04474
3732.58690 0.04424
3731.30114 0.04401
3730.01537 0.04428
3728.72960 0.04482
3727.44383 0.04520
3726.15806 0.04525
3724.87229 0.04509
3723.58652 0.04487
3722.30075 0.04465
3721.01498 0.04441
3719.72922 0.04410
3718.44345 0.04375
3717.15768 0.04353
3715.87191 0.04361
3714.58614 0.04397
3713.30037 0.04437
3712.01460 0.04458
3710.72883 0.04455
3709.44307 0.04440
3708.15730 0.04435
3706.87153 0.04453
3705.58576 0.04488
3704.29999 0.04513
3703.01422 0.04511
3701.72845 0.04489
3700.44268 0.04456
3699.15691 0.04404
3697.87115 0.04315
3696.58538 0.04205
3695.29961 0.04127
3694.01384 0.04121
3692.72807 0.04178
3691.44230 0.04245
3690.15653 0.04257
3688.87076 0.04186
3687.58500 0.04061
3686.29923 0.03944
3685.01346 0.03889
3683.72769 0.03904
3682.44192 0.03962
3681.15615 0.04031
3679.87038 0.04100
3678.58461 0.04168
3677.29884 0.04231
3676.01308 0.04280
3674.72731 0.04308
3673.44154 0.04309
3672.15577 0.04283
3670.87000 0.04240
3669.58423 0.04198
3668.29846 0.04180
3667.01269 0.04213
3665.72693 0.04301
3664.44116 0.04394
3663.15539 0.04429
3661.86962 0.04403
3660.58385 0.04375
3659.29808 0.04394
3658.01231 0.04442
3656.72654 0.04467
3655.44077 0.04449
3654.15501 0.04412
3652.86924 0.04393
3651.58347 0.04412
3650.29770 0.04454
3649.01193 0.04486
3647.72616 0.04486
3646.44039 0.04448
3645.15462 0.04386
3643.86886 0.04320
3642.58309 0.04286
3641.29732 0.04317
3640.01155 0.04421
3638.72578 0.04562
3637.44001 0.04668
3636.15424 0.04676
3634.86847 0.04588
3633.58270 0.04478
3632.29694 0.04428
3631.01117 0.04461
3629.72540 0.04532
3628.43963 0.04575
3627.15386 0.04555
3625.86809 0.04479
3624.58232 0.04387
3623.29655 0.04324
3622.01079 0.04318
3620.72502 0.04370
3619.43925 0.04466
3618.15348 0.04573
3616.86771 0.04656
3615.58194 0.04687
3614.29617 0.04664
3613.01040 0.04609
3611.72463 0.04565
3610.43887 0.04561
3609.15310 0.04595
3607.86733 0.04648
3606.58156 0.04699
3605.29579 0.04746
3604.01002 0.04798
3602.72425 0.04863
3601.43848 0.04924
3600.15272 0.04944
3598.86695 0.04902
3597.58118 0.04819
3596.29541 0.04741
3595.00964 0.04695
3593.72387 0.04685
3592.43810 0.04717
3591.15233 0.04796
3589.86656 0.04903
3588.58080 0.04992
3587.29503 0.05028
3586.00926 0.05014
3584.72349 0.04970
3583.43772 0.04914
3582.15195 0.04858
3580.86618 0.04812
3579.58041 0.04782
3578.29464 0.04777
3577.00888 0.04814
3575.72311 0.04896
3574.43734 0.04993
3573.15157 0.05059
3571.86580 0.05070
3570.58003 0.05041
3569.29426 0.04996
3568.00849 0.04957
3566.72273 0.04934
3565.43696 0.04935
3564.15119 0.04963
3562.86542 0.04999
3561.57965 0.05023
3560.29388 0.05031
3559.00811 0.05047
3557.72234 0.05094
3556.43657 0.05163
3555.15081 0.05216
3553.86504 0.05223
3552.57927 0.05189
3551.29350 0.05147
3550.00773 0.05138
3548.72196 0.05182
3547.43619 0.05258
3546.15042 0.05325
3544.86466 0.05358
3543.57889 0.05368
3542.29312 0.05371
3541.00735 0.05357
3539.72158 0.05310
3538.43581 0.05229
3537.15004 0.05139
3535.86427 0.05066
3534.57850 0.05023
3533.29274 0.05017
3532.00697 0.05059
3530.72120 0.05150
3529.43543 0.05265
3528.14966 0.05359
3526.86389 0.05405
3525.57812 0.05421
3524.29235 0.05454
3523.00659 0.05522
3521.72082 0.05585
3520.43505 0.05595
3519.14928 0.05547
3517.86351 0.05490
3516.57774 0.05464
3515.29197 0.05474
3514.00620 0.05508
3512.72043 0.05556
3511.43467 0.05602
3510.14890 0.05627
3508.86313 0.05628
3507.57736 0.05620
3506.29159 0.05610
3505.00582 0.05589
3503.72005 0.05549
3502.43428 0.05501
3501.14852 0.05471
3499.86275 0.05471
3498.57698 0.05495
3497.29121 0.05526
3496.00544 0.05552
3494.71967 0.05575
3493.43390 0.05604
3492.14813 0.05639
3490.86236 0.05666
3489.57660 0.05670
3488.29083 0.05662
3487.00506 0.05683
3485.71929 0.05764
3484.43352 0.05891
3483.14775 0.06002
3481.86198 0.06035
3480.57621 0.05979
3479.29045 0.05873
3478.00468 0.05769
3476.71891 0.05693
3475.43314 0.05643
3474.14737 0.05610
3472.86160 0.05600
3471.57583 0.05624
3470.29006 0.05672
3469.00429 0.05713
3467.71853 0.05724
3466.43276 0.05710
3465.14699 0.05696
3463.86122 0.05695
3462.57545 0.05713
3461.28968 0.05745
3460.00391 0.05778
3458.71814 0.05787
3457.43238 0.05761
3456.14661 0.05721
3454.86084 0.05703
3453.57507 0.05713
3452.28930 0.05732
3451.00353 0.05742
3449.71776 0.05747
3448.43199 0.05762
3447.14622 0.05786
3445.86046 0.05808
3444.57469 0.05828
3443.28892 0.05862
3442.00315 0.05920
3440.71738 0.05987
3439.43161 0.06039
3438.14584 0.06064
3436.86007 0.06055
3435.57431 0.06006
3434.28854 0.05926
3433.00277 0.05854
3431.71700 0.05841
3430.43123 0.05909
3429.14546 0.06020
3427.85969 0.06105
3426.57392 0.06122
3425.28815 0.06080
3424.00239 0.06023
3422.71662 0.05980
3421.43085 0.05953
3420.14508 0.05930
3418.85931 0.05907
3417.57354 0.05891
3416.28777 0.05896
3415.00200 0.05931
3413.71624 0.06000
3412.43047 0.06089
3411.14470 0.06161
3409.85893 0.06182
3408.57316 0.06157
3407.28739 0.06130
3406.00162 0.06149
3404.71585 0.06208
3403.43008 0.06259
3402.14432 0.06267
3400.85855 0.06243
3399.57278 0.06179
3398.28701 0.06113
3397.00124 0.06115
3395.71547 0.06159
3394.42970 0.06193
3393.14393 0.06190
3391.85817 0.06172
3390.57240 0.06186
3389.28663 0.06249
3388.00086 0.06331
3386.71509 0.06395
3385.42932 0.06436
3384.14355 0.06470
3382.85778 0.06498
3381.57201 0.06502
3380.28625 0.06481
3379.00048 0.06459
3377.71471 0.06453
3376.42894 0.06445
3375.14317 0.06412
3373.85740 0.06365
3372.57163 0.06337
3371.28586 0.06352
3370.00010 0.06395
3368.71433 0.06438
3367.42856 0.06465
3366.14279 0.06473
3364.85702 0.06465
3363.57125 0.06442
3362.28548 0.06408
3360.99971 0.06377
3359.71394 0.06357
3358.42818 0.06348
3357.14241 0.06344
3355.85664 0.06345
3354.57087 0.06362
3353.28510 0.06398
3351.99933 0.06435
3350.71356 0.06443
3349.42779 0.06404
3348.14202 0.06337
3346.85626 0.06277
3345.57049 0.06264
3344.28472 0.06318
3342.99895 0.06421
3341.71318 0.06522
3340.42741 0.06565
3339.14164 0.06536
3337.85587 0.06477
3336.57011 0.06447
3335.28434 0.06470
3333.99857 0.06525
3332.71280 0.06572
3331.42703 0.06592
3330.14126 0.06594
3328.85549 0.06588
3327.56972 0.06571
3326.28395 0.06539
3324.99819 0.06502
3323.71242 0.06476
3322.42665 0.06467
3321.14088 0.06467
3319.85511 0.06464
3318.56934 0.06452
3317.28357 0.06431
3315.99780 0.06410
3314.71204 0.06414
3313.42627 0.06456
3312.14050 0.06528
3310.85473 0.06609
3309.56896 0.06680
3308.28319 0.06732
3306.99742 0.06759
3305.71165 0.06748
3304.42588 0.06701
3303.14012 0.06638
3301.85435 0.06584
3300.56858 0.06546
3299.28281 0.06515
3297.99704 0.06479
3296.71127 0.06438
3295.42550 0.06401
3294.13973 0.06389
3292.85397 0.06410
3291.56820 0.06456
3290.28243 0.06499
3288.99666 0.06524
3287.71089 0.06535
3286.42512 0.06551
3285.13935 0.06580
3283.85358 0.06617
3282.56781 0.06650
3281.28205 0.06668
3279.99628 0.06662
3278.71051 0.06630
3277.42474 0.06578
3276.13897 0.06525
3274.85320 0.06493
3273.56743 0.06492
3272.28166 0.06512
3270.99590 0.06528
3269.71013 0.06520
3268.42436 0.06495
3267.13859 0.06483
3265.85282 0.06505
3264.56705 0.06558
3263.28128 0.06619
3261.99551 0.06667
3260.70974 0.06683
3259.42398 0.06650
3258.13821 0.06563
3256.85244 0.06449
3255.56667 0.06358
3254.28090 0.06325
3252.99513 0.06350
3251.70936 0.06400
3250.42359 0.06444
3249.13783 0.06465
3247.85206 0.06467
3246.56629 0.06465
3245.28052 0.06473
3243.99475 0.06493
3242.70898 0.06516
3241.42321 0.06531
3240.13744 0.06535
3238.85167 0.06521
3237.56591 0.06485
3236.28014 0.06437
3234.99437 0.06394
3233.70860 0.06363
3232.42283 0.06339
3231.13706 0.06319
3229.85129 0.06306
3228.56552 0.06299
3227.27976 0.06287
3225.99399 0.06260
3224.70822 0.06224
3223.42245 0.06204
3222.13668 0.06223
3220.85091 0.06278
3219.56514 0.06332
3218.27937 0.06341
3216.99360 0.06300
3215.70784 0.06239
3214.42207 0.06198
3213.13630 0.06188
3211.85053 0.06189
3210.56476 0.06183
3209.27899 0.06174
3207.99322 0.06178
3206.70745 0.06197
3205.42169 0.06215
3204.13592 0.06220
3202.85015 0.06229
3201.56438 0.06265
3200.27861 0.06326
3198.99284 0.06381
3197.70707 0.06401
3196.42130 0.06387
3195.13553 0.06354
3193.84977 0.06308
3192.56400 0.06256
3191.27823 0.06222
3189.99246 0.06229
3188.70669 0.06268
3187.42092 0.06303
3186.13515 0.06303
3184.84938 0.06271
3183.56362 0.06236
3182.27785 0.06222
3180.99208 0.06226
3179.70631 0.06222
3178.42054 0.06183
3177.13477 0.06110
3175.84900 0.06035
3174.56323 0.05995
3173.27746 0.05992
3171.99170 0.05998
3170.70593 0.05984
3169.42016 0.05949
3168.13439 0.05919
3166.84862 0.05925
3165.56285 0.05974
3164.27708 0.06045
3162.99131 0.06098
3161.70555 0.06113
3160.41978 0.06093
3159.13401 0.06053
3157.84824 0.06009
3156.56247 0.05964
3155.27670 0.05917
3153.99093 0.05875
3152.70516 0.05850
3151.41939 0.05853
3150.13363 0.05879
3148.84786 0.05912
3147.56209 0.05937
3146.27632 0.05954
3144.99055 0.05967
3143.70478 0.05979
3142.41901 0.05989
3141.13324 0.05990
3139.84748 0.05981
3138.56171 0.05970
3137.27594 0.05961
3135.99017 0.05956
3134.70440 0.05950
3133.41863 0.05942
3132.13286 0.05940
3130.84709 0.05943
3129.56132 0.05941
3128.27556 0.05920
3126.98979 0.05880
3125.70402 0.05834
3124.41825 0.05797
3123.13248 0.05782
3121.84671 0.05796
3120.56094 0.05832
3119.27517 0.05871
3117.98940 0.05895
3116.70364 0.05895
3115.41787 0.05880
3114.13210 0.05870
3112.84633 0.05880
3111.56056 0.05901
3110.27479 0.05913
3108.98902 0.05904
3107.70325 0.05877
3106.41749 0.05844
3105.13172 0.05805
3103.84595 0.05763
3102.56018 0.05730
3101.27441 0.05723
3099.98864 0.05749
3098.70287 0.05795
3097.41710 0.05836
3096.13133 0.05857
3094.84557 0.05859
3093.55980 0.05851
3092.27403 0.05845
3090.98826 0.05848
3089.70249 0.05864
3088.41672 0.05881
3087.13095 0.05878
3085.84518 0.05841
3084.55942 0.05779
3083.27365 0.05717
3081.98788 0.05676
3080.70211 0.05653
3079.41634 0.05635
3078.13057 0.05620
3076.84480 0.05618
3075.55903 0.05637
3074.27326 0.05660
3072.98750 0.05662
3071.70173 0.05643
3070.41596 0.05629
3069.13019 0.05640
3067.84442 0.05663
3066.55865 0.05673
3065.27288 0.05667
3063.98711 0.05665
3062.70135 0.05673
3061.41558 0.05676
3060.12981 0.05663
3058.84404 0.05645
3057.55827 0.05638
3056.27250 0.05645
3054.98673 0.05651
3053.70096 0.05644
3052.41519 0.05622
3051.12943 0.05598
3049.84366 0.05584
3048.55789 0.05581
3047.27212 0.05572
3045.98635 0.05544
3044.70058 0.05499
3043.41481 0.05463
3042.12904 0.05459
3040.84328 0.05481
3039.55751 0.05504
3038.27174 0.05510
3036.98597 0.05504
3035.70020 0.05504
3034.41443 0.05509
3033.12866 0.05502
3031.84289 0.05473
3030.55712 0.05436
3029.27136 0.05415
3027.98559 0.05419
3026.69982 0.05429
3025.41405 0.05424
3024.12828 0.05398
3022.84251 0.05369
3021.55674 0.05361
3020.27097 0.05383
3018.98521 0.05420
3017.69944 0.05448
3016.41367 0.05452
3015.12790 0.05436
3013.84213 0.05416
3012.55636 0.05404
3011.27059 0.05402
3009.98482 0.05398
3008.69905 0.05380
3007.41329 0.05350
3006.12752 0.05321
3004.84175 0.05304
3003.55598 0.05305
3002.27021 0.05333
3000.98444 0.05371
2999.69867 0.05350
2998.41290 0.05343
2997.12714 0.05320
2995.84137 0.05308
2994.55560 0.05322
2993.26983 0.05350
2991.98406 0.05364
2990.69829 0.05355
2989.41252 0.05339
2988.12675 0.05330
2986.84098 0.05327
2985.55522 0.05325
2984.26945 0.05328
2982.98368 0.05350
2981.69791 0.05392
2980.41214 0.05448
2979.12637 0.05506
2977.84060 0.05556
2976.55483 0.05599
2975.26907 0.05640
2973.98330 0.05684
2972.69753 0.05734
2971.41176 0.05793
2970.12599 0.05866
2968.84022 0.05954
2967.55445 0.06049
2966.26868 0.06146
2964.98291 0.06248
2963.69715 0.06362
2962.41138 0.06485
2961.12561 0.06610
2959.83984 0.06730
2958.55407 0.06840
2957.26830 0.06935
2955.98253 0.07007
2954.69676 0.07050
2953.41100 0.07072
2952.12523 0.07088
2950.83946 0.07107
2949.55369 0.07127
2948.26792 0.07143
2946.98215 0.07153
2945.69638 0.07144
2944.41061 0.07105
2943.12484 0.07046
2941.83908 0.07006
2940.55331 0.07021
2939.26754 0.07089
2937.98177 0.07182
2936.69600 0.07266
2935.41023 0.07327
2934.12446 0.07379
2932.83869 0.07440
2931.55293 0.07513
2930.26716 0.07588
2928.98139 0.07661
2927.69562 0.07744
2926.40985 0.07835
2925.12408 0.07910
2923.83831 0.07949
2922.55254 0.07953
2921.26677 0.07940
2919.98101 0.07914
2918.69524 0.07868
2917.40947 0.07804
2916.12370 0.07736
2914.83793 0.07675
2913.55216 0.07615
2912.26639 0.07551
2910.98062 0.07493
2909.69486 0.07441
2908.40909 0.07379
2907.12332 0.07295
2905.83755 0.07209
2904.55178 0.07150
2903.26601 0.07120
2901.98024 0.07093
2900.69447 0.07046
2899.40870 0.06975
2898.12294 0.06895
2896.83717 0.06822
2895.55140 0.06757
2894.26563 0.06696
2892.97986 0.06632
2891.69409 0.06561
2890.40832 0.06488
2889.12255 0.06422
2887.83678 0.06372
2886.55102 0.06342
2885.26525 0.06321
2883.97948 0.06294
2882.69371 0.06260
2881.40794 0.06234
2880.12217 0.06228
2878.83640 0.06239
2877.55063 0.06260
2876.26487 0.06300
2874.97910 0.06363
2873.69333 0.06436
2872.40756 0.06492
2871.12179 0.06524
2869.83602 0.06552
2868.55025 0.06589
2867.26448 0.06624
2865.97871 0.06641
2864.69295 0.06635
2863.40718 0.06617
2862.12141 0.06597
2860.83564 0.06578
2859.54987 0.06560
2858.26410 0.06541
2856.97833 0.06517
2855.69256 0.06492
2854.40680 0.06472
2853.12103 0.06461
2851.83526 0.06447
2850.54949 0.06416
2849.26372 0.06366
2847.97795 0.06308
2846.69218 0.06253
2845.40641 0.06194
2844.12064 0.06123
2842.83488 0.06039
2841.54911 0.05945
2840.26334 0.05844
2838.97757 0.05741
2837.69180 0.05649
2836.40603 0.05577
2835.12026 0.05525
2833.83449 0.05488
2832.54873 0.05464
2831.26296 0.05443
2829.97719 0.05407
2828.69142 0.05352
2827.40565 0.05294
2826.11988 0.05250
2824.83411 0.05215
2823.54834 0.05175
2822.26257 0.05128
2820.97681 0.05084
2819.69104 0.05048
2818.40527 0.05017
2817.11950 0.04988
2815.83373 0.04962
2814.54796 0.04945
2813.26219 0.04943
2811.97642 0.04957
2810.69066 0.04976
2809.40489 0.04985
2808.11912 0.04975
2806.83335 0.04948
2805.54758 0.04913
2804.26181 0.04876
2802.97604 0.04838
2801.69027 0.04804
2800.40450 0.04779
2799.11874 0.04764
2797.83297 0.04755
2796.54720 0.04749
2795.26143 0.04749
2793.97566 0.04761
2792.68989 0.04789
2791.40412 0.04823
2790.11835 0.04849
2788.83259 0.04855
2787.54682 0.04838
2786.26105 0.04804
2784.97528 0.04766
2783.68951 0.04733
2782.40374 0.04708
2781.11797 0.04692
2779.83220 0.04688
2778.54643 0.04696
2777.26067 0.04707
2775.97490 0.04714
2774.68913 0.04712
2773.40336 0.04700
2772.11759 0.04679
2770.83182 0.04661
2769.54605 0.04658
2768.26028 0.04668
2766.97452 0.04670
2765.68875 0.04648
2764.40298 0.04612
2763.11721 0.04589
2761.83144 0.04594
2760.54567 0.04615
2759.25990 0.04629
2757.97413 0.04620
2756.68836 0.04591
2755.40260 0.04557
2754.11683 0.04534
2752.83106 0.04527
2751.54529 0.04527
2750.25952 0.04521
2748.97375 0.04506
2747.68798 0.04483
2746.40221 0.04460
2745.11645 0.04441
2743.83068 0.04433
2742.54491 0.04439
2741.25914 0.04454
2739.97337 0.04471
2738.68760 0.04487
2737.40183 0.04503
2736.11606 0.04516
2734.83029 0.04515
2733.54453 0.04498
2732.25876 0.04480
2730.97299 0.04472
2729.68722 0.04466
2728.40145 0.04456
2727.11568 0.04440
2725.82991 0.04420
2724.54414 0.04397
2723.25838 0.04375
2721.97261 0.04361
2720.68684 0.04362
2719.40107 0.04371
2718.11530 0.04379
2716.82953 0.04377
2715.54376 0.04368
2714.25799 0.04359
2712.97222 0.04357
2711.68646 0.04358
2710.40069 0.04352
2709.11492 0.04337
2707.82915 0.04317
2706.54338 0.04303
2705.25761 0.04296
2703.97184 0.04300
2702.68607 0.04314
2701.40031 0.04331
2700.11454 0.04336
2698.82877 0.04322
2697.54300 0.04298
2696.25723 0.04285
2694.97146 0.04291
2693.68569 0.04305
2692.39992 0.04308
2691.11415 0.04286
2689.82839 0.04252
2688.54262 0.04228
2687.25685 0.04224
2685.97108 0.04227
2684.68531 0.04222
2683.39954 0.04213
2682.11377 0.04215
2680.82800 0.04226
2679.54224 0.04233
2678.25647 0.04226
2676.97070 0.04206
2675.68493 0.04182
2674.39916 0.04167
2673.11339 0.04162
2671.82762 0.04164
2670.54185 0.04163
2669.25608 0.04162
2667.97032 0.04161
2666.68455 0.04156
2665.39878 0.04142
2664.11301 0.04123
2662.82724 0.04113
2661.54147 0.04121
2660.25570 0.04142
2658.96993 0.04165
2657.68417 0.04184
2656.39840 0.04200
2655.11263 0.04217
2653.82686 0.04240
2652.54109 0.04262
2651.25532 0.04266
2649.96955 0.04232
2648.68378 0.04159
2647.39801 0.04077
2646.11225 0.04024
2644.82648 0.04016
2643.54071 0.04039
2642.25494 0.04065
2640.96917 0.04072
2639.68340 0.04064
2638.39763 0.04052
2637.11186 0.04044
2635.82609 0.04036
2634.54033 0.04017
2633.25456 0.03992
2631.96879 0.03973
2630.68302 0.03968
2629.39725 0.03976
2628.11148 0.03986
2626.82571 0.03983
2625.53994 0.03957
2624.25418 0.03916
2622.96841 0.03877
2621.68264 0.03849
2620.39687 0.03827
2619.11110 0.03800
2617.82533 0.03769
2616.53956 0.03751
2615.25379 0.03757
2613.96802 0.03789
2612.68226 0.03826
2611.39649 0.03844
2610.11072 0.03834
2608.82495 0.03807
2607.53918 0.03780
2606.25341 0.03758
2604.96764 0.03736
2603.68187 0.03715
2602.39611 0.03702
2601.11034 0.03707
2599.82457 0.03729
2598.53880 0.03741
2597.25303 0.03717
2595.96726 0.03649
2594.68149 0.03566
2593.39572 0.03499
2592.10995 0.03465
2590.82419 0.03458
2589.53842 0.03470
2588.25265 0.03500
2586.96688 0.03540
2585.68111 0.03579
2584.39534 0.03605
2583.10957 0.03612
2581.82380 0.03598
2580.53804 0.03570
2579.25227 0.03539
2577.96650 0.03512
2576.68073 0.03490
2575.39496 0.03475
2574.10919 0.03466
2572.82342 0.03457
2571.53765 0.03437
2570.25188 0.03419
2568.96612 0.03427
2567.68035 0.03467
2566.39458 0.03512
2565.10881 0.03527
2563.82304 0.03503
2562.53727 0.03463
2561.25150 0.03437
2559.96573 0.03432
2558.67997 0.03426
2557.39420 0.03392
2556.10843 0.03334
2554.82266 0.03289
2553.53689 0.03287
2552.25112 0.03321
2550.96535 0.03362
2549.67958 0.03381
2548.39381 0.03371
2547.10805 0.03339
2545.82228 0.03297
2544.53651 0.03261
2543.25074 0.03245
2541.96497 0.03260
2540.67920 0.03295
2539.39343 0.03325
2538.10766 0.03325
2536.82190 0.03293
2535.53613 0.03256
2534.25036 0.03241
2532.96459 0.03255
2531.67882 0.03275
2530.39305 0.03263
2529.10728 0.03200
2527.82151 0.03111
2526.53574 0.03047
2525.24998 0.03044
2523.96421 0.03100
2522.67844 0.03187
2521.39267 0.03272
2520.10690 0.03325
2518.82113 0.03329
2517.53536 0.03287
2516.24959 0.03225
2514.96383 0.03173
2513.67806 0.03148
2512.39229 0.03147
2511.10652 0.03165
2509.82075 0.03190
2508.53498 0.03207
2507.24921 0.03198
2505.96344 0.03166
2504.67767 0.03130
2503.39191 0.03112
2502.10614 0.03114
2500.82037 0.03132
2499.53460 0.03161
2498.24883 0.03192
2496.96306 0.03217
2495.67729 0.03231
2494.39152 0.03236
2493.10576 0.03233
2491.81999 0.03224
2490.53422 0.03214
2489.24845 0.03199
2487.96268 0.03177
2486.67691 0.03152
2485.39114 0.03141
2484.10537 0.03159
2482.81960 0.03198
2481.53384 0.03229
2480.24807 0.03230
2478.96230 0.03199
2477.67653 0.03160
2476.39076 0.03136
2475.10499 0.03134
2473.81922 0.03136
2472.53345 0.03118
2471.24769 0.03071
2469.96192 0.03012
2468.67615 0.02972
2467.39038 0.02980
2466.10461 0.03037
2464.81884 0.03115
2463.53307 0.03176
2462.24730 0.03194
2460.96153 0.03178
2459.67577 0.03152
2458.39000 0.03130
2457.10423 0.03107
2455.81846 0.03073
2454.53269 0.03031
2453.24692 0.03003
2451.96115 0.03012
2450.67538 0.03054
2449.38962 0.03102
2448.10385 0.03129
2446.81808 0.03129
2445.53231 0.03109
2444.24654 0.03081
2442.96077 0.03050
2441.67500 0.03024
2440.38923 0.03010
2439.10346 0.03008
2437.81770 0.03012
2436.53193 0.03016
2435.24616 0.03014
2433.96039 0.03007
2432.67462 0.03008
2431.38885 0.03024
2430.10308 0.03046
2428.81731 0.03047
2427.53155 0.03014
2426.24578 0.02967
2424.96001 0.02935
2423.67424 0.02934
2422.38847 0.02956
2421.10270 0.02983
2419.81693 0.03001
2418.53116 0.03002
2417.24539 0.02986
2415.95963 0.02964
2414.67386 0.02953
2413.38809 0.02965
2412.10232 0.02995
2410.81655 0.03022
2409.53078 0.03021
2408.24501 0.02981
2406.95924 0.02912
2405.67347 0.02850
2404.38771 0.02828
2403.10194 0.02850
2401.81617 0.02883
2400.53040 0.02895
2399.24463 0.02969
2397.95886 0.02894
2396.67309 0.02845
2395.38732 0.02853
2394.10156 0.02869
2392.81579 0.02877
2391.53002 0.02875
2390.24425 0.02862
2388.95848 0.02843
2387.67271 0.02829
2386.38694 0.02838
2385.10117 0.02872
2383.81540 0.02914
2382.52964 0.02941
2381.24387 0.02943
2379.95810 0.02929
2378.67233 0.02912
2377.38656 0.02904
2376.10079 0.02906
2374.81502 0.02914
2373.52925 0.02924
2372.24349 0.02933
2370.95772 0.02939
2369.67195 0.02945
2368.38618 0.02958
2367.10041 0.02976
2365.81464 0.02991
2364.52887 0.02996
2363.24310 0.02994
2361.95733 0.02994
2360.67157 0.02997
2359.38580 0.03002
2358.10003 0.03005
2356.81426 0.03008
2355.52849 0.03013
2354.24272 0.03021
2352.95695 0.03028
2351.67118 0.03034
2350.38542 0.03034
2349.09965 0.03031
2347.81388 0.03031
2346.52811 0.03040
2345.24234 0.03057
2343.95657 0.03067
2342.67080 0.03065
2341.38503 0.03059
2340.09926 0.03063
2338.81350 0.03075
2337.52773 0.03083
2336.24196 0.03080
2334.95619 0.03070
2333.67042 0.03064
2332.38465 0.03066
2331.09888 0.03072
2329.81311 0.03081
2328.52735 0.03104
2327.24158 0.03151
2325.95581 0.03218
2324.67004 0.03283
2323.38427 0.03325
2322.09850 0.03337
2320.81273 0.03322
2319.52696 0.03285
2318.24119 0.03235
2316.95543 0.03176
2315.66966 0.03117
2314.38389 0.03061
2313.09812 0.03015
2311.81235 0.02980
2310.52658 0.02955
2309.24081 0.02931
2307.95504 0.02904
2306.66928 0.02872
2305.38351 0.02837
2304.09774 0.02809
2302.81197 0.02801
2301.52620 0.02821
2300.24043 0.02856
2298.95466 0.02886
2297.66889 0.02899
2296.38312 0.02902
2295.09736 0.02908
2293.81159 0.02911
2292.52582 0.02893
2291.24005 0.02847
2289.95428 0.02798
2288.66851 0.02772
2287.38274 0.02769
2286.09697 0.02762
2284.81121 0.02730
2283.52544 0.02683
2282.23967 0.02649
2280.95390 0.02645
2279.66813 0.02662
2278.38236 0.02677
2277.09659 0.02676
2275.81082 0.02661
2274.52505 0.02645
2273.23929 0.02636
2271.95352 0.02624
2270.66775 0.02592
2269.38198 0.02539
2268.09621 0.02479
2266.81044 0.02430
2265.52467 0.02405
2264.23890 0.02404
2262.95314 0.02408
2261.66737 0.02390
2260.38160 0.02337
2259.09583 0.02266
2257.81006 0.02213
2256.52429 0.02201
2255.23852 0.02226
2253.95275 0.02268
2252.66698 0.02293
2251.38122 0.02248
2250.09545 0.02162
2248.80968 0.02193
2247.52391 0.02141
2246.23814 0.02126
2244.95237 0.02143
2243.66660 0.02156
2242.38083 0.02139
2241.09507 0.02097
2239.80930 0.02057
2238.52353 0.02044
2237.23776 0.02070
2235.95199 0.02127
2234.66622 0.02191
2233.38045 0.02236
2232.09468 0.02261
2230.80891 0.02274
2229.52315 0.02261
2228.23738 0.02192
2226.95161 0.02070
2225.66584 0.01938
2224.38007 0.01839
2223.09430 0.01780
2221.80853 0.01755
2220.52276 0.01766
2219.23700 0.01818
2217.95123 0.01900
2216.66546 0.01977
2215.37969 0.02016
2214.09392 0.02007
2212.80815 0.01973
2211.52238 0.01948
2210.23661 0.01939
2208.95084 0.01929
2207.66508 0.01892
2206.37931 0.01821
2205.09354 0.01734
2203.80777 0.01652
2202.52200 0.01583
2201.23623 0.01525
2199.95046 0.01490
2198.66469 0.01496
2197.37893 0.01537
2196.09316 0.01576
2194.80739 0.01590
2193.52162 0.01601
2192.23585 0.01648
2190.95008 0.01731
2189.66431 0.01806
2188.37854 0.01811
2187.09277 0.01716
2185.80701 0.01535
2184.52124 0.01337
2183.23547 0.01226
2181.94970 0.01275
2180.66393 0.01452
2179.37816 0.01629
2178.09239 0.01684
2176.80662 0.01601
2175.52085 0.01467
2174.23509 0.01367
2172.94932 0.01320
2171.66355 0.01313
2170.37778 0.01355
2169.09201 0.01458
2167.80624 0.01590
2166.52047 0.01675
2165.23470 0.01654
2163.94894 0.01528
2162.66317 0.01337
2161.37740 0.01115
2160.09163 0.00881
2158.80586 0.00677
2157.52009 0.00566
2156.23432 0.00551
2154.94855 0.00562
2153.66278 0.00539
2152.37702 0.00516
2151.09125 0.00576
2149.80548 0.00732
2148.51971 0.00902
2147.23394 0.01001
2145.94817 0.01031
2144.66240 0.01047
2143.37663 0.01063
2142.09087 0.01053
2140.80510 0.01014
2139.51933 0.00994
2138.23356 0.01031
2136.94779 0.01106
2135.66202 0.01179
2134.37625 0.01237
2133.09048 0.01290
2131.80471 0.01335
2130.51895 0.01361
2129.23318 0.01373
2127.94741 0.01378
2126.66164 0.01382
2125.37587 0.01397
2124.09010 0.01441
2122.80433 0.01508
2121.51856 0.01569
2120.23280 0.01606
2118.94703 0.01637
2117.66126 0.01679
2116.37549 0.01717
2115.08972 0.01723
2113.80395 0.01696
2112.51818 0.01663
2111.23241 0.01655
2109.94664 0.01681
2108.66088 0.01722
2107.37511 0.01734
2106.08934 0.01688
2104.80357 0.01600
2103.51780 0.01530
2102.23203 0.01516
2100.94626 0.01540
2099.66049 0.01680
2098.37473 0.01750
2097.08896 0.01709
2095.80319 0.01628
2094.51742 0.01553
2093.23165 0.01508
2091.94588 0.01495
2090.66011 0.01497
2089.37434 0.01480
2088.08857 0.01432
2086.80281 0.01377
2085.51704 0.01357
2084.23127 0.01401
2082.94550 0.01498
2081.65973 0.01606
2080.37396 0.01677
2079.08819 0.01694
2077.80242 0.01679
2076.51666 0.01661
2075.23089 0.01648
2073.94512 0.01633
2072.65935 0.01620
2071.37358 0.01623
2070.08781 0.01639
2068.80204 0.01646
2067.51627 0.01620
2066.23050 0.01555
2064.94474 0.01464
2063.65897 0.01370
2062.37320 0.01295
2061.08743 0.01255
2059.80166 0.01261
2058.51589 0.01308
2057.23012 0.01366
2055.94435 0.01392
2054.65859 0.01371
2053.37282 0.01344
2052.08705 0.01364
2050.80128 0.01429
2049.51551 0.01479
2048.22974 0.01460
2046.94397 0.01375
2045.65820 0.01274
2044.37243 0.01197
2043.08667 0.01152
2041.80090 0.01130
2040.51513 0.01133
2039.22936 0.01171
2037.94359 0.01236
2036.65782 0.01282
2035.37205 0.01256
2034.08628 0.01143
2032.80052 0.00978
2031.51475 0.00816
2030.22898 0.00699
2028.94321 0.00648
2027.65744 0.00667
2026.37167 0.00738
2025.08590 0.00823
2023.80013 0.00883
2022.51436 0.00903
2021.22860 0.00890
2019.94283 0.00863
2018.65706 0.00844
2017.37129 0.00846
2016.08552 0.00861
2014.79975 0.00868
2013.51398 0.00870
2012.22821 0.00896
2010.94245 0.00957
2009.65668 0.01013
2008.37091 0.01008
2007.08514 0.00937
2005.79937 0.00846
2004.51360 0.00784
2003.22783 0.00764
2001.94206 0.00783
2000.65629 0.00841
1999.37053 0.00937
1998.08476 0.01045
1996.79899 0.01136
1995.51322 0.01205
1994.22745 0.01267
1992.94168 0.01330
1991.65591 0.01373
1990.37014 0.01378
1989.08438 0.01353
1987.79861 0.01330
1986.51284 0.01336
1985.22707 0.01378
1983.94130 0.01445
1982.65553 0.01514
1981.36976 0.01568
1980.08399 0.01606
1978.79822 0.01636
1977.51246 0.01654
1976.22669 0.01637
1974.94092 0.01578
1973.65515 0.01499
1972.36938 0.01445
1971.08361 0.01449
1969.79784 0.01509
1968.51207 0.01570
1967.22631 0.01563
1965.94054 0.01473
1964.65477 0.01361
1963.36900 0.01303
1962.08323 0.01301
1960.79746 0.01300
1959.51169 0.01268
1958.22592 0.01227
1956.94015 0.01209
1955.65439 0.01215
1954.36862 0.01230
1953.08285 0.01255
1951.79708 0.01295
1950.51131 0.01338
1949.22554 0.01368
1947.93977 0.01382
1946.65400 0.01398
1945.36823 0.01436
1944.08247 0.01493
1942.79670 0.01555
1941.51093 0.01611
1940.22516 0.01662
1938.93939 0.01707
1937.65362 0.01734
1936.36785 0.01730
1935.08208 0.01698
1933.79632 0.01658
1932.51055 0.01631
1931.22478 0.01622
1929.93901 0.01628
1928.65324 0.01644
1927.36747 0.01667
1926.08170 0.01682
1924.79593 0.01679
1923.51016 0.01671
1922.22440 0.01692
1920.93863 0.01754
1919.65286 0.01827
1918.36709 0.01867
1917.08132 0.01858
1915.79555 0.01823
1914.50978 0.01792
1913.22401 0.01777
1911.93825 0.01771
1910.65248 0.01765
1909.36671 0.01756
1908.08094 0.01738
1906.79517 0.01709
1905.50940 0.01670
1904.22363 0.01633
1902.93786 0.01611
1901.65209 0.01612
1900.36633 0.01632
1899.08056 0.01666
1897.79479 0.01709
1896.50902 0.01760
1895.22325 0.01815
1893.93748 0.01862
1892.65171 0.01891
1891.36594 0.01890
1890.08018 0.01860
1888.79441 0.01814
1887.50864 0.01772
1886.22287 0.01747
1884.93710 0.01737
1883.65133 0.01736
1882.36556 0.01736
1881.07979 0.01727
1879.79402 0.01704
1878.50826 0.01677
1877.22249 0.01669
1875.93672 0.01689
1874.65095 0.01727
1873.36518 0.01761
1872.07941 0.01780
1870.79364 0.01785
1869.50787 0.01780
1868.22211 0.01769
1866.93634 0.01758
1865.65057 0.01754
1864.36480 0.01758
1863.07903 0.01763
1861.79326 0.01762
1860.50749 0.01749
1859.22172 0.01726
1857.93595 0.01708
1856.65019 0.01709
1855.36442 0.01731
1854.07865 0.01759
1852.79288 0.01773
1851.50711 0.01765
1850.22134 0.01744
1848.93557 0.01728
1847.64980 0.01730
1846.36404 0.01747
1845.07827 0.01765
1843.79250 0.01774
1842.50673 0.01770
1841.22096 0.01757
1839.93519 0.01743
1838.64942 0.01733
1837.36365 0.01727
1836.07788 0.01726
1834.79212 0.01734
1833.50635 0.01748
1832.22058 0.01759
1830.93481 0.01764
1829.64904 0.01768
1828.36327 0.01781
1827.07750 0.01806
1825.79173 0.01838
1824.50597 0.01873
1823.22020 0.01900
1821.93443 0.01907
1820.64866 0.01885
1819.36289 0.01834
1818.07712 0.01773
1816.79135 0.01721
1815.50558 0.01686
1814.21981 0.01667
1812.93405 0.01659
1811.64828 0.01658
1810.36251 0.01666
1809.07674 0.01680
1807.79097 0.01698
1806.50520 0.01721
1805.21943 0.01751
1803.93366 0.01785
1802.64790 0.01813
1801.36213 0.01826
1800.07636 0.01827
1798.79059 0.01825
1797.50482 0.01828
1796.21905 0.01838
1794.93328 0.01851
1793.64751 0.01859
1792.36174 0.01861
1791.07598 0.01865
1789.79021 0.01874
1788.50444 0.01884
1787.21867 0.01886
1785.93290 0.01876
1784.64713 0.01865
1783.36136 0.01863
1782.07559 0.01871
1780.78983 0.01881
1779.50406 0.01881
1778.21829 0.01872
1776.93252 0.01859
1775.64675 0.01848
1774.36098 0.01837
1773.07521 0.01823
1771.78944 0.01810
1770.50367 0.01802
1769.21791 0.01799
1767.93214 0.01800
1766.64637 0.01809
1765.36060 0.01828
1764.07483 0.01855
1762.78906 0.01878
1761.50329 0.01888
1760.21752 0.01879
1758.93176 0.01860
1757.64599 0.01842
1756.36022 0.01833
1755.07445 0.01833
1753.78868 0.01838
1752.50291 0.01844
1751.21714 0.01851
1749.93137 0.01859
1748.64560 0.01865
1747.35984 0.01867
1746.07407 0.01867
1744.78830 0.01868
1743.50253 0.01873
1742.21676 0.01879
1740.93099 0.01880
1739.64522 0.01879
1738.35945 0.01882
1737.07369 0.01891
1735.78792 0.01900
1734.50215 0.01905
1733.21638 0.01904
1731.93061 0.01897
1730.64484 0.01886
1729.35907 0.01877
1728.07330 0.01874
1726.78753 0.01879
1725.50177 0.01888
1724.21600 0.01899
1722.93023 0.01918
1721.64446 0.01950
1720.35869 0.01990
1719.07292 0.02025
1717.78715 0.02049
1716.50138 0.02059
1715.21561 0.02062
1713.92985 0.02069
1712.64408 0.02089
1711.35831 0.02124
1710.07254 0.02171
1708.78677 0.02222
1707.50100 0.02273
1706.21523 0.02322
1704.92946 0.02373
1703.64370 0.02427
1702.35793 0.02484
1701.07216 0.02540
1699.78639 0.02598
1698.50062 0.02657
1697.21485 0.02707
1695.92908 0.02747
1694.64331 0.02780
1693.35754 0.02808
1692.07178 0.02837
1690.78601 0.02876
1689.50024 0.02934
1688.21447 0.03008
1686.92870 0.03088
1685.64293 0.03158
1684.35716 0.03211
1683.07139 0.03251
1681.78563 0.03285
1680.49986 0.03323
1679.21409 0.03374
1677.92832 0.03431
1676.64255 0.03489
1675.35678 0.03545
1674.07101 0.03605
1672.78524 0.03668
1671.49947 0.03733
1670.21371 0.03795
1668.92794 0.03852
1667.64217 0.03903
1666.35640 0.03952
1665.07063 0.04003
1663.78486 0.04054
1662.49909 0.04104
1661.21332 0.04150
1659.92756 0.04192
1658.64179 0.04242
1657.35602 0.04308
1656.07025 0.04389
1654.78448 0.04467
1653.49871 0.04521
1652.21294 0.04545
1650.92717 0.04546
1649.64140 0.04536
1648.35564 0.04526
1647.06987 0.04519
1645.78410 0.04510
1644.49833 0.04493
1643.21256 0.04467
1641.92679 0.04436
1640.64102 0.04410
1639.35525 0.04398
1638.06949 0.04395
1636.78372 0.04388
1635.49795 0.04365
1634.21218 0.04323
1632.92641 0.04272
1631.64064 0.04224
1630.35487 0.04187
1629.06910 0.04160
1627.78333 0.04137
1626.49757 0.04114
1625.21180 0.04088
1623.92603 0.04060
1622.64026 0.04035
1621.35449 0.04015
1620.06872 0.04004
1618.78295 0.03995
1617.49718 0.03984
1616.21142 0.03970
1614.92565 0.03955
1613.63988 0.03943
1612.35411 0.03935
1611.06834 0.03936
1609.78257 0.03943
1608.49680 0.03952
1607.21103 0.03960
1605.92526 0.03968
1604.63950 0.03979
1603.35373 0.03996
1602.06796 0.04019
1600.78219 0.04046
1599.49642 0.04072
1598.21065 0.04097
1596.92488 0.04124
1595.63911 0.04159
1594.35335 0.04201
1593.06758 0.04249
1591.78181 0.04296
1590.49604 0.04339
1589.21027 0.04379
1587.92450 0.04420
1586.63873 0.04464
1585.35296 0.04510
1584.06719 0.04556
1582.78143 0.04608
1581.49566 0.04673
1580.20989 0.04753
1578.92412 0.04844
1577.63835 0.04935
1576.35258 0.05019
1575.06681 0.05096
1573.78104 0.05169
1572.49528 0.05241
1571.20951 0.05309
1569.92374 0.05372
1568.63797 0.05428
1567.35220 0.05476
1566.06643 0.05520
1564.78066 0.05570
1563.49489 0.05632
1562.20912 0.05703
1560.92336 0.05773
1559.63759 0.05828
1558.35182 0.05866
1557.06605 0.05889
1555.78028 0.05900
1554.49451 0.05904
1553.20874 0.05908
1551.92297 0.05913
1550.63721 0.05915
1549.35144 0.05917
1548.06567 0.05916
1546.77990 0.05912
1545.49413 0.05905
1544.20836 0.05895
1542.92259 0.05877
1541.63682 0.05844
1540.35105 0.05794
1539.06529 0.05730
1537.77952 0.05664
1536.49375 0.05604
1535.20798 0.05555
1533.92221 0.05519
1532.63644 0.05497
1531.35067 0.05486
1530.06490 0.05484
1528.77914 0.05490
1527.49337 0.05504
1526.20760 0.05529
1524.92183 0.05566
1523.63606 0.05610
1522.35029 0.05655
1521.06452 0.05700
1519.77875 0.05748
1518.49298 0.05801
1517.20722 0.05862
1515.92145 0.05933
1514.63568 0.06017
1513.34991 0.06115
1512.06414 0.06228
1510.77837 0.06354
1509.49260 0.06488
1508.20683 0.06617
1506.92107 0.06734
1505.63530 0.06835
1504.34953 0.06924
1503.06376 0.07009
1501.77799 0.07098
1500.49222 0.07192
1499.20645 0.07281
1497.92068 0.07357
1496.63491 0.07419
1495.34915 0.07478
1494.06338 0.07540
1492.77761 0.07606
1491.49184 0.07677
1490.20607 0.07754
1488.92030 0.07836
1487.63453 0.07922
1486.34876 0.08013
1485.06299 0.08110
1483.77723 0.08215
1482.49146 0.08328
1481.20569 0.08448
1479.91992 0.08573
1478.63415 0.08702
1477.34838 0.08833
1476.06261 0.08964
1474.77684 0.09088
1473.49108 0.09198
1472.20531 0.09294
1470.91954 0.09381
1469.63377 0.09463
1468.34800 0.09543
1467.06223 0.09621
1465.77646 0.09696
1464.49069 0.09768
1463.20492 0.09844
1461.91916 0.09933
1460.63339 0.10039
1459.34762 0.10156
1458.06185 0.10271
1456.77608 0.10375
1455.49031 0.10461
1454.20454 0.10534
1452.91877 0.10599
1451.63301 0.10661
1450.34724 0.10719
1449.06147 0.10765
1447.77570 0.10796
1446.48993 0.10817
1445.20416 0.10826
1443.91839 0.10821
1442.63262 0.10799
1441.34685 0.10764
1440.06109 0.10724
1438.77532 0.10689
1437.48955 0.10662
1436.20378 0.10650
1434.91801 0.10656
1433.63224 0.10686
1432.34647 0.10740
1431.06070 0.10818
1429.77494 0.10913
1428.48917 0.11022
1427.20340 0.11143
1425.91763 0.11281
1424.63186 0.11433
1423.34609 0.11594
1422.06032 0.11752
1420.77455 0.11895
1419.48878 0.12022
1418.20302 0.12133
1416.91725 0.12229
1415.63148 0.12310
1414.34571 0.12374
1413.05994 0.12422
1411.77417 0.12448
1410.48840 0.12445
1409.20263 0.12415
1407.91687 0.12359
1406.63110 0.12280
1405.34533 0.12179
1404.05956 0.12059
1402.77379 0.11919
1401.48802 0.11755
1400.20225 0.11567
1398.91648 0.11361
1397.63071 0.11142
1396.34495 0.10915
1395.05918 0.10681
1393.77341 0.10444
1392.48764 0.10205
1391.20187 0.09971
1389.91610 0.09742
1388.63033 0.09520
1387.34456 0.09304
1386.05880 0.09093
1384.77303 0.08883
1383.48726 0.08673
1382.20149 0.08465
1380.91572 0.08259
1379.62995 0.08054
1378.34418 0.07849
1377.05841 0.07640
1375.77264 0.07426
1374.48688 0.07206
1373.20111 0.06985
1371.91534 0.06763
1370.62957 0.06545
1369.34380 0.06334
1368.05803 0.06139
1366.77226 0.05960
1365.48649 0.05796
1364.20073 0.05640
1362.91496 0.05486
1361.62919 0.05333
1360.34342 0.05185
1359.05765 0.05049
1357.77188 0.04931
1356.48611 0.04830
1355.20034 0.04739
1353.91457 0.04653
1352.62881 0.04570
1351.34304 0.04492
1350.05727 0.04422
1348.77150 0.04359
1347.48573 0.04302
1346.19996 0.04250
1344.91419 0.04201
1343.62842 0.04155
1342.34266 0.04110
1341.05689 0.04063
1339.77112 0.04014
1338.48535 0.03963
1337.19958 0.03913
1335.91381 0.03863
1334.62804 0.03816
1333.34227 0.03772
1332.05650 0.03731
1330.77074 0.03691
1329.48497 0.03649
1328.19920 0.03606
1326.91343 0.03564
1325.62766 0.03526
1324.34189 0.03494
1323.05612 0.03467
1321.77035 0.03440
1320.48459 0.03410
1319.19882 0.03378
1317.91305 0.03343
1316.62728 0.03308
1315.34151 0.03278
1314.05574 0.03254
1312.76997 0.03237
1311.48420 0.03222
1310.19843 0.03203
1308.91267 0.03180
1307.62690 0.03154
1306.34113 0.03128
1305.05536 0.03101
1303.76959 0.03074
1302.48382 0.03049
1301.19805 0.03025
1299.91228 0.02998
1298.62652 0.02965
1297.34075 0.02927
1296.05498 0.02892
1294.76921 0.02863
1293.48344 0.02842
1292.19767 0.02826
1290.91190 0.02811
1289.62613 0.02794
1288.34036 0.02774
1287.05460 0.02753
1285.76883 0.02736
1284.48306 0.02727
1283.19729 0.02722
1281.91152 0.02716
1280.62575 0.02704
1279.33998 0.02684
1278.05421 0.02660
1276.76845 0.02636
1275.48268 0.02616
1274.19691 0.02600
1272.91114 0.02586
1271.62537 0.02571
1270.33960 0.02556
1269.05383 0.02543
1267.76806 0.02535
1266.48229 0.02529
1265.19653 0.02522
1263.91076 0.02509
1262.62499 0.02494
1261.33922 0.02480
1260.05345 0.02471
1258.76768 0.02463
1257.48191 0.02453
1256.19614 0.02441
1254.91037 0.02429
1253.62461 0.02421
1252.33884 0.02418
1251.05307 0.02419
1249.76730 0.02419
1248.48153 0.02413
1247.19576 0.02401
1245.90999 0.02388
1244.62422 0.02379
1243.33846 0.02375
1242.05269 0.02371
1240.76692 0.02362
1239.48115 0.02347
1238.19538 0.02331
1236.90961 0.02319
1235.62384 0.02310
1234.33807 0.02301
1233.05230 0.02292
1231.76654 0.02286
1230.48077 0.02280
1229.19500 0.02270
1227.90923 0.02252
1226.62346 0.02229
1225.33769 0.02208
1224.05192 0.02193
1222.76615 0.02179
1221.48039 0.02163
1220.19462 0.02143
1218.90885 0.02123
1217.62308 0.02103
1216.33731 0.02083
1215.05154 0.02064
1213.76577 0.02049
1212.48000 0.02042
1211.19423 0.02045
1209.90847 0.02053
1208.62270 0.02060
1207.33693 0.02062
1206.05116 0.02060
1204.76539 0.02056
1203.47962 0.02054
1202.19385 0.02046
1200.90808 0.02026
1199.62232 0.02015
1198.33655 0.02006
1197.05078 0.01993
1195.76501 0.01979
1194.47924 0.01965
1193.19347 0.01951
1191.90770 0.01937
1190.62193 0.01921
1189.33616 0.01908
1188.05040 0.01897
1186.76463 0.01889
1185.47886 0.01881
1184.19309 0.01871
1182.90732 0.01862
1181.62155 0.01857
1180.33578 0.01857
1179.05001 0.01860
1177.76425 0.01863
1176.47848 0.01861
1175.19271 0.01854
1173.90694 0.01844
1172.62117 0.01834
1171.33540 0.01828
1170.04963 0.01829
1168.76386 0.01837
1167.47809 0.01850
1166.19233 0.01865
1164.90656 0.01874
1163.62079 0.01874
1162.33502 0.01869
1161.04925 0.01863
1159.76348 0.01861
1158.47771 0.01867
1157.19194 0.01884
1155.90618 0.01910
1154.62041 0.01938
1153.33464 0.01962
1152.04887 0.01979
1150.76310 0.01992
1149.47733 0.02006
1148.19156 0.02026
1146.90579 0.02054
1145.62002 0.02090
1144.33426 0.02133
1143.04849 0.02183
1141.76272 0.02245
1140.47695 0.02321
1139.19118 0.02411
1137.90541 0.02514
1136.61964 0.02625
1135.33387 0.02745
1134.04811 0.02876
1132.76234 0.03023
1131.47657 0.03192
1130.19080 0.03385
1128.90503 0.03603
1127.61926 0.03846
1126.33349 0.04112
1125.04772 0.04402
1123.76195 0.04713
1122.47619 0.05041
1121.19042 0.05378
1119.90465 0.05717
1118.61888 0.06055
1117.33311 0.06396
1116.04734 0.06740
1114.76157 0.07082
1113.47580 0.07413
1112.19004 0.07732
1110.90427 0.08043
1109.61850 0.08352
1108.33273 0.08664
1107.04696 0.08974
1105.76119 0.09274
1104.47542 0.09559
1103.18965 0.09824
1101.90388 0.10068
1100.61812 0.10297
1099.33235 0.10522
1098.04658 0.10750
1096.76081 0.10984
1095.47504 0.11217
1094.18927 0.11438
1092.90350 0.11638
1091.61773 0.11812
1090.33197 0.11966
1089.04620 0.12112
1087.76043 0.12262
1086.47466 0.12419
1085.18889 0.12579
1083.90312 0.12742
1082.61735 0.12912
1081.33158 0.13097
1080.04581 0.13299
1078.76005 0.13518
1077.47428 0.13752
1076.18851 0.14000
1074.90274 0.14262
1073.61697 0.14537
1072.33120 0.14826
1071.04543 0.15127
1069.75966 0.15437
1068.47390 0.15753
1067.18813 0.16075
1065.90236 0.16399
1064.61659 0.16728
1063.33082 0.17063
1062.04505 0.17405
1060.75928 0.17753
1059.47351 0.18101
1058.18774 0.18438
1056.90198 0.18759
1055.61621 0.19068
1054.33044 0.19376
1053.04467 0.19694
1051.75890 0.20023
1050.47313 0.20359
1049.18736 0.20698
1047.90159 0.21040
1046.61583 0.21385
1045.33006 0.21734
1044.04429 0.22088
1042.75852 0.22444
1041.47275 0.22800
1040.18698 0.23160
1038.90121 0.23526
1037.61544 0.23897
1036.32967 0.24269
1035.04391 0.24632
1033.75814 0.24982
1032.47237 0.25312
1031.18660 0.25622
1029.90083 0.25911
1028.61506 0.26179
1027.32929 0.26423
1026.04352 0.26640
1024.75775 0.26826
1023.47199 0.26978
1022.18622 0.27094
1020.90045 0.27168
1019.61468 0.27197
1018.32891 0.27179
1017.04314 0.27116
1015.75737 0.27010
1014.47160 0.26858
1013.18584 0.26654
1011.90007 0.26393
1010.61430 0.26077
1009.32853 0.25713
1008.04276 0.25305
1006.75699 0.24852
1005.47122 0.24351
1004.18545 0.23798
1002.89968 0.23198
1001.61392 0.22563
1000.32815 0.21909
999.04238 0.21245
997.75661 0.20576
996.47084 0.19902
995.18507 0.19223
993.89930 0.18539
992.61353 0.17852
991.32777 0.17167
990.04200 0.16490
988.75623 0.15834
987.47046 0.15210
986.18469 0.14618
984.89892 0.14056
983.61315 0.13519
982.32738 0.13010
981.04161 0.12536
979.75585 0.12102
978.47008 0.11703
977.18431 0.11330
975.89854 0.10985
974.61277 0.10680
973.32700 0.10428
972.04123 0.10235
970.75546 0.10102
969.46970 0.10030
968.18393 0.10020
966.89816 0.10069
965.61239 0.10166
964.32662 0.10285
963.04085 0.10395
961.75508 0.10462
960.46931 0.10468
959.18354 0.10402
957.89778 0.10270
956.61201 0.10084
955.32624 0.09863
954.04047 0.09625
952.75470 0.09381
951.46893 0.09139
950.18316 0.08898
948.89739 0.08659
947.61163 0.08426
946.32586 0.08200
945.04009 0.07985
943.75432 0.07778
942.46855 0.07579
941.18278 0.07383
939.89701 0.07192
938.61124 0.07009
937.32547 0.06839
936.03971 0.06679
934.75394 0.06528
933.46817 0.06385
932.18240 0.06250
930.89663 0.06126
929.61086 0.06014
928.32509 0.05915
927.03932 0.05823
925.75356 0.05735
924.46779 0.05649
923.18202 0.05567
921.89625 0.05486
920.61048 0.05401
919.32471 0.05309
918.03894 0.05216
916.75317 0.05135
915.46740 0.05074
914.18164 0.05034
912.89587 0.05001
911.61010 0.04957
910.32433 0.04896
909.03856 0.04828
907.75279 0.04767
906.46702 0.04720
905.18125 0.04683
903.89549 0.04646
902.60972 0.04606
901.32395 0.04564
900.03818 0.04520
898.75241 0.04473
897.46664 0.04420
896.18087 0.04369
894.89510 0.04331
893.60933 0.04313
892.32357 0.04310
891.03780 0.04311
889.75203 0.04314
888.46626 0.04332
887.18049 0.04390
885.89472 0.04516
884.60895 0.04723
883.32318 0.05016
882.03742 0.05367
880.75165 0.05725
879.46588 0.06030
878.18011 0.06254
876.89434 0.06425
875.60857 0.06594
874.32280 0.06779
873.03703 0.06946
871.75126 0.07037
870.46550 0.07019
869.17973 0.06896
867.89396 0.06694
866.60819 0.06438
865.32242 0.06152
864.03665 0.05858
862.75088 0.05576
861.46511 0.05322
860.17935 0.05102
858.89358 0.04915
857.60781 0.04756
856.32204 0.04618
855.03627 0.04495
853.75050 0.04389
852.46473 0.04308
851.17896 0.04253
849.89319 0.04214
848.60743 0.04176
847.32166 0.04132
846.03589 0.04082
844.75012 0.04033
843.46435 0.03991
842.17858 0.03954
840.89281 0.03921
839.60704 0.03891
838.32128 0.03862
837.03551 0.03831
835.74974 0.03795
834.46397 0.03757
833.17820 0.03724
831.89243 0.03698
830.60666 0.03682
829.32089 0.03675
828.03512 0.03676
826.74936 0.03677
825.46359 0.03670
824.17782 0.03658
822.89205 0.03644
821.60628 0.03633
820.32051 0.03623
819.03474 0.03612
817.74897 0.03597
816.46321 0.03577
815.17744 0.03553
813.89167 0.03532
812.60590 0.03520
811.32013 0.03514
810.03436 0.03504
808.74859 0.03482
807.46282 0.03454
806.17705 0.03433
804.89129 0.03422
803.60552 0.03418
802.31975 0.03415
801.03398 0.03413
799.74821 0.03415
798.46244 0.03417
797.17667 0.03415
795.89090 0.03401
794.60513 0.03376
793.31937 0.03348
792.03360 0.03328
790.74783 0.03320
789.46206 0.03318
788.17629 0.03319
786.89052 0.03321
785.60475 0.03323
784.31898 0.03319
783.03322 0.03303
781.74745 0.03279
780.46168 0.03259
779.17591 0.03249
777.89014 0.03247
776.60437 0.03248
775.31860 0.03251
774.03283 0.03254
772.74706 0.03257
771.46130 0.03260
770.17553 0.03263
768.88976 0.03265
767.60399 0.03264
766.31822 0.03257
765.03245 0.03250
763.74668 0.03251
762.46091 0.03258
761.17515 0.03262
759.88938 0.03256
758.60361 0.03243
757.31784 0.03233
756.03207 0.03234
754.74630 0.03248
753.46053 0.03271
752.17476 0.03289
750.88899 0.03289
749.60323 0.03268
748.31746 0.03237
747.03169 0.03213
745.74592 0.03202
744.46015 0.03203
743.17438 0.03204
741.88861 0.03196
740.60284 0.03180
739.31708 0.03168
738.03131 0.03166
736.74554 0.03164
735.45977 0.03154
734.17400 0.03138
732.88823 0.03128
731.60246 0.03128
730.31669 0.03131
729.03092 0.03128
727.74516 0.03119
726.45939 0.03113
725.17362 0.03115
723.88785 0.03141
722.60208 0.03132
721.31631 0.03132
720.03054 0.03145
718.74477 0.03156
717.45901 0.03161
716.17324 0.03159
714.88747 0.03151
713.60170 0.03137
712.31593 0.03121
711.03016 0.03108
709.74439 0.03098
708.45862 0.03089
707.17285 0.03080
705.88709 0.03071
704.60132 0.03066
703.31555 0.03068
702.02978 0.03072
700.74401 0.03074
699.45824 0.03069
698.17247 0.03060
696.88670 0.03053
695.60094 0.03052
694.31517 0.03056
693.02940 0.03062
691.74363 0.03067
690.45786 0.03070
689.17209 0.03073
687.88632 0.03073
686.60055 0.03068
685.31478 0.03054
684.02902 0.03034
682.74325 0.03011
681.45748 0.02991
680.17171 0.02980
678.88594 0.02980
677.60017 0.02988
676.31440 0.02999
675.02863 0.03010
673.74287 0.03021
672.45710 0.03036
671.17133 0.03057
669.88556 0.03081
668.59979 0.03099
667.31402 0.03104
666.02825 0.03095
664.74248 0.03077
663.45671 0.03056
662.17095 0.03035
660.88518 0.03019
659.59941 0.03008
658.31364 0.03002
657.02787 0.02993
655.74210 0.02978
654.45633 0.02959
653.17056 0.02940
651.88480 0.02923
650.59903 0.02909
649.31326 0.02898
648.02749 0.02891
646.74172 0.02889
645.45595 0.02890
644.17018 0.02895
642.88441 0.02899
641.59864 0.02903
640.31288 0.02905
639.02711 0.02910
637.74134 0.02920
636.45557 0.02935
635.16980 0.02957
633.88403 0.02990
632.59826 0.03021
631.31249 0.03005
630.02673 0.02994
628.74096 0.03231
627.45519 0.03413
626.16942 0.03821
624.88365 0.04354
623.59788 0.04824
622.31211 0.05180
621.02634 0.05446
619.74057 0.05630
618.45481 0.05731
617.16904 0.05778
615.88327 0.05836
614.59750 0.05980
613.31173 0.06279
612.02596 0.06762
610.74019 0.07404
609.45442 0.08154
608.16866 0.08952
606.88289 0.09713
605.59712 0.10326
604.31135 0.10699
603.02558 0.10814
601.73981 0.10719
600.45404 0.10478
599.16827 0.10147
597.88250 0.09771
596.59674 0.09394
595.31097 0.09045
594.02520 0.08737
592.73943 0.08473
591.45366 0.08257
590.16789 0.08098
588.88212 0.08014
587.59635 0.08016
586.31059 0.08102
585.02482 0.08260
583.73905 0.08475
582.45328 0.08735
581.16751 0.09025
579.88174 0.09323
578.59597 0.09611
577.31020 0.09877
576.02443 0.10124
574.73867 0.10361
573.45290 0.10601
572.16713 0.10863
570.88136 0.11167
569.59559 0.11531
568.30982 0.11949
567.02405 0.12387
565.73828 0.12795
564.45251 0.13132
563.16675 0.13366
561.88098 0.13465
560.59521 0.13398
559.30944 0.13149
558.02367 0.12735
556.73790 0.12193
555.45213 0.11571
554.16636 0.10905
552.88060 0.10225
551.59483 0.09556
550.30906 0.08926
549.02329 0.08355
547.73752 0.07860
546.45175 0.07444
545.16598 0.07093
543.88021 0.06787
542.59444 0.06507
541.30868 0.06249
540.02291 0.06012
538.73714 0.05793
537.45137 0.05585
536.16560 0.05388
534.87983 0.05210
533.59406 0.05056
532.30829 0.04928
531.02253 0.04815
529.73676 0.04704
528.45099 0.04583
527.16522 0.04455
525.87945 0.04332
524.59368 0.04230
523.30791 0.04152
522.02214 0.04090
520.73637 0.04027
519.45061 0.03950
518.16484 0.03857
516.87907 0.03757
515.59330 0.03665
514.30753 0.03589
513.02176 0.03533
511.73599 0.03493
510.45022 0.03460
509.16446 0.03421
507.87869 0.03368
506.59292 0.03304
505.30715 0.03241
504.02138 0.03189
502.73561 0.03150
501.44984 0.03118
500.16407 0.03088
498.87830 0.03056
497.59254 0.03023
496.30677 0.02990
495.02100 0.02952
493.73523 0.02910
492.44946 0.02867
491.16369 0.02828
489.87792 0.02799
488.59215 0.02780
487.30639 0.02768
486.02062 0.02764
484.73485 0.02766
483.44908 0.02771
482.16331 0.02778
480.87754 0.02783
479.59177 0.02787
478.30600 0.02793
477.02023 0.02804
475.73447 0.02821
474.44870 0.02845
473.16293 0.02869
471.87716 0.02888
470.59139 0.02893
469.30562 0.02886
468.01985 0.02867
466.73408 0.02841
465.44832 0.02808
464.16255 0.02765
462.87678 0.02716
461.59101 0.02664
460.30524 0.02616
459.01947 0.02574
457.73370 0.02539
456.44793 0.02509
455.16216 0.02480
453.87640 0.02447
452.59063 0.02409
451.30486 0.02370
450.01909 0.02332
448.73332 0.02296
447.44755 0.02262
446.16178 0.02233
444.87601 0.02214
443.59025 0.02203
442.30448 0.02194
441.01871 0.02185
439.73294 0.02177
438.44717 0.02172
437.16140 0.02165
435.87563 0.02154
434.58986 0.02140
433.30409 0.02127
432.01833 0.02114
430.73256 0.02097
429.44679 0.02075
428.16102 0.02049
426.87525 0.02023
425.58948 0.02003
424.30371 0.01990
423.01794 0.01985
421.73218 0.01986
420.44641 0.01990
419.16064 0.01994
417.87487 0.01990
416.58910 0.01977
415.30333 0.01960
414.01756 0.01947
412.73179 0.01940
411.44602 0.01939
410.16026 0.01936
408.87449 0.01930
407.58872 0.01924
406.30295 0.01924
405.01718 0.01934
403.73141 0.01954
402.44564 0.01975
401.15987 0.01991
399.87411 0.02000
