3997.45528	0.06441
3996.16951	0.06334
3994.88374	0.06277
3993.59798	0.06310
3992.31221	0.06421
3991.02644	0.06531
3989.74067	0.06558
3988.45490	0.06488
3987.16913	0.06390
3985.88336	0.06343
3984.59759	0.06366
3983.31183	0.06414
3982.02606	0.06437
3980.74029	0.06430
3979.45452	0.06432
3978.16875	0.06487
3976.88298	0.06606
3975.59721	0.06741
3974.31144	0.06795
3973.02567	0.06691
3971.73991	0.06458
3970.45414	0.06234
3969.16837	0.06163
3967.88260	0.06267
3966.59683	0.06438
3965.31106	0.06545
3964.02529	0.06547
3962.73952	0.06493
3961.45376	0.06446
3960.16799	0.06435
3958.88222	0.06457
3957.59645	0.06504
3956.31068	0.06570
3955.02491	0.06635
3953.73914	0.06668
3952.45337	0.06646
3951.16760	0.06588
3949.88184	0.06540
3948.59607	0.06521
3947.31030	0.06502
3946.02453	0.06443
3944.73876	0.06359
3943.45299	0.06310
3942.16722	0.06340
3940.88145	0.06421
3939.59569	0.06483
3938.30992	0.06473
3937.02415	0.06396
3935.73838	0.06295
3934.45261	0.06216
3933.16684	0.06183
3931.88107	0.06203
3930.59530	0.06263
3929.30953	0.06323
3928.02377	0.06348
3926.73800	0.06336
3925.45223	0.06328
3924.16646	0.06360
3922.88069	0.06424
3921.59492	0.06486
3920.30915	0.06528
3919.02338	0.06553
3917.73762	0.06562
3916.45185	0.06543
3915.16608	0.06485
3913.88031	0.06404
3912.59454	0.06338
3911.30877	0.06316
3910.02300	0.06333
3908.73723	0.06358
3907.45146	0.06360
3906.16570	0.06316
3904.87993	0.06225
3903.59416	0.06112
3902.30839	0.06022
3901.02262	0.05982
3899.73685	0.05980
3898.45108	0.05987
3897.16531	0.05983
3895.87955	0.05963
3894.59378	0.05921
3893.30801	0.05851
3892.02224	0.05771
3890.73647	0.05719
3889.45070	0.05709
3888.16493	0.05717
3886.87916	0.05735
3885.59339	0.05788
3884.30763	0.05892
3883.02186	0.06016
3881.73609	0.06111
3880.45032	0.06153
3879.16455	0.06146
3877.87878	0.06118
3876.59301	0.06108
3875.30724	0.06154
3874.02148	0.06261
3872.73571	0.06385
3871.44994	0.06462
3870.16417	0.06457
3868.87840	0.06366
3867.59263	0.06209
3866.30686	0.06030
3865.02109	0.05894
3863.73532	0.05840
3862.44956	0.05849
3861.16379	0.05878
3859.87802	0.05908
3858.59225	0.05954
3857.30648	0.06034
3856.02071	0.06128
3854.73494	0.06193
3853.44917	0.06191
3852.16341	0.06120
3850.87764	0.06016
3849.59187	0.05938
3848.30610	0.05923
3847.02033	0.05958
3845.73456	0.06002
3844.44879	0.06019
3843.16302	0.06009
3841.87725	0.05985
3840.59149	0.05959
3839.30572	0.05940
3838.01995	0.05935
3836.73418	0.05947
3835.44841	0.05955
3834.16264	0.05952
3832.87687	0.05960
3831.59110	0.05998
3830.30534	0.06057
3829.01957	0.06109
3827.73380	0.06147
3826.44803	0.06174
3825.16226	0.06174
3823.87649	0.06115
3822.59072	0.06008
3821.30495	0.05921
3820.01918	0.05901
3818.73342	0.05923
3817.44765	0.05930
3816.16188	0.05917
3814.87611	0.05915
3813.59034	0.05934
3812.30457	0.05961
3811.01880	0.05983
3809.73303	0.05982
3808.44726	0.05957
3807.16150	0.05941
3805.87573	0.05976
3804.58996	0.06044
3803.30419	0.06077
3802.01842	0.06032
3800.73265	0.05933
3799.44688	0.05839
3798.16111	0.05799
3796.87535	0.05834
3795.58958	0.05920
3794.30381	0.06000
3793.01804	0.06041
3791.73227	0.06058
3790.44650	0.06079
3789.16073	0.06099
3787.87496	0.06091
3786.58919	0.06051
3785.30343	0.06009
3784.01766	0.05979
3782.73189	0.05939
3781.44612	0.05861
3780.16035	0.05768
3778.87458	0.05717
3777.58881	0.05739
3776.30304	0.05797
3775.01728	0.05828
3773.73151	0.05801
3772.44574	0.05744
3771.15997	0.05720
3769.87420	0.05769
3768.58843	0.05861
3767.30266	0.05916
3766.01689	0.05888
3764.73112	0.05796
3763.44536	0.05699
3762.15959	0.05636
3760.87382	0.05605
3759.58805	0.05578
3758.30228	0.05542
3757.01651	0.05511
3755.73074	0.05498
3754.44497	0.05486
3753.15921	0.05457
3751.87344	0.05427
3750.58767	0.05433
3749.30190	0.05498
3748.01613	0.05594
3746.73036	0.05651
3745.44459	0.05610
3744.15882	0.05479
3742.87305	0.05318
3741.58729	0.05204
3740.30152	0.05208
3739.01575	0.05337
3737.72998	0.05520
3736.44421	0.05666
3735.15844	0.05724
3733.87267	0.05692
3732.58690	0.05608
3731.30114	0.05530
3730.01537	0.05493
3728.72960	0.05495
3727.44383	0.05522
3726.15806	0.05558
3724.87229	0.05588
3723.58652	0.05607
3722.30075	0.05614
3721.01498	0.05603
3719.72922	0.05565
3718.44345	0.05495
3717.15768	0.05400
3715.87191	0.05307
3714.58614	0.05260
3713.30037	0.05294
3712.01460	0.05393
3710.72883	0.05490
3709.44307	0.05531
3708.15730	0.05516
3706.87153	0.05480
3705.58576	0.05430
3704.29999	0.05360
3703.01422	0.05284
3701.72845	0.05229
3700.44268	0.05210
3699.15691	0.05214
3697.87115	0.05210
3696.58538	0.05195
3695.29961	0.05221
3694.01384	0.05325
3692.72807	0.05450
3691.44230	0.05510
3690.15653	0.05473
3688.87076	0.05365
3687.58500	0.05258
3686.29923	0.05206
3685.01346	0.05193
3683.72769	0.05203
3682.44192	0.05233
3681.15615	0.05266
3679.87038	0.05279
3678.58461	0.05268
3677.29884	0.05250
3676.01308	0.05290
3674.72731	0.05432
3673.44154	0.05630
3672.15577	0.05785
3670.87000	0.05835
3669.58423	0.05793
3668.29846	0.05708
3667.01269	0.05628
3665.72693	0.05577
3664.44116	0.05538
3663.15539	0.05485
3661.86962	0.05431
3660.58385	0.05413
3659.29808	0.05447
3658.01231	0.05511
3656.72654	0.05579
3655.44077	0.05640
3654.15501	0.05678
3652.86924	0.05674
3651.58347	0.05650
3650.29770	0.05657
3649.01193	0.05711
3647.72616	0.05764
3646.44039	0.05769
3645.15462	0.05748
3643.86886	0.05772
3642.58309	0.05883
3641.29732	0.06037
3640.01155	0.06139
3638.72578	0.06122
3637.44001	0.05992
3636.15424	0.05816
3634.86847	0.05679
3633.58270	0.05623
3632.29694	0.05628
3631.01117	0.05649
3629.72540	0.05675
3628.43963	0.05729
3627.15386	0.05812
3625.86809	0.05893
3624.58232	0.05952
3623.29655	0.06010
3622.01079	0.06083
3620.72502	0.06155
3619.43925	0.06193
3618.15348	0.06195
3616.86771	0.06186
3615.58194	0.06188
3614.29617	0.06196
3613.01040	0.06198
3611.72463	0.06206
3610.43887	0.06241
3609.15310	0.06307
3607.86733	0.06375
3606.58156	0.06402
3605.29579	0.06373
3604.01002	0.06317
3602.72425	0.06281
3601.43848	0.06281
3600.15272	0.06291
3598.86695	0.06279
3597.58118	0.06239
3596.29541	0.06193
3595.00964	0.06201
3593.72387	0.06312
3592.43810	0.06495
3591.15233	0.06660
3589.86656	0.06740
3588.58080	0.06736
3587.29503	0.06696
3586.00926	0.06674
3584.72349	0.06705
3583.43772	0.06776
3582.15195	0.06848
3580.86618	0.06883
3579.58041	0.06861
3578.29464	0.06813
3577.00888	0.06795
3575.72311	0.06832
3574.43734	0.06911
3573.15157	0.06998
3571.86580	0.07064
3570.58003	0.07106
3569.29426	0.07137
3568.00849	0.07168
3566.72273	0.07209
3565.43696	0.07250
3564.15119	0.07270
3562.86542	0.07260
3561.57965	0.07236
3560.29388	0.07226
3559.00811	0.07231
3557.72234	0.07226
3556.43657	0.07198
3555.15081	0.07170
3553.86504	0.07172
3552.57927	0.07209
3551.29350	0.07265
3550.00773	0.07325
3548.72196	0.07392
3547.43619	0.07462
3546.15042	0.07520
3544.86466	0.07545
3543.57889	0.07539
3542.29312	0.07526
3541.00735	0.07529
3539.72158	0.07542
3538.43581	0.07549
3537.15004	0.07550
3535.86427	0.07559
3534.57850	0.07580
3533.29274	0.07602
3532.00697	0.07613
3530.72120	0.07614
3529.43543	0.07617
3528.14966	0.07641
3526.86389	0.07704
3525.57812	0.07801
3524.29235	0.07894
3523.00659	0.07948
3521.72082	0.07960
3520.43505	0.07962
3519.14928	0.07984
3517.86351	0.08027
3516.57774	0.08070
3515.29197	0.08100
3514.00620	0.08127
3512.72043	0.08160
3511.43467	0.08180
3510.14890	0.08149
3508.86313	0.08059
3507.57736	0.07947
3506.29159	0.07857
3505.00582	0.07809
3503.72005	0.07807
3502.43428	0.07856
3501.14852	0.07957
3499.86275	0.08083
3498.57698	0.08188
3497.29121	0.08241
3496.00544	0.08244
3494.71967	0.08221
3493.43390	0.08198
3492.14813	0.08197
3490.86236	0.08236
3489.57660	0.08317
3488.29083	0.08419
3487.00506	0.08511
3485.71929	0.08572
3484.43352	0.08591
3483.14775	0.08563
3481.86198	0.08493
3480.57621	0.08408
3479.29045	0.08357
3478.00468	0.08367
3476.71891	0.08421
3475.43314	0.08476
3474.14737	0.08490
3472.86160	0.08458
3471.57583	0.08413
3470.29006	0.08409
3469.00429	0.08475
3467.71853	0.08589
3466.43276	0.08696
3465.14699	0.08748
3463.86122	0.08737
3462.57545	0.08685
3461.28968	0.08623
3460.00391	0.08584
3458.71814	0.08592
3457.43238	0.08631
3456.14661	0.08660
3454.86084	0.08658
3453.57507	0.08654
3452.28930	0.08683
3451.00353	0.08734
3449.71776	0.08761
3448.43199	0.08746
3447.14622	0.08721
3445.86046	0.08729
3444.57469	0.08772
3443.28892	0.08816
3442.00315	0.08832
3440.71738	0.08820
3439.43161	0.08807
3438.14584	0.08825
3436.86007	0.08884
3435.57431	0.08962
3434.28854	0.09021
3433.00277	0.09033
3431.71700	0.09012
3430.43123	0.09001
3429.14546	0.09022
3427.85969	0.09052
3426.57392	0.09048
3425.28815	0.08991
3424.00239	0.08908
3422.71662	0.08848
3421.43085	0.08838
3420.14508	0.08874
3418.85931	0.08934
3417.57354	0.08987
3416.28777	0.09010
3415.00200	0.09002
3413.71624	0.08984
3412.43047	0.08992
3411.14470	0.09049
3409.85893	0.09150
3408.57316	0.09264
3407.28739	0.09360
3406.00162	0.09428
3404.71585	0.09474
3403.43008	0.09495
3402.14432	0.09479
3400.85855	0.09424
3399.57278	0.09358
3398.28701	0.09324
3397.00124	0.09334
3395.71547	0.09364
3394.42970	0.09378
3393.14393	0.09366
3391.85817	0.09354
3390.57240	0.09375
3389.28663	0.09434
3388.00086	0.09495
3386.71509	0.09518
3385.42932	0.09493
3384.14355	0.09443
3382.85778	0.09403
3381.57201	0.09387
3380.28625	0.09382
3379.00048	0.09365
3377.71471	0.09334
3376.42894	0.09307
3375.14317	0.09297
3373.85740	0.09305
3372.57163	0.09322
3371.28586	0.09353
3370.00010	0.09401
3368.71433	0.09465
3367.42856	0.09533
3366.14279	0.09596
3364.85702	0.09657
3363.57125	0.09710
3362.28548	0.09745
3360.99971	0.09748
3359.71394	0.09717
3358.42818	0.09666
3357.14241	0.09611
3355.85664	0.09559
3354.57087	0.09521
3353.28510	0.09509
3351.99933	0.09530
3350.71356	0.09573
3349.42779	0.09613
3348.14202	0.09621
3346.85626	0.09585
3345.57049	0.09519
3344.28472	0.09457
3342.99895	0.09431
3341.71318	0.09457
3340.42741	0.09524
3339.14164	0.09605
3337.85587	0.09671
3336.57011	0.09706
3335.28434	0.09714
3333.99857	0.09703
3332.71280	0.09677
3331.42703	0.09637
3330.14126	0.09592
3328.85549	0.09556
3327.56972	0.09544
3326.28395	0.09562
3324.99819	0.09604
3323.71242	0.09651
3322.42665	0.09683
3321.14088	0.09696
3319.85511	0.09700
3318.56934	0.09698
3317.28357	0.09669
3315.99780	0.09589
3314.71204	0.09470
3313.42627	0.09363
3312.14050	0.09319
3310.85473	0.09345
3309.56896	0.09406
3308.28319	0.09461
3306.99742	0.09488
3305.71165	0.09489
3304.42588	0.09479
3303.14012	0.09474
3301.85435	0.09471
3300.56858	0.09458
3299.28281	0.09435
3297.99704	0.09415
3296.71127	0.09409
3295.42550	0.09408
3294.13973	0.09404
3292.85397	0.09411
3291.56820	0.09451
3290.28243	0.09519
3288.99666	0.09575
3287.71089	0.09581
3286.42512	0.09530
3285.13935	0.09456
3283.85358	0.09392
3282.56781	0.09356
3281.28205	0.09348
3279.99628	0.09358
3278.71051	0.09370
3277.42474	0.09376
3276.13897	0.09378
3274.85320	0.09387
3273.56743	0.09411
3272.28166	0.09450
3270.99590	0.09497
3269.71013	0.09540
3268.42436	0.09561
3267.13859	0.09549
3265.85282	0.09500
3264.56705	0.09427
3263.28128	0.09340
3261.99551	0.09256
3260.70974	0.09198
3259.42398	0.09181
3258.13821	0.09200
3256.85244	0.09232
3255.56667	0.09260
3254.28090	0.09291
3252.99513	0.09324
3251.70936	0.09344
3250.42359	0.09335
3249.13783	0.09309
3247.85206	0.09284
3246.56629	0.09271
3245.28052	0.09264
3243.99475	0.09254
3242.70898	0.09237
3241.42321	0.09220
3240.13744	0.09213
3238.85167	0.09214
3237.56591	0.09211
3236.28014	0.09185
3234.99437	0.09138
3233.70860	0.09088
3232.42283	0.09047
3231.13706	0.09015
3229.85129	0.08990
3228.56552	0.08973
3227.27976	0.08961
3225.99399	0.08945
3224.70822	0.08922
3223.42245	0.08912
3222.13668	0.08935
3220.85091	0.08984
3219.56514	0.09023
3218.27937	0.09027
3216.99360	0.09010
3215.70784	0.09007
3214.42207	0.09034
3213.13630	0.09070
3211.85053	0.09095
3210.56476	0.09107
3209.27899	0.09114
3207.99322	0.09108
3206.70745	0.09074
3205.42169	0.09023
3204.13592	0.08985
3202.85015	0.08978
3201.56438	0.08987
3200.27861	0.08981
3198.99284	0.08948
3197.70707	0.08899
3196.42130	0.08854
3195.13553	0.08821
3193.84977	0.08796
3192.56400	0.08780
3191.27823	0.08783
3189.99246	0.08807
3188.70669	0.08832
3187.42092	0.08836
3186.13515	0.08822
3184.84938	0.08811
3183.56362	0.08804
3182.27785	0.08777
3180.99208	0.08714
3179.70631	0.08639
3178.42054	0.08594
3177.13477	0.08597
3175.84900	0.08630
3174.56323	0.08661
3173.27746	0.08668
3171.99170	0.08647
3170.70593	0.08607
3169.42016	0.08570
3168.13439	0.08556
3166.84862	0.08571
3165.56285	0.08600
3164.27708	0.08614
3162.99131	0.08599
3161.70555	0.08562
3160.41978	0.08522
3159.13401	0.08485
3157.84824	0.08442
3156.56247	0.08399
3155.27670	0.08372
3153.99093	0.08369
3152.70516	0.08370
3151.41939	0.08355
3150.13363	0.08328
3148.84786	0.08304
3147.56209	0.08289
3146.27632	0.08283
3144.99055	0.08285
3143.70478	0.08288
3142.41901	0.08274
3141.13324	0.08239
3139.84748	0.08199
3138.56171	0.08174
3137.27594	0.08164
3135.99017	0.08155
3134.70440	0.08139
3133.41863	0.08132
3132.13286	0.08147
3130.84709	0.08181
3129.56132	0.08209
3128.27556	0.08203
3126.98979	0.08159
3125.70402	0.08105
3124.41825	0.08067
3123.13248	0.08049
3121.84671	0.08028
3120.56094	0.07985
3119.27517	0.07928
3117.98940	0.07883
3116.70364	0.07872
3115.41787	0.07897
3114.13210	0.07944
3112.84633	0.07995
3111.56056	0.08030
3110.27479	0.08042
3108.98902	0.08033
3107.70325	0.08012
3106.41749	0.07988
3105.13172	0.07968
3103.84595	0.07958
3102.56018	0.07956
3101.27441	0.07949
3099.98864	0.07922
3098.70287	0.07875
3097.41710	0.07828
3096.13133	0.07794
3094.84557	0.07771
3093.55980	0.07748
3092.27403	0.07722
3090.98826	0.07697
3089.70249	0.07674
3088.41672	0.07650
3087.13095	0.07628
3085.84518	0.07621
3084.55942	0.07634
3083.27365	0.07659
3081.98788	0.07684
3080.70211	0.07708
3079.41634	0.07735
3078.13057	0.07758
3076.84480	0.07768
3075.55903	0.07771
3074.27326	0.07777
3072.98750	0.07784
3071.70173	0.07779
3070.41596	0.07758
3069.13019	0.07730
3067.84442	0.07701
3066.55865	0.07664
3065.27288	0.07623
3063.98711	0.07593
3062.70135	0.07588
3061.41558	0.07601
3060.12981	0.07613
3058.84404	0.07613
3057.55827	0.07604
3056.27250	0.07599
3054.98673	0.07598
3053.70096	0.07592
3052.41519	0.07578
3051.12943	0.07568
3049.84366	0.07574
3048.55789	0.07588
3047.27212	0.07586
3045.98635	0.07559
3044.70058	0.07522
3043.41481	0.07498
3042.12904	0.07490
3040.84328	0.07485
3039.55751	0.07472
3038.27174	0.07458
3036.98597	0.07456
3035.70020	0.07469
3034.41443	0.07481
3033.12866	0.07477
3031.84289	0.07453
3030.55712	0.07421
3029.27136	0.07392
3027.98559	0.07367
3026.69982	0.07339
3025.41405	0.07307
3024.12828	0.07280
3022.84251	0.07271
3021.55674	0.07281
3020.27097	0.07298
3018.98521	0.07302
3017.69944	0.07272
3016.41367	0.07210
3015.12790	0.07135
3013.84213	0.07080
3012.55636	0.07063
3011.27059	0.07082
3009.98482	0.07117
3008.69905	0.07147
3007.41329	0.07161
3006.12752	0.07154
3004.84175	0.07129
3003.55598	0.07085
3002.27021	0.07026
3000.98444	0.06964
2999.69867	0.06919
2998.41290	0.06909
2997.12714	0.06928
2995.84137	0.06960
2994.55560	0.06995
2993.26983	0.07026
2991.98406	0.07047
2990.69829	0.07058
2989.41252	0.07066
2988.12675	0.07073
2986.84098	0.07078
2985.55522	0.07089
2984.26945	0.07122
2982.98368	0.07183
2981.69791	0.07252
2980.41214	0.07304
2979.12637	0.07328
2977.84060	0.07331
2976.55483	0.07327
2975.26907	0.07331
2973.98330	0.07365
2972.69753	0.07451
2971.41176	0.07594
2970.12599	0.07772
2968.84022	0.07946
2967.55445	0.08086
2966.26868	0.08189
2964.98291	0.08271
2963.69715	0.08357
2962.41138	0.08462
2961.12561	0.08583
2959.83984	0.08709
2958.55407	0.08825
2957.26830	0.08921
2955.98253	0.08988
2954.69676	0.09018
2953.41100	0.09020
2952.12523	0.09011
2950.83946	0.09008
2949.55369	0.09020
2948.26792	0.09053
2946.98215	0.09106
2945.69638	0.09164
2944.41061	0.09198
2943.12484	0.09195
2941.83908	0.09169
2940.55331	0.09151
2939.26754	0.09170
2937.98177	0.09236
2936.69600	0.09337
2935.41023	0.09449
2934.12446	0.09544
2932.83869	0.09615
2931.55293	0.09671
2930.26716	0.09736
2928.98139	0.09826
2927.69562	0.09930
2926.40985	0.10021
2925.12408	0.10077
2923.83831	0.10097
2922.55254	0.10095
2921.26677	0.10080
2919.98101	0.10056
2918.69524	0.10019
2917.40947	0.09965
2916.12370	0.09890
2914.83793	0.09805
2913.55216	0.09728
2912.26639	0.09667
2910.98062	0.09610
2909.69486	0.09533
2908.40909	0.09428
2907.12332	0.09315
2905.83755	0.09216
2904.55178	0.09136
2903.26601	0.09064
2901.98024	0.08990
2900.69447	0.08927
2899.40870	0.08882
2898.12294	0.08846
2896.83717	0.08796
2895.55140	0.08726
2894.26563	0.08649
2892.97986	0.08583
2891.69409	0.08531
2890.40832	0.08475
2889.12255	0.08401
2887.83678	0.08309
2886.55102	0.08220
2885.26525	0.08157
2883.97948	0.08125
2882.69371	0.08114
2881.40794	0.08106
2880.12217	0.08098
2878.83640	0.08099
2877.55063	0.08119
2876.26487	0.08159
2874.97910	0.08208
2873.69333	0.08255
2872.40756	0.08289
2871.12179	0.08307
2869.83602	0.08312
2868.55025	0.08309
2867.26448	0.08304
2865.97871	0.08303
2864.69295	0.08316
2863.40718	0.08339
2862.12141	0.08354
2860.83564	0.08348
2859.54987	0.08323
2858.26410	0.08296
2856.97833	0.08281
2855.69256	0.08277
2854.40680	0.08278
2853.12103	0.08269
2851.83526	0.08240
2850.54949	0.08189
2849.26372	0.08128
2847.97795	0.08071
2846.69218	0.08013
2845.40641	0.07949
2844.12064	0.07878
2842.83488	0.07800
2841.54911	0.07707
2840.26334	0.07591
2838.97757	0.07460
2837.69180	0.07339
2836.40603	0.07247
2835.12026	0.07184
2833.83449	0.07132
2832.54873	0.07076
2831.26296	0.07012
2829.97719	0.06951
2828.69142	0.06903
2827.40565	0.06868
2826.11988	0.06835
2824.83411	0.06788
2823.54834	0.06723
2822.26257	0.06654
2820.97681	0.06599
2819.69104	0.06563
2818.40527	0.06544
2817.11950	0.06532
2815.83373	0.06528
2814.54796	0.06535
2813.26219	0.06548
2811.97642	0.06547
2810.69066	0.06513
2809.40489	0.06447
2808.11912	0.06372
2806.83335	0.06315
2805.54758	0.06285
2804.26181	0.06275
2802.97604	0.06267
2801.69027	0.06255
2800.40450	0.06245
2799.11874	0.06240
2797.83297	0.06234
2796.54720	0.06214
2795.26143	0.06175
2793.97566	0.06132
2792.68989	0.06108
2791.40412	0.06115
2790.11835	0.06138
2788.83259	0.06152
2787.54682	0.06141
2786.26105	0.06121
2784.97528	0.06114
2783.68951	0.06127
2782.40374	0.06144
2781.11797	0.06144
2779.83220	0.06117
2778.54643	0.06071
2777.26067	0.06025
2775.97490	0.05995
2774.68913	0.05984
2773.40336	0.05981
2772.11759	0.05981
2770.83182	0.05982
2769.54605	0.05983
2768.26028	0.05976
2766.97452	0.05956
2765.68875	0.05926
2764.40298	0.05895
2763.11721	0.05870
2761.83144	0.05854
2760.54567	0.05851
2759.25990	0.05860
2757.97413	0.05877
2756.68836	0.05896
2755.40260	0.05917
2754.11683	0.05936
2752.83106	0.05949
2751.54529	0.05949
2750.25952	0.05938
2748.97375	0.05916
2747.68798	0.05883
2746.40221	0.05842
2745.11645	0.05801
2743.83068	0.05775
2742.54491	0.05770
2741.25914	0.05787
2739.97337	0.05810
2738.68760	0.05822
2737.40183	0.05813
2736.11606	0.05792
2734.83029	0.05775
2733.54453	0.05768
2732.25876	0.05761
2730.97299	0.05742
2729.68722	0.05718
2728.40145	0.05709
2727.11568	0.05721
2725.82991	0.05732
2724.54414	0.05713
2723.25838	0.05668
2721.97261	0.05625
2720.68684	0.05608
2719.40107	0.05613
2718.11530	0.05618
2716.82953	0.05607
2715.54376	0.05581
2714.25799	0.05557
2712.97222	0.05552
2711.68646	0.05566
2710.40069	0.05587
2709.11492	0.05602
2707.82915	0.05605
2706.54338	0.05595
2705.25761	0.05570
2703.97184	0.05534
2702.68607	0.05496
2701.40031	0.05466
2700.11454	0.05451
2698.82877	0.05454
2697.54300	0.05470
2696.25723	0.05484
2694.97146	0.05488
2693.68569	0.05482
2692.39992	0.05474
2691.11415	0.05467
2689.82839	0.05458
2688.54262	0.05446
2687.25685	0.05431
2685.97108	0.05416
2684.68531	0.05406
2683.39954	0.05404
2682.11377	0.05411
2680.82800	0.05426
2679.54224	0.05441
2678.25647	0.05450
2676.97070	0.05455
2675.68493	0.05459
2674.39916	0.05459
2673.11339	0.05449
2671.82762	0.05430
2670.54185	0.05414
2669.25608	0.05407
2667.97032	0.05403
2666.68455	0.05402
2665.39878	0.05410
2664.11301	0.05424
2662.82724	0.05428
2661.54147	0.05405
2660.25570	0.05354
2658.96993	0.05295
2657.68417	0.05257
2656.39840	0.05257
2655.11263	0.05282
2653.82686	0.05300
2652.54109	0.05284
2651.25532	0.05243
2649.96955	0.05208
2648.68378	0.05195
2647.39801	0.05198
2646.11225	0.05201
2644.82648	0.05196
2643.54071	0.05178
2642.25494	0.05142
2640.96917	0.05095
2639.68340	0.05050
2638.39763	0.05022
2637.11186	0.05015
2635.82609	0.05024
2634.54033	0.05037
2633.25456	0.05037
2631.96879	0.05008
2630.68302	0.04956
2629.39725	0.04902
2628.11148	0.04865
2626.82571	0.04851
2625.53994	0.04854
2624.25418	0.04869
2622.96841	0.04889
2621.68264	0.04900
2620.39687	0.04888
2619.11110	0.04852
2617.82533	0.04819
2616.53956	0.04808
2615.25379	0.04809
2613.96802	0.04796
2612.68226	0.04763
2611.39649	0.04731
2610.11072	0.04713
2608.82495	0.04698
2607.53918	0.04664
2606.25341	0.04601
2604.96764	0.04521
2603.68187	0.04451
2602.39611	0.04422
2601.11034	0.04448
2599.82457	0.04512
2598.53880	0.04571
2597.25303	0.04595
2595.96726	0.04582
2594.68149	0.04547
2593.39572	0.04501
2592.10995	0.04448
2590.82419	0.04403
2589.53842	0.04390
2588.25265	0.04417
2586.96688	0.04457
2585.68111	0.04464
2584.39534	0.04421
2583.10957	0.04362
2581.82380	0.04340
2580.53804	0.04368
2579.25227	0.04408
2577.96650	0.04420
2576.68073	0.04396
2575.39496	0.04362
2574.10919	0.04341
2572.82342	0.04333
2571.53765	0.04312
2570.25188	0.04266
2568.96612	0.04208
2567.68035	0.04172
2566.39458	0.04179
2565.10881	0.04219
2563.82304	0.04263
2562.53727	0.04287
2561.25150	0.04285
2559.96573	0.04264
2558.67997	0.04238
2557.39420	0.04215
2556.10843	0.04204
2554.82266	0.04217
2553.53689	0.04254
2552.25112	0.04294
2550.96535	0.04304
2549.67958	0.04276
2548.39381	0.04227
2547.10805	0.04186
2545.82228	0.04169
2544.53651	0.04169
2543.25074	0.04174
2541.96497	0.04180
2540.67920	0.04190
2539.39343	0.04201
2538.10766	0.04200
2536.82190	0.04180
2535.53613	0.04147
2534.25036	0.04112
2532.96459	0.04084
2531.67882	0.04070
2530.39305	0.04070
2529.10728	0.04081
2527.82151	0.04100
2526.53574	0.04121
2525.24998	0.04139
2523.96421	0.04145
2522.67844	0.04138
2521.39267	0.04132
2520.10690	0.04143
2518.82113	0.04171
2517.53536	0.04190
2516.24959	0.04170
2514.96383	0.04107
2513.67806	0.04025
2512.39229	0.03960
2511.10652	0.03930
2509.82075	0.03930
2508.53498	0.03945
2507.24921	0.03972
2505.96344	0.04013
2504.67767	0.04063
2503.39191	0.04103
2502.10614	0.04111
2500.82037	0.04091
2499.53460	0.04059
2498.24883	0.04029
2496.96306	0.04005
2495.67729	0.03982
2494.39152	0.03960
2493.10576	0.03938
2491.81999	0.03926
2490.53422	0.03935
2489.24845	0.03965
2487.96268	0.03996
2486.67691	0.04006
2485.39114	0.03991
2484.10537	0.03969
2482.81960	0.03962
2481.53384	0.03979
2480.24807	0.04010
2478.96230	0.04034
2477.67653	0.04043
2476.39076	0.04041
2475.10499	0.04036
2473.81922	0.04038
2472.53345	0.04045
2471.24769	0.04044
2469.96192	0.04024
2468.67615	0.03992
2467.39038	0.03970
2466.10461	0.03968
2464.81884	0.03977
2463.53307	0.03982
2462.24730	0.03973
2460.96153	0.03947
2459.67577	0.03910
2458.39000	0.03880
2457.10423	0.03880
2455.81846	0.03914
2454.53269	0.03956
2453.24692	0.03970
2451.96115	0.03941
2450.67538	0.03887
2449.38962	0.03841
2448.10385	0.03818
2446.81808	0.03809
2445.53231	0.03801
2444.24654	0.03794
2442.96077	0.03791
2441.67500	0.03785
2440.38923	0.03772
2439.10346	0.03755
2437.81770	0.03742
2436.53193	0.03742
2435.24616	0.03758
2433.96039	0.03781
2432.67462	0.03795
2431.38885	0.03803
2430.10308	0.03819
2428.81731	0.03837
2427.53155	0.03831
2426.24578	0.03795
2424.96001	0.03762
2423.67424	0.03770
2422.38847	0.03817
2421.10270	0.03865
2419.81693	0.03880
2418.53116	0.03855
2417.24539	0.03813
2415.95963	0.03782
2414.67386	0.03773
2413.38809	0.03773
2412.10232	0.03770
2410.81655	0.03755
2409.53078	0.03726
2408.24501	0.03682
2406.95924	0.03632
2405.67347	0.03596
2404.38771	0.03592
2403.10194	0.03629
2401.81617	0.03697
2400.53040	0.03776
2399.24463	0.03858
2397.95886	0.03893
2396.67309	0.03878
2395.38732	0.03833
2394.10156	0.03780
2392.81579	0.03734
2391.53002	0.03690
2390.24425	0.03647
2388.95848	0.03615
2387.67271	0.03609
2386.38694	0.03629
2385.10117	0.03658
2383.81540	0.03680
2382.52964	0.03682
2381.24387	0.03654
2379.95810	0.03593
2378.67233	0.03509
2377.38656	0.03426
2376.10079	0.03368
2374.81502	0.03357
2373.52925	0.03371
2372.24349	0.03401
2370.95772	0.03413
2369.67195	0.03442
2368.38618	0.03475
2367.10041	0.03485
2365.81464	0.03446
2364.52887	0.03432
2363.24310	0.03444
2361.95733	0.03458
2360.67157	0.03432
2359.38580	0.03433
2358.10003	0.03443
2356.81426	0.03449
2355.52849	0.03456
2354.24272	0.03461
2352.95695	0.03482
2351.67118	0.03468
2350.38542	0.03408
2349.09965	0.03392
2347.81388	0.03477
2346.52811	0.03526
2345.24234	0.03513
2343.95657	0.03530
2342.67080	0.03625
2341.38503	0.03624
2340.09926	0.03484
2338.81350	0.03427
2337.52773	0.03492
2336.24196	0.03443
2334.95619	0.03309
2333.67042	0.03338
2332.38465	0.03486
2331.09888	0.03367
2329.81311	0.03213
2328.52735	0.03352
2327.24158	0.03331
2325.95581	0.03249
2324.67004	0.03451
2323.38427	0.03567
2322.09850	0.03521
2320.81273	0.03680
2319.52696	0.03723
2318.24119	0.03680
2316.95543	0.03773
2315.66966	0.03752
2314.38389	0.03683
2313.09812	0.03690
2311.81235	0.03628
2310.52658	0.03611
2309.24081	0.03596
2307.95504	0.03535
2306.66928	0.03527
2305.38351	0.03499
2304.09774	0.03481
2302.81197	0.03485
2301.52620	0.03479
2300.24043	0.03501
2298.95466	0.03518
2297.66889	0.03534
2296.38312	0.03537
2295.09736	0.03515
2293.81159	0.03477
2292.52582	0.03420
2291.24005	0.03367
2289.95428	0.03334
2288.66851	0.03338
2287.38274	0.03371
2286.09697	0.03408
2284.81121	0.03422
2283.52544	0.03400
2282.23967	0.03357
2280.95390	0.03321
2279.66813	0.03308
2278.38236	0.03301
2277.09659	0.03275
2275.81082	0.03225
2274.52505	0.03174
2273.23929	0.03144
2271.95352	0.03127
2270.66775	0.03106
2269.38198	0.03080
2268.09621	0.03068
2266.81044	0.03074
2265.52467	0.03084
2264.23890	0.03085
2262.95314	0.03073
2261.66737	0.03056
2260.38160	0.03053
2259.09583	0.03063
2257.81006	0.03058
2256.52429	0.03015
2255.23852	0.02936
2253.95275	0.02842
2252.66698	0.02753
2251.38122	0.02687
2250.09545	0.02672
2248.80968	0.02721
2247.52391	0.02717
2246.23814	0.02703
2244.95237	0.02671
2243.66660	0.02631
2242.38083	0.02610
2241.09507	0.02613
2239.80930	0.02622
2238.52353	0.02616
2237.23776	0.02594
2235.95199	0.02573
2234.66622	0.02565
2233.38045	0.02573
2232.09468	0.02595
2230.80891	0.02625
2229.52315	0.02643
2228.23738	0.02624
2226.95161	0.02565
2225.66584	0.02512
2224.38007	0.02518
2223.09430	0.02582
2221.80853	0.02639
2220.52276	0.02632
2219.23700	0.02560
2217.95123	0.02451
2216.66546	0.02322
2215.37969	0.02199
2214.09392	0.02129
2212.80815	0.02147
2211.52238	0.02227
2210.23661	0.02292
2208.95084	0.02287
2207.66508	0.02228
2206.37931	0.02181
2205.09354	0.02182
2203.80777	0.02207
2202.52200	0.02220
2201.23623	0.02221
2199.95046	0.02223
2198.66469	0.02214
2197.37893	0.02161
2196.09316	0.02056
2194.80739	0.01938
2193.52162	0.01861
2192.23585	0.01855
2190.95008	0.01909
2189.66431	0.01988
2188.37854	0.02066
2187.09277	0.02126
2185.80701	0.02146
2184.52124	0.02109
2183.23547	0.02029
2181.94970	0.01953
2180.66393	0.01898
2179.37816	0.01841
2178.09239	0.01767
2176.80662	0.01718
2175.52085	0.01761
2174.23509	0.01926
2172.94932	0.02158
2171.66355	0.02336
2170.37778	0.02352
2169.09201	0.02178
2167.80624	0.01896
2166.52047	0.01658
2165.23470	0.01569
2163.94894	0.01593
2162.66317	0.01579
2161.37740	0.01420
2160.09163	0.01192
2158.80586	0.01087
2157.52009	0.01210
2156.23432	0.01469
2154.94855	0.01690
2153.66278	0.01771
2152.37702	0.01738
2151.09125	0.01675
2149.80548	0.01631
2148.51971	0.01601
2147.23394	0.01584
2145.94817	0.01607
2144.66240	0.01681
2143.37663	0.01773
2142.09087	0.01842
2140.80510	0.01895
2139.51933	0.01953
2138.23356	0.02006
2136.94779	0.02021
2135.66202	0.01985
2134.37625	0.01933
2133.09048	0.01921
2131.80471	0.01975
2130.51895	0.02067
2129.23318	0.02145
2127.94741	0.02182
2126.66164	0.02194
2125.37587	0.02210
2124.09010	0.02235
2122.80433	0.02256
2121.51856	0.02275
2120.23280	0.02309
2118.94703	0.02359
2117.66126	0.02404
2116.37549	0.02430
2115.08972	0.02444
2113.80395	0.02458
2112.51818	0.02471
2111.23241	0.02473
2109.94664	0.02455
2108.66088	0.02407
2107.37511	0.02322
2106.08934	0.02210
2104.80357	0.02102
2103.51780	0.02028
2102.23203	0.01993
2100.94626	0.01990
2099.66049	0.02043
2098.37473	0.02073
2097.08896	0.02072
2095.80319	0.02058
2094.51742	0.02049
2093.23165	0.02054
2091.94588	0.02061
2090.66011	0.02051
2089.37434	0.02014
2088.08857	0.01966
2086.80281	0.01934
2085.51704	0.01928
2084.23127	0.01945
2082.94550	0.01973
2081.65973	0.02007
2080.37396	0.02041
2079.08819	0.02062
2077.80242	0.02054
2076.51666	0.02013
2075.23089	0.01954
2073.94512	0.01898
2072.65935	0.01861
2071.37358	0.01850
2070.08781	0.01865
2068.80204	0.01892
2067.51627	0.01911
2066.23050	0.01906
2064.94474	0.01870
2063.65897	0.01806
2062.37320	0.01727
2061.08743	0.01658
2059.80166	0.01624
2058.51589	0.01623
2057.23012	0.01627
2055.94435	0.01610
2054.65859	0.01571
2053.37282	0.01530
2052.08705	0.01509
2050.80128	0.01517
2049.51551	0.01551
2048.22974	0.01595
2046.94397	0.01624
2045.65820	0.01625
2044.37243	0.01598
2043.08667	0.01551
2041.80090	0.01498
2040.51513	0.01454
2039.22936	0.01429
2037.94359	0.01413
2036.65782	0.01381
2035.37205	0.01319
2034.08628	0.01257
2032.80052	0.01245
2031.51475	0.01306
2030.22898	0.01391
2028.94321	0.01419
2027.65744	0.01358
2026.37167	0.01262
2025.08590	0.01209
2023.80013	0.01226
2022.51436	0.01266
2021.22860	0.01266
2019.94283	0.01204
2018.65706	0.01112
2017.37129	0.01046
2016.08552	0.01035
2014.79975	0.01063
2013.51398	0.01084
2012.22821	0.01058
2010.94245	0.00992
2009.65668	0.00950
2008.37091	0.00993
2007.08514	0.01123
2005.79937	0.01280
2004.51360	0.01401
2003.22783	0.01462
2001.94206	0.01467
2000.65629	0.01435
1999.37053	0.01386
1998.08476	0.01349
1996.79899	0.01348
1995.51322	0.01383
1994.22745	0.01429
1992.94168	0.01458
1991.65591	0.01468
1990.37014	0.01485
1989.08438	0.01530
1987.79861	0.01578
1986.51284	0.01587
1985.22707	0.01545
1983.94130	0.01484
1982.65553	0.01442
1981.36976	0.01432
1980.08399	0.01444
1978.79822	0.01476
1977.51246	0.01529
1976.22669	0.01594
1974.94092	0.01646
1973.65515	0.01673
1972.36938	0.01708
1971.08361	0.01785
1969.79784	0.01886
1968.51207	0.01947
1967.22631	0.01930
1965.94054	0.01868
1964.65477	0.01820
1963.36900	0.01815
1962.08323	0.01836
1960.79746	0.01868
1959.51169	0.01907
1958.22592	0.01944
1956.94015	0.01958
1955.65439	0.01934
1954.36862	0.01890
1953.08285	0.01857
1951.79708	0.01855
1950.51131	0.01882
1949.22554	0.01922
1947.93977	0.01955
1946.65400	0.01962
1945.36823	0.01938
1944.08247	0.01897
1942.79670	0.01869
1941.51093	0.01873
1940.22516	0.01901
1938.93939	0.01921
1937.65362	0.01906
1936.36785	0.01868
1935.08208	0.01841
1933.79632	0.01857
1932.51055	0.01912
1931.22478	0.01979
1929.93901	0.02032
1928.65324	0.02060
1927.36747	0.02064
1926.08170	0.02059
1924.79593	0.02056
1923.51016	0.02059
1922.22440	0.02062
1920.93863	0.02060
1919.65286	0.02054
1918.36709	0.02039
1917.08132	0.02020
1915.79555	0.02008
1914.50978	0.02022
1913.22401	0.02065
1911.93825	0.02114
1910.65248	0.02139
1909.36671	0.02126
1908.08094	0.02096
1906.79517	0.02081
1905.50940	0.02097
1904.22363	0.02131
1902.93786	0.02160
1901.65209	0.02177
1900.36633	0.02193
1899.08056	0.02216
1897.79479	0.02235
1896.50902	0.02233
1895.22325	0.02208
1893.93748	0.02179
1892.65171	0.02162
1891.36594	0.02159
1890.08018	0.02161
1888.79441	0.02162
1887.50864	0.02164
1886.22287	0.02168
1884.93710	0.02172
1883.65133	0.02179
1882.36556	0.02190
1881.07979	0.02199
1879.79402	0.02196
1878.50826	0.02185
1877.22249	0.02179
1875.93672	0.02187
1874.65095	0.02198
1873.36518	0.02202
1872.07941	0.02192
1870.79364	0.02176
1869.50787	0.02168
1868.22211	0.02178
1866.93634	0.02212
1865.65057	0.02257
1864.36480	0.02292
1863.07903	0.02300
1861.79326	0.02279
1860.50749	0.02246
1859.22172	0.02223
1857.93595	0.02215
1856.65019	0.02213
1855.36442	0.02203
1854.07865	0.02193
1852.79288	0.02195
1851.50711	0.02214
1850.22134	0.02236
1848.93557	0.02251
1847.64980	0.02253
1846.36404	0.02237
1845.07827	0.02205
1843.79250	0.02172
1842.50673	0.02161
1841.22096	0.02183
1839.93519	0.02226
1838.64942	0.02268
1837.36365	0.02295
1836.07788	0.02304
1834.79212	0.02303
1833.50635	0.02298
1832.22058	0.02290
1830.93481	0.02281
1829.64904	0.02274
1828.36327	0.02272
1827.07750	0.02277
1825.79173	0.02288
1824.50597	0.02300
1823.22020	0.02307
1821.93443	0.02306
1820.64866	0.02297
1819.36289	0.02282
1818.07712	0.02264
1816.79135	0.02249
1815.50558	0.02243
1814.21981	0.02248
1812.93405	0.02258
1811.64828	0.02266
1810.36251	0.02269
1809.07674	0.02267
1807.79097	0.02262
1806.50520	0.02258
1805.21943	0.02260
1803.93366	0.02270
1802.64790	0.02283
1801.36213	0.02292
1800.07636	0.02294
1798.79059	0.02294
1797.50482	0.02295
1796.21905	0.02298
1794.93328	0.02301
1793.64751	0.02307
1792.36174	0.02318
1791.07598	0.02334
1789.79021	0.02348
1788.50444	0.02354
1787.21867	0.02351
1785.93290	0.02340
1784.64713	0.02324
1783.36136	0.02311
1782.07559	0.02303
1780.78983	0.02301
1779.50406	0.02304
1778.21829	0.02308
1776.93252	0.02309
1775.64675	0.02308
1774.36098	0.02306
1773.07521	0.02305
1771.78944	0.02312
1770.50367	0.02327
1769.21791	0.02343
1767.93214	0.02357
1766.64637	0.02368
1765.36060	0.02374
1764.07483	0.02374
1762.78906	0.02372
1761.50329	0.02369
1760.21752	0.02364
1758.93176	0.02353
1757.64599	0.02340
1756.36022	0.02336
1755.07445	0.02348
1753.78868	0.02369
1752.50291	0.02388
1751.21714	0.02397
1749.93137	0.02392
1748.64560	0.02374
1747.35984	0.02353
1746.07407	0.02341
1744.78830	0.02346
1743.50253	0.02360
1742.21676	0.02377
1740.93099	0.02388
1739.64522	0.02397
1738.35945	0.02407
1737.07369	0.02416
1735.78792	0.02418
1734.50215	0.02418
1733.21638	0.02427
1731.93061	0.02443
1730.64484	0.02456
1729.35907	0.02460
1728.07330	0.02458
1726.78753	0.02454
1725.50177	0.02452
1724.21600	0.02459
1722.93023	0.02475
1721.64446	0.02498
1720.35869	0.02519
1719.07292	0.02537
1717.78715	0.02558
1716.50138	0.02587
1715.21561	0.02617
1713.92985	0.02643
1712.64408	0.02668
1711.35831	0.02698
1710.07254	0.02739
1708.78677	0.02790
1707.50100	0.02841
1706.21523	0.02889
1704.92946	0.02938
1703.64370	0.02996
1702.35793	0.03059
1701.07216	0.03129
1699.78639	0.03206
1698.50062	0.03277
1697.21485	0.03330
1695.92908	0.03376
1694.64331	0.03435
1693.35754	0.03508
1692.07178	0.03579
1690.78601	0.03647
1689.50024	0.03719
1688.21447	0.03793
1686.92870	0.03860
1685.64293	0.03917
1684.35716	0.03977
1683.07139	0.04048
1681.78563	0.04119
1680.49986	0.04184
1679.21409	0.04244
1677.92832	0.04305
1676.64255	0.04368
1675.35678	0.04438
1674.07101	0.04517
1672.78524	0.04600
1671.49947	0.04675
1670.21371	0.04740
1668.92794	0.04800
1667.64217	0.04860
1666.35640	0.04923
1665.07063	0.04989
1663.78486	0.05057
1662.49909	0.05124
1661.21332	0.05183
1659.92756	0.05234
1658.64179	0.05282
1657.35602	0.05337
1656.07025	0.05392
1654.78448	0.05438
1653.49871	0.05477
1652.21294	0.05518
1650.92717	0.05557
1649.64140	0.05579
1648.35564	0.05585
1647.06987	0.05588
1645.78410	0.05599
1644.49833	0.05611
1643.21256	0.05617
1641.92679	0.05613
1640.64102	0.05603
1639.35525	0.05589
1638.06949	0.05569
1636.78372	0.05540
1635.49795	0.05505
1634.21218	0.05469
1632.92641	0.05431
1631.64064	0.05388
1630.35487	0.05343
1629.06910	0.05298
1627.78333	0.05257
1626.49757	0.05221
1625.21180	0.05188
1623.92603	0.05154
1622.64026	0.05120
1621.35449	0.05085
1620.06872	0.05047
1618.78295	0.04999
1617.49718	0.04947
1616.21142	0.04900
1614.92565	0.04864
1613.63988	0.04834
1612.35411	0.04808
1611.06834	0.04783
1609.78257	0.04759
1608.49680	0.04737
1607.21103	0.04719
1605.92526	0.04710
1604.63950	0.04707
1603.35373	0.04708
1602.06796	0.04706
1600.78219	0.04699
1599.49642	0.04691
1598.21065	0.04687
1596.92488	0.04689
1595.63911	0.04699
1594.35335	0.04714
1593.06758	0.04734
1591.78181	0.04756
1590.49604	0.04781
1589.21027	0.04806
1587.92450	0.04830
1586.63873	0.04854
1585.35296	0.04880
1584.06719	0.04914
1582.78143	0.04958
1581.49566	0.05010
1580.20989	0.05066
1578.92412	0.05116
1577.63835	0.05159
1576.35258	0.05205
1575.06681	0.05261
1573.78104	0.05321
1572.49528	0.05374
1571.20951	0.05423
1569.92374	0.05476
1568.63797	0.05536
1567.35220	0.05593
1566.06643	0.05641
1564.78066	0.05685
1563.49489	0.05732
1562.20912	0.05783
1560.92336	0.05832
1559.63759	0.05881
1558.35182	0.05931
1557.06605	0.05976
1555.78028	0.06008
1554.49451	0.06032
1553.20874	0.06061
1551.92297	0.06093
1550.63721	0.06123
1549.35144	0.06148
1548.06567	0.06168
1546.77990	0.06181
1545.49413	0.06188
1544.20836	0.06188
1542.92259	0.06183
1541.63682	0.06169
1540.35105	0.06151
1539.06529	0.06139
1537.77952	0.06135
1536.49375	0.06131
1535.20798	0.06123
1533.92221	0.06116
1532.63644	0.06121
1531.35067	0.06139
1530.06490	0.06168
1528.77914	0.06204
1527.49337	0.06245
1526.20760	0.06290
1524.92183	0.06338
1523.63606	0.06388
1522.35029	0.06442
1521.06452	0.06510
1519.77875	0.06595
1518.49298	0.06688
1517.20722	0.06785
1515.92145	0.06887
1514.63568	0.06996
1513.34991	0.07110
1512.06414	0.07232
1510.77837	0.07366
1509.49260	0.07506
1508.20683	0.07644
1506.92107	0.07777
1505.63530	0.07910
1504.34953	0.08039
1503.06376	0.08157
1501.77799	0.08263
1500.49222	0.08365
1499.20645	0.08467
1497.92068	0.08566
1496.63491	0.08661
1495.34915	0.08749
1494.06338	0.08830
1492.77761	0.08904
1491.49184	0.08977
1490.20607	0.09061
1488.92030	0.09162
1487.63453	0.09276
1486.34876	0.09398
1485.06299	0.09524
1483.77723	0.09656
1482.49146	0.09796
1481.20569	0.09944
1479.91992	0.10096
1478.63415	0.10250
1477.34838	0.10403
1476.06261	0.10552
1474.77684	0.10689
1473.49108	0.10809
1472.20531	0.10914
1470.91954	0.11007
1469.63377	0.11093
1468.34800	0.11171
1467.06223	0.11237
1465.77646	0.11293
1464.49069	0.11340
1463.20492	0.11384
1461.91916	0.11432
1460.63339	0.11487
1459.34762	0.11551
1458.06185	0.11624
1456.77608	0.11710
1455.49031	0.11801
1454.20454	0.11881
1452.91877	0.11942
1451.63301	0.11991
1450.34724	0.12037
1449.06147	0.12082
1447.77570	0.12120
1446.48993	0.12146
1445.20416	0.12152
1443.91839	0.12135
1442.63262	0.12100
1441.34685	0.12050
1440.06109	0.11989
1438.77532	0.11924
1437.48955	0.11868
1436.20378	0.11836
1434.91801	0.11833
1433.63224	0.11855
1432.34647	0.11901
1431.06070	0.11973
1429.77494	0.12072
1428.48917	0.12192
1427.20340	0.12326
1425.91763	0.12469
1424.63186	0.12625
1423.34609	0.12796
1422.06032	0.12973
1420.77455	0.13148
1419.48878	0.13311
1418.20302	0.13458
1416.91725	0.13581
1415.63148	0.13676
1414.34571	0.13747
1413.05994	0.13800
1411.77417	0.13837
1410.48840	0.13858
1409.20263	0.13860
1407.91687	0.13837
1406.63110	0.13782
1405.34533	0.13694
1404.05956	0.13577
1402.77379	0.13436
1401.48802	0.13276
1400.20225	0.13097
1398.91648	0.12901
1397.63071	0.12692
1396.34495	0.12471
1395.05918	0.12238
1393.77341	0.11997
1392.48764	0.11750
1391.20187	0.11503
1389.91610	0.11262
1388.63033	0.11031
1387.34456	0.10809
1386.05880	0.10593
1384.77303	0.10377
1383.48726	0.10160
1382.20149	0.09949
1380.91572	0.09744
1379.62995	0.09543
1378.34418	0.09337
1377.05841	0.09117
1375.77264	0.08879
1374.48688	0.08627
1373.20111	0.08372
1371.91534	0.08119
1370.62957	0.07871
1369.34380	0.07629
1368.05803	0.07399
1366.77226	0.07186
1365.48649	0.06989
1364.20073	0.06804
1362.91496	0.06625
1361.62919	0.06448
1360.34342	0.06274
1359.05765	0.06107
1357.77188	0.05953
1356.48611	0.05816
1355.20034	0.05695
1353.91457	0.05583
1352.62881	0.05478
1351.34304	0.05381
1350.05727	0.05292
1348.77150	0.05207
1347.48573	0.05126
1346.19996	0.05048
1344.91419	0.04977
1343.62842	0.04911
1342.34266	0.04852
1341.05689	0.04797
1339.77112	0.04747
1338.48535	0.04699
1337.19958	0.04650
1335.91381	0.04598
1334.62804	0.04543
1333.34227	0.04486
1332.05650	0.04430
1330.77074	0.04375
1329.48497	0.04324
1328.19920	0.04276
1326.91343	0.04234
1325.62766	0.04198
1324.34189	0.04166
1323.05612	0.04138
1321.77035	0.04111
1320.48459	0.04084
1319.19882	0.04055
1317.91305	0.04024
1316.62728	0.03991
1315.34151	0.03955
1314.05574	0.03915
1312.76997	0.03873
1311.48420	0.03836
1310.19843	0.03807
1308.91267	0.03785
1307.62690	0.03765
1306.34113	0.03740
1305.05536	0.03708
1303.76959	0.03672
1302.48382	0.03635
1301.19805	0.03602
1299.91228	0.03574
1298.62652	0.03548
1297.34075	0.03523
1296.05498	0.03497
1294.76921	0.03473
1293.48344	0.03455
1292.19767	0.03443
1290.91190	0.03434
1289.62613	0.03423
1288.34036	0.03405
1287.05460	0.03382
1285.76883	0.03356
1284.48306	0.03332
1283.19729	0.03308
1281.91152	0.03282
1280.62575	0.03254
1279.33998	0.03230
1278.05421	0.03213
1276.76845	0.03204
1275.48268	0.03198
1274.19691	0.03189
1272.91114	0.03175
1271.62537	0.03158
1270.33960	0.03140
1269.05383	0.03119
1267.76806	0.03094
1266.48229	0.03070
1265.19653	0.03051
1263.91076	0.03037
1262.62499	0.03026
1261.33922	0.03015
1260.05345	0.03003
1258.76768	0.02993
1257.48191	0.02992
1256.19614	0.02997
1254.91037	0.03001
1253.62461	0.02994
1252.33884	0.02978
1251.05307	0.02958
1249.76730	0.02940
1248.48153	0.02925
1247.19576	0.02908
1245.90999	0.02890
1244.62422	0.02873
1243.33846	0.02859
1242.05269	0.02850
1240.76692	0.02842
1239.48115	0.02834
1238.19538	0.02824
1236.90961	0.02812
1235.62384	0.02796
1234.33807	0.02776
1233.05230	0.02752
1231.76654	0.02727
1230.48077	0.02705
1229.19500	0.02687
1227.90923	0.02673
1226.62346	0.02660
1225.33769	0.02642
1224.05192	0.02619
1222.76615	0.02593
1221.48039	0.02569
1220.19462	0.02549
1218.90885	0.02532
1217.62308	0.02518
1216.33731	0.02507
1215.05154	0.02500
1213.76577	0.02492
1212.48000	0.02479
1211.19423	0.02461
1209.90847	0.02444
1208.62270	0.02433
1207.33693	0.02429
1206.05116	0.02429
1204.76539	0.02432
1203.47962	0.02434
1202.19385	0.02435
1200.90808	0.02430
1199.62232	0.02418
1198.33655	0.02409
1197.05078	0.02394
1195.76501	0.02374
1194.47924	0.02352
1193.19347	0.02332
1191.90770	0.02314
1190.62193	0.02300
1189.33616	0.02290
1188.05040	0.02287
1186.76463	0.02287
1185.47886	0.02287
1184.19309	0.02286
1182.90732	0.02287
1181.62155	0.02289
1180.33578	0.02288
1179.05001	0.02281
1177.76425	0.02269
1176.47848	0.02260
1175.19271	0.02256
1173.90694	0.02257
1172.62117	0.02259
1171.33540	0.02261
1170.04963	0.02263
1168.76386	0.02267
1167.47809	0.02277
1166.19233	0.02290
1164.90656	0.02305
1163.62079	0.02316
1162.33502	0.02320
1161.04925	0.02322
1159.76348	0.02328
1158.47771	0.02337
1157.19194	0.02350
1155.90618	0.02362
1154.62041	0.02375
1153.33464	0.02390
1152.04887	0.02408
1150.76310	0.02434
1149.47733	0.02468
1148.19156	0.02507
1146.90579	0.02547
1145.62002	0.02589
1144.33426	0.02638
1143.04849	0.02697
1141.76272	0.02770
1140.47695	0.02856
1139.19118	0.02957
1137.90541	0.03069
1136.61964	0.03192
1135.33387	0.03326
1134.04811	0.03473
1132.76234	0.03635
1131.47657	0.03813
1130.19080	0.04009
1128.90503	0.04232
1127.61926	0.04489
1126.33349	0.04777
1125.04772	0.05090
1123.76195	0.05423
1122.47619	0.05771
1121.19042	0.06125
1119.90465	0.06480
1118.61888	0.06838
1117.33311	0.07209
1116.04734	0.07595
1114.76157	0.07986
1113.47580	0.08369
1112.19004	0.08740
1110.90427	0.09105
1109.61850	0.09469
1108.33273	0.09828
1107.04696	0.10177
1105.76119	0.10515
1104.47542	0.10843
1103.18965	0.11159
1101.90388	0.11460
1100.61812	0.11749
1099.33235	0.12031
1098.04658	0.12305
1096.76081	0.12565
1095.47504	0.12810
1094.18927	0.13039
1092.90350	0.13253
1091.61773	0.13453
1090.33197	0.13639
1089.04620	0.13818
1087.76043	0.13993
1086.47466	0.14171
1085.18889	0.14352
1083.90312	0.14532
1082.61735	0.14715
1081.33158	0.14905
1080.04581	0.15113
1078.76005	0.15345
1077.47428	0.15603
1076.18851	0.15881
1074.90274	0.16173
1073.61697	0.16477
1072.33120	0.16796
1071.04543	0.17133
1069.75966	0.17488
1068.47390	0.17857
1067.18813	0.18235
1065.90236	0.18620
1064.61659	0.19009
1063.33082	0.19400
1062.04505	0.19794
1060.75928	0.20188
1059.47351	0.20581
1058.18774	0.20971
1056.90198	0.21354
1055.61621	0.21726
1054.33044	0.22090
1053.04467	0.22456
1051.75890	0.22830
1050.47313	0.23214
1049.18736	0.23601
1047.90159	0.23994
1046.61583	0.24396
1045.33006	0.24816
1044.04429	0.25250
1042.75852	0.25691
1041.47275	0.26132
1040.18698	0.26570
1038.90121	0.27013
1037.61544	0.27467
1036.32967	0.27931
1035.04391	0.28392
1033.75814	0.28839
1032.47237	0.29264
1031.18660	0.29671
1029.90083	0.30065
1028.61506	0.30436
1027.32929	0.30770
1026.04352	0.31053
1024.75775	0.31286
1023.47199	0.31478
1022.18622	0.31634
1020.90045	0.31753
1019.61468	0.31829
1018.32891	0.31853
1017.04314	0.31825
1015.75737	0.31743
1014.47160	0.31607
1013.18584	0.31417
1011.90007	0.31163
1010.61430	0.30842
1009.32853	0.30451
1008.04276	0.29996
1006.75699	0.29480
1005.47122	0.28907
1004.18545	0.28284
1002.89968	0.27615
1001.61392	0.26901
1000.32815	0.26149
999.04238	0.25370
997.75661	0.24579
996.47084	0.23784
995.18507	0.22991
993.89930	0.22197
992.61353	0.21405
991.32777	0.20625
990.04200	0.19869
988.75623	0.19141
987.47046	0.18442
986.18469	0.17769
984.89892	0.17127
983.61315	0.16520
982.32738	0.15945
981.04161	0.15392
979.75585	0.14862
978.47008	0.14366
977.18431	0.13915
975.89854	0.13516
974.61277	0.13167
973.32700	0.12866
972.04123	0.12619
970.75546	0.12432
969.46970	0.12315
968.18393	0.12269
966.89816	0.12290
965.61239	0.12363
964.32662	0.12468
963.04085	0.12580
961.75508	0.12673
960.46931	0.12719
959.18354	0.12691
957.89778	0.12579
956.61201	0.12389
955.32624	0.12147
954.04047	0.11878
952.75470	0.11596
951.46893	0.11310
950.18316	0.11024
948.89739	0.10737
947.61163	0.10450
946.32586	0.10170
945.04009	0.09905
943.75432	0.09657
942.46855	0.09418
941.18278	0.09179
939.89701	0.08946
938.61124	0.08729
937.32547	0.08534
936.03971	0.08358
934.75394	0.08195
933.46817	0.08042
932.18240	0.07896
930.89663	0.07756
929.61086	0.07622
928.32509	0.07494
927.03932	0.07371
925.75356	0.07254
924.46779	0.07143
923.18202	0.07039
921.89625	0.06940
920.61048	0.06842
919.32471	0.06746
918.03894	0.06655
916.75317	0.06573
915.46740	0.06501
914.18164	0.06434
912.89587	0.06371
911.61010	0.06311
910.32433	0.06252
909.03856	0.06189
907.75279	0.06116
906.46702	0.06033
905.18125	0.05950
903.89549	0.05876
902.60972	0.05817
901.32395	0.05769
900.03818	0.05731
898.75241	0.05702
897.46664	0.05679
896.18087	0.05656
894.89510	0.05623
893.60933	0.05577
892.32357	0.05529
891.03780	0.05492
889.75203	0.05479
888.46626	0.05497
887.18049	0.05558
885.89472	0.05688
884.60895	0.05910
883.32318	0.06227
882.03742	0.06609
880.75165	0.06993
879.46588	0.07316
878.18011	0.07553
876.89434	0.07735
875.60857	0.07916
874.32280	0.08118
873.03703	0.08313
871.75126	0.08442
870.46550	0.08459
869.17973	0.08358
867.89396	0.08161
866.60819	0.07896
865.32242	0.07591
864.03665	0.07271
862.75088	0.06959
861.46511	0.06671
860.17935	0.06420
858.89358	0.06210
857.60781	0.06042
856.32204	0.05911
855.03627	0.05802
853.75050	0.05702
852.46473	0.05607
851.17896	0.05521
849.89319	0.05451
848.60743	0.05395
847.32166	0.05345
846.03589	0.05293
844.75012	0.05240
843.46435	0.05188
842.17858	0.05138
840.89281	0.05091
839.60704	0.05045
838.32128	0.04998
837.03551	0.04950
835.74974	0.04905
834.46397	0.04866
833.17820	0.04838
831.89243	0.04821
830.60666	0.04811
829.32089	0.04802
828.03512	0.04785
826.74936	0.04756
825.46359	0.04719
824.17782	0.04678
822.89205	0.04643
821.60628	0.04617
820.32051	0.04603
819.03474	0.04599
817.74897	0.04598
816.46321	0.04596
815.17744	0.04594
813.89167	0.04590
812.60590	0.04579
811.32013	0.04560
810.03436	0.04535
808.74859	0.04514
807.46282	0.04500
806.17705	0.04493
804.89129	0.04486
803.60552	0.04477
802.31975	0.04465
801.03398	0.04453
799.74821	0.04439
798.46244	0.04422
797.17667	0.04404
795.89090	0.04387
794.60513	0.04370
793.31937	0.04354
792.03360	0.04343
790.74783	0.04339
789.46206	0.04340
788.17629	0.04338
786.89052	0.04330
785.60475	0.04319
784.31898	0.04305
783.03322	0.04291
781.74745	0.04277
780.46168	0.04264
779.17591	0.04255
777.89014	0.04247
776.60437	0.04239
775.31860	0.04229
774.03283	0.04216
772.74706	0.04202
771.46130	0.04188
770.17553	0.04178
768.88976	0.04176
767.60399	0.04180
766.31822	0.04187
765.03245	0.04191
763.74668	0.04192
762.46091	0.04195
761.17515	0.04204
759.88938	0.04220
758.60361	0.04236
757.31784	0.04245
756.03207	0.04244
754.74630	0.04237
753.46053	0.04227
752.17476	0.04216
750.88899	0.04204
749.60323	0.04191
748.31746	0.04179
747.03169	0.04173
745.74592	0.04169
744.46015	0.04164
743.17438	0.04148
741.88861	0.04117
740.60284	0.04076
739.31708	0.04044
738.03131	0.04035
736.74554	0.04051
735.45977	0.04071
734.17400	0.04074
732.88823	0.04055
731.60246	0.04023
730.31669	0.03998
729.03092	0.03989
727.74516	0.03996
726.45939	0.04014
725.17362	0.04032
723.88785	0.04026
722.60208	0.04053
721.31631	0.04095
720.03054	0.04130
718.74477	0.04149
717.45901	0.04156
716.17324	0.04147
714.88747	0.04123
713.60170	0.04088
712.31593	0.04048
711.03016	0.04014
709.74439	0.03990
708.45862	0.03976
707.17285	0.03967
705.88709	0.03958
704.60132	0.03948
703.31555	0.03938
702.02978	0.03930
700.74401	0.03928
699.45824	0.03934
698.17247	0.03945
696.88670	0.03957
695.60094	0.03965
694.31517	0.03969
693.02940	0.03971
691.74363	0.03970
690.45786	0.03964
689.17209	0.03950
687.88632	0.03928
686.60055	0.03903
685.31478	0.03882
684.02902	0.03868
682.74325	0.03858
681.45748	0.03851
680.17171	0.03844
678.88594	0.03835
677.60017	0.03821
676.31440	0.03809
675.02863	0.03804
673.74287	0.03811
672.45710	0.03818
671.17133	0.03807
669.88556	0.03792
668.59979	0.03843
667.31402	0.03864
666.02825	0.03800
664.74248	0.03802
663.45671	0.03792
662.17095	0.03757
660.88518	0.03723
659.59941	0.03698
658.31364	0.03684
657.02787	0.03679
655.74210	0.03678
654.45633	0.03674
653.17056	0.03662
651.88480	0.03646
650.59903	0.03634
649.31326	0.03632
648.02749	0.03637
646.74172	0.03644
645.45595	0.03649
644.17018	0.03655
642.88441	0.03664
641.59864	0.03675
640.31288	0.03681
639.02711	0.03679
637.74134	0.03674
636.45557	0.03677
635.16980	0.03694
633.88403	0.03721
632.59826	0.03748
631.31249	0.03779
630.02673	0.03840
628.74096	0.03916
627.45519	0.03909
626.16942	0.03987
624.88365	0.04135
623.59788	0.04325
622.31211	0.04585
621.02634	0.04933
619.74057	0.05336
618.45481	0.05726
617.16904	0.06041
615.88327	0.06269
614.59750	0.06473
613.31173	0.06751
612.02596	0.07158
610.74019	0.07691
609.45442	0.08338
608.16866	0.09097
606.88289	0.09918
605.59712	0.10688
604.31135	0.11295
603.02558	0.11679
601.73981	0.11832
600.45404	0.11777
599.16827	0.11561
597.88250	0.11239
596.59674	0.10867
595.31097	0.10486
594.02520	0.10124
592.73943	0.09805
591.45366	0.09552
590.16789	0.09390
588.88212	0.09326
587.59635	0.09350
586.31059	0.09440
585.02482	0.09576
583.73905	0.09755
582.45328	0.09978
581.16751	0.10243
579.88174	0.10537
578.59597	0.10847
577.31020	0.11163
576.02443	0.11477
574.73867	0.11784
573.45290	0.12077
572.16713	0.12366
570.88136	0.12673
569.59559	0.13031
568.30982	0.13461
567.02405	0.13957
565.73828	0.14481
564.45251	0.14971
563.16675	0.15362
561.88098	0.15603
560.59521	0.15655
559.30944	0.15498
558.02367	0.15133
556.73790	0.14594
555.45213	0.13933
554.16636	0.13195
552.88060	0.12424
551.59483	0.11670
550.30906	0.10981
549.02329	0.10384
547.73752	0.09872
546.45175	0.09420
545.16598	0.09004
543.88021	0.08611
542.59444	0.08244
541.30868	0.07913
540.02291	0.07626
538.73714	0.07379
537.45137	0.07157
536.16560	0.06946
534.87983	0.06741
533.59406	0.06546
532.30829	0.06366
531.02253	0.06199
529.73676	0.06044
528.45099	0.05899
527.16522	0.05764
525.87945	0.05639
524.59368	0.05526
523.30791	0.05421
522.02214	0.05320
520.73637	0.05213
519.45061	0.05101
518.16484	0.04991
516.87907	0.04892
515.59330	0.04804
514.30753	0.04722
513.02176	0.04642
511.73599	0.04565
510.45022	0.04497
509.16446	0.04439
507.87869	0.04383
506.59292	0.04318
505.30715	0.04246
504.02138	0.04178
502.73561	0.04128
501.44984	0.04094
500.16407	0.04067
498.87830	0.04034
497.59254	0.03993
496.30677	0.03945
495.02100	0.03891
493.73523	0.03831
492.44946	0.03774
491.16369	0.03729
489.87792	0.03701
488.59215	0.03684
487.30639	0.03669
486.02062	0.03652
484.73485	0.03635
483.44908	0.03624
482.16331	0.03624
480.87754	0.03633
479.59177	0.03646
478.30600	0.03656
477.02023	0.03664
475.73447	0.03673
474.44870	0.03687
473.16293	0.03701
471.87716	0.03713
470.59139	0.03722
469.30562	0.03727
468.01985	0.03722
466.73408	0.03703
465.44832	0.03668
464.16255	0.03626
462.87678	0.03580
461.59101	0.03531
460.30524	0.03478
459.01947	0.03422
457.73370	0.03367
456.44793	0.03318
455.16216	0.03273
453.87640	0.03230
452.59063	0.03188
451.30486	0.03148
450.01909	0.03116
448.73332	0.03093
447.44755	0.03075
446.16178	0.03053
444.87601	0.03024
443.59025	0.02988
442.30448	0.02953
441.01871	0.02925
439.73294	0.02904
438.44717	0.02887
437.16140	0.02868
435.87563	0.02848
434.58986	0.02832
433.30409	0.02823
432.01833	0.02818
430.73256	0.02808
429.44679	0.02788
428.16102	0.02761
426.87525	0.02736
425.58948	0.02716
424.30371	0.02702
423.01794	0.02686
421.73218	0.02663
420.44641	0.02634
419.16064	0.02605
417.87487	0.02578
416.58910	0.02553
415.30333	0.02529
414.01756	0.02510
412.73179	0.02501
411.44602	0.02501
410.16026	0.02505
408.87449	0.02511
407.58872	0.02514
406.30295	0.02510
405.01718	0.02498
403.73141	0.02483
402.44564	0.02472
401.15987	0.02471
399.87411	0.02477
