3997.45528	0.06134
3996.16951	0.06151
3994.88374	0.06133
3993.59798	0.06066
3992.31221	0.05969
3991.02644	0.05884
3989.74067	0.05835
3988.45490	0.05813
3987.16913	0.05796
3985.88336	0.05780
3984.59759	0.05779
3983.31183	0.05814
3982.02606	0.05893
3980.74029	0.05998
3979.45452	0.06089
3978.16875	0.06115
3976.88298	0.06052
3975.59721	0.05917
3974.31144	0.05775
3973.02567	0.05695
3971.73991	0.05696
3970.45414	0.05741
3969.16837	0.05779
3967.88260	0.05809
3966.59683	0.05867
3965.31106	0.05964
3964.02529	0.06058
3962.73952	0.06106
3961.45376	0.06101
3960.16799	0.06059
3958.88222	0.05974
3957.59645	0.05845
3956.31068	0.05723
3955.02491	0.05678
3953.73914	0.05730
3952.45337	0.05830
3951.16760	0.05925
3949.88184	0.06009
3948.59607	0.06100
3947.31030	0.06187
3946.02453	0.06236
3944.73876	0.06229
3943.45299	0.06194
3942.16722	0.06167
3940.88145	0.06160
3939.59569	0.06156
3938.30992	0.06140
3937.02415	0.06109
3935.73838	0.06062
3934.45261	0.05997
3933.16684	0.05919
3931.88107	0.05839
3930.59530	0.05774
3929.30953	0.05740
3928.02377	0.05750
3926.73800	0.05807
3925.45223	0.05889
3924.16646	0.05966
3922.88069	0.06009
3921.59492	0.06013
3920.30915	0.05987
3919.02338	0.05935
3917.73762	0.05863
3916.45185	0.05800
3915.16608	0.05791
3913.88031	0.05857
3912.59454	0.05963
3911.30877	0.06041
3910.02300	0.06052
3908.73723	0.06006
3907.45146	0.05946
3906.16570	0.05904
3904.87993	0.05890
3903.59416	0.05891
3902.30839	0.05890
3901.02262	0.05879
3899.73685	0.05875
3898.45108	0.05892
3897.16531	0.05913
3895.87955	0.05909
3894.59378	0.05874
3893.30801	0.05838
3892.02224	0.05843
3890.73647	0.05910
3889.45070	0.06008
3888.16493	0.06073
3886.87916	0.06052
3885.59339	0.05951
3884.30763	0.05811
3883.02186	0.05681
3881.73609	0.05607
3880.45032	0.05611
3879.16455	0.05675
3877.87878	0.05751
3876.59301	0.05795
3875.30724	0.05790
3874.02148	0.05752
3872.73571	0.05706
3871.44994	0.05692
3870.16417	0.05750
3868.87840	0.05874
3867.59263	0.05990
3866.30686	0.06038
3865.02109	0.06032
3863.73532	0.06009
3862.44956	0.05979
3861.16379	0.05950
3859.87802	0.05946
3858.59225	0.05964
3857.30648	0.05960
3856.02071	0.05896
3854.73494	0.05810
3853.44917	0.05783
3852.16341	0.05823
3850.87764	0.05855
3849.59187	0.05823
3848.30610	0.05747
3847.02033	0.05677
3845.73456	0.05646
3844.44879	0.05656
3843.16302	0.05689
3841.87725	0.05724
3840.59149	0.05739
3839.30572	0.05739
3838.01995	0.05739
3836.73418	0.05742
3835.44841	0.05731
3834.16264	0.05716
3832.87687	0.05733
3831.59110	0.05797
3830.30534	0.05871
3829.01957	0.05904
3827.73380	0.05881
3826.44803	0.05830
3825.16226	0.05789
3823.87649	0.05769
3822.59072	0.05767
3821.30495	0.05781
3820.01918	0.05779
3818.73342	0.05705
3817.44765	0.05555
3816.16188	0.05419
3814.87611	0.05387
3813.59034	0.05439
3812.30457	0.05501
3811.01880	0.05532
3809.73303	0.05526
3808.44726	0.05500
3807.16150	0.05484
3805.87573	0.05498
3804.58996	0.05522
3803.30419	0.05527
3802.01842	0.05514
3800.73265	0.05499
3799.44688	0.05475
3798.16111	0.05438
3796.87535	0.05413
3795.58958	0.05419
3794.30381	0.05436
3793.01804	0.05450
3791.73227	0.05479
3790.44650	0.05538
3789.16073	0.05602
3787.87496	0.05624
3786.58919	0.05578
3785.30343	0.05483
3784.01766	0.05392
3782.73189	0.05353
3781.44612	0.05371
3780.16035	0.05410
3778.87458	0.05426
3777.58881	0.05407
3776.30304	0.05385
3775.01728	0.05405
3773.73151	0.05476
3772.44574	0.05569
3771.15997	0.05650
3769.87420	0.05703
3768.58843	0.05717
3767.30266	0.05695
3766.01689	0.05665
3764.73112	0.05655
3763.44536	0.05642
3762.15959	0.05576
3760.87382	0.05440
3759.58805	0.05277
3758.30228	0.05154
3757.01651	0.05114
3755.73074	0.05149
3754.44497	0.05207
3753.15921	0.05246
3751.87344	0.05263
3750.58767	0.05270
3749.30190	0.05280
3748.01613	0.05295
3746.73036	0.05289
3745.44459	0.05262
3744.15882	0.05259
3742.87305	0.05287
3741.58729	0.05289
3740.30152	0.05241
3739.01575	0.05179
3737.72998	0.05143
3736.44421	0.05155
3735.15844	0.05204
3733.87267	0.05242
3732.58690	0.05230
3731.30114	0.05180
3730.01537	0.05140
3728.72960	0.05147
3727.44383	0.05204
3726.15806	0.05279
3724.87229	0.05328
3723.58652	0.05344
3722.30075	0.05362
3721.01498	0.05413
3719.72922	0.05489
3718.44345	0.05555
3717.15768	0.05572
3715.87191	0.05516
3714.58614	0.05396
3713.30037	0.05267
3712.01460	0.05193
3710.72883	0.05194
3709.44307	0.05237
3708.15730	0.05270
3706.87153	0.05264
3705.58576	0.05220
3704.29999	0.05168
3703.01422	0.05148
3701.72845	0.05181
3700.44268	0.05249
3699.15691	0.05302
3697.87115	0.05304
3696.58538	0.05269
3695.29961	0.05234
3694.01384	0.05225
3692.72807	0.05252
3691.44230	0.05301
3690.15653	0.05352
3688.87076	0.05393
3687.58500	0.05421
3686.29923	0.05423
3685.01346	0.05380
3683.72769	0.05303
3682.44192	0.05220
3681.15615	0.05165
3679.87038	0.05154
3678.58461	0.05163
3677.29884	0.05151
3676.01308	0.05126
3674.72731	0.05142
3673.44154	0.05212
3672.15577	0.05294
3670.87000	0.05344
3669.58423	0.05338
3668.29846	0.05260
3667.01269	0.05138
3665.72693	0.05049
3664.44116	0.05049
3663.15539	0.05122
3661.86962	0.05215
3660.58385	0.05288
3659.29808	0.05328
3658.01231	0.05336
3656.72654	0.05333
3655.44077	0.05351
3654.15501	0.05401
3652.86924	0.05466
3651.58347	0.05514
3650.29770	0.05539
3649.01193	0.05561
3647.72616	0.05596
3646.44039	0.05624
3645.15462	0.05603
3643.86886	0.05527
3642.58309	0.05445
3641.29732	0.05411
3640.01155	0.05431
3638.72578	0.05476
3637.44001	0.05523
3636.15424	0.05573
3634.86847	0.05631
3633.58270	0.05695
3632.29694	0.05746
3631.01117	0.05771
3629.72540	0.05794
3628.43963	0.05856
3627.15386	0.05948
3625.86809	0.06028
3624.58232	0.06077
3623.29655	0.06101
3622.01079	0.06107
3620.72502	0.06109
3619.43925	0.06137
3618.15348	0.06203
3616.86771	0.06280
3615.58194	0.06325
3614.29617	0.06325
3613.01040	0.06304
3611.72463	0.06280
3610.43887	0.06257
3609.15310	0.06234
3607.86733	0.06208
3606.58156	0.06175
3605.29579	0.06136
3604.01002	0.06110
3602.72425	0.06116
3601.43848	0.06159
3600.15272	0.06228
3598.86695	0.06300
3597.58118	0.06355
3596.29541	0.06389
3595.00964	0.06415
3593.72387	0.06453
3592.43810	0.06506
3591.15233	0.06556
3589.86656	0.06581
3588.58080	0.06568
3587.29503	0.06530
3586.00926	0.06498
3584.72349	0.06502
3583.43772	0.06559
3582.15195	0.06658
3580.86618	0.06774
3579.58041	0.06870
3578.29464	0.06907
3577.00888	0.06876
3575.72311	0.06816
3574.43734	0.06789
3573.15157	0.06825
3571.86580	0.06890
3570.58003	0.06927
3569.29426	0.06918
3568.00849	0.06894
3566.72273	0.06902
3565.43696	0.06953
3564.15119	0.07026
3562.86542	0.07088
3561.57965	0.07129
3560.29388	0.07159
3559.00811	0.07194
3557.72234	0.07237
3556.43657	0.07270
3555.15081	0.07275
3553.86504	0.07260
3552.57927	0.07257
3551.29350	0.07292
3550.00773	0.07359
3548.72196	0.07426
3547.43619	0.07464
3546.15042	0.07463
3544.86466	0.07440
3543.57889	0.07426
3542.29312	0.07450
3541.00735	0.07501
3539.72158	0.07537
3538.43581	0.07526
3537.15004	0.07487
3535.86427	0.07470
3534.57850	0.07500
3533.29274	0.07553
3532.00697	0.07593
3530.72120	0.07614
3529.43543	0.07635
3528.14966	0.07666
3526.86389	0.07697
3525.57812	0.07715
3524.29235	0.07722
3523.00659	0.07724
3521.72082	0.07730
3520.43505	0.07746
3519.14928	0.07781
3517.86351	0.07835
3516.57774	0.07906
3515.29197	0.07994
3514.00620	0.08083
3512.72043	0.08144
3511.43467	0.08156
3510.14890	0.08127
3508.86313	0.08089
3507.57736	0.08068
3506.29159	0.08062
3505.00582	0.08059
3503.72005	0.08050
3502.43428	0.08029
3501.14852	0.08001
3499.86275	0.07994
3498.57698	0.08034
3497.29121	0.08120
3496.00544	0.08216
3494.71967	0.08296
3493.43390	0.08362
3492.14813	0.08430
3490.86236	0.08496
3489.57660	0.08528
3488.29083	0.08505
3487.00506	0.08445
3485.71929	0.08391
3484.43352	0.08371
3483.14775	0.08372
3481.86198	0.08372
3480.57621	0.08378
3479.29045	0.08417
3478.00468	0.08489
3476.71891	0.08560
3475.43314	0.08593
3474.14737	0.08591
3472.86160	0.08583
3471.57583	0.08587
3470.29006	0.08598
3469.00429	0.08609
3467.71853	0.08618
3466.43276	0.08628
3465.14699	0.08637
3463.86122	0.08641
3462.57545	0.08642
3461.28968	0.08650
3460.00391	0.08670
3458.71814	0.08696
3457.43238	0.08717
3456.14661	0.08725
3454.86084	0.08724
3453.57507	0.08729
3452.28930	0.08756
3451.00353	0.08809
3449.71776	0.08885
3448.43199	0.08968
3447.14622	0.09031
3445.86046	0.09053
3444.57469	0.09037
3443.28892	0.09012
3442.00315	0.09009
3440.71738	0.09029
3439.43161	0.09050
3438.14584	0.09051
3436.86007	0.09027
3435.57431	0.08999
3434.28854	0.09001
3433.00277	0.09043
3431.71700	0.09108
3430.43123	0.09154
3429.14546	0.09156
3427.85969	0.09125
3426.57392	0.09099
3425.28815	0.09107
3424.00239	0.09142
3422.71662	0.09167
3421.43085	0.09156
3420.14508	0.09122
3418.85931	0.09104
3417.57354	0.09137
3416.28777	0.09219
3415.00200	0.09310
3413.71624	0.09357
3412.43047	0.09338
3411.14470	0.09278
3409.85893	0.09226
3408.57316	0.09215
3407.28739	0.09244
3406.00162	0.09290
3404.71585	0.09333
3403.43008	0.09365
3402.14432	0.09390
3400.85855	0.09415
3399.57278	0.09437
3398.28701	0.09452
3397.00124	0.09447
3395.71547	0.09413
3394.42970	0.09363
3393.14393	0.09333
3391.85817	0.09350
3390.57240	0.09404
3389.28663	0.09457
3388.00086	0.09479
3386.71509	0.09474
3385.42932	0.09460
3384.14355	0.09460
3382.85778	0.09486
3381.57201	0.09538
3380.28625	0.09604
3379.00048	0.09665
3377.71471	0.09708
3376.42894	0.09734
3375.14317	0.09745
3373.85740	0.09744
3372.57163	0.09741
3371.28586	0.09752
3370.00010	0.09783
3368.71433	0.09814
3367.42856	0.09811
3366.14279	0.09760
3364.85702	0.09686
3363.57125	0.09633
3362.28548	0.09629
3360.99971	0.09668
3359.71394	0.09722
3358.42818	0.09759
3357.14241	0.09763
3355.85664	0.09748
3354.57087	0.09744
3353.28510	0.09767
3351.99933	0.09799
3350.71356	0.09804
3349.42779	0.09775
3348.14202	0.09732
3346.85626	0.09696
3345.57049	0.09664
3344.28472	0.09629
3342.99895	0.09600
3341.71318	0.09594
3340.42741	0.09601
3339.14164	0.09599
3337.85587	0.09583
3336.57011	0.09575
3335.28434	0.09598
3333.99857	0.09641
3332.71280	0.09672
3331.42703	0.09669
3330.14126	0.09635
3328.85549	0.09597
3327.56972	0.09581
3326.28395	0.09590
3324.99819	0.09608
3323.71242	0.09612
3322.42665	0.09597
3321.14088	0.09578
3319.85511	0.09573
3318.56934	0.09586
3317.28357	0.09604
3315.99780	0.09604
3314.71204	0.09580
3313.42627	0.09546
3312.14050	0.09523
3310.85473	0.09520
3309.56896	0.09530
3308.28319	0.09545
3306.99742	0.09561
3305.71165	0.09571
3304.42588	0.09570
3303.14012	0.09561
3301.85435	0.09553
3300.56858	0.09560
3299.28281	0.09591
3297.99704	0.09638
3296.71127	0.09674
3295.42550	0.09670
3294.13973	0.09624
3292.85397	0.09565
3291.56820	0.09527
3290.28243	0.09521
3288.99666	0.09533
3287.71089	0.09542
3286.42512	0.09529
3285.13935	0.09498
3283.85358	0.09461
3282.56781	0.09425
3281.28205	0.09389
3279.99628	0.09354
3278.71051	0.09337
3277.42474	0.09356
3276.13897	0.09416
3274.85320	0.09495
3273.56743	0.09552
3272.28166	0.09556
3270.99590	0.09506
3269.71013	0.09438
3268.42436	0.09392
3267.13859	0.09384
3265.85282	0.09404
3264.56705	0.09431
3263.28128	0.09450
3261.99551	0.09453
3260.70974	0.09437
3259.42398	0.09411
3258.13821	0.09387
3256.85244	0.09364
3255.56667	0.09337
3254.28090	0.09310
3252.99513	0.09296
3251.70936	0.09296
3250.42359	0.09288
3249.13783	0.09256
3247.85206	0.09214
3246.56629	0.09197
3245.28052	0.09217
3243.99475	0.09256
3242.70898	0.09284
3241.42321	0.09284
3240.13744	0.09267
3238.85167	0.09254
3237.56591	0.09255
3236.28014	0.09257
3234.99437	0.09232
3233.70860	0.09178
3232.42283	0.09125
3231.13706	0.09108
3229.85129	0.09122
3228.56552	0.09128
3227.27976	0.09105
3225.99399	0.09075
3224.70822	0.09078
3223.42245	0.09114
3222.13668	0.09150
3220.85091	0.09157
3219.56514	0.09142
3218.27937	0.09131
3216.99360	0.09140
3215.70784	0.09164
3214.42207	0.09191
3213.13630	0.09210
3211.85053	0.09219
3210.56476	0.09219
3209.27899	0.09218
3207.99322	0.09218
3206.70745	0.09215
3205.42169	0.09201
3204.13592	0.09175
3202.85015	0.09144
3201.56438	0.09109
3200.27861	0.09069
3198.99284	0.09032
3197.70707	0.09015
3196.42130	0.09022
3195.13553	0.09036
3193.84977	0.09043
3192.56400	0.09037
3191.27823	0.09021
3189.99246	0.08991
3188.70669	0.08948
3187.42092	0.08906
3186.13515	0.08874
3184.84938	0.08855
3183.56362	0.08843
3182.27785	0.08838
3180.99208	0.08842
3179.70631	0.08849
3178.42054	0.08844
3177.13477	0.08813
3175.84900	0.08767
3174.56323	0.08732
3173.27746	0.08729
3171.99170	0.08748
3170.70593	0.08761
3169.42016	0.08758
3168.13439	0.08757
3166.84862	0.08774
3165.56285	0.08795
3164.27708	0.08793
3162.99131	0.08760
3161.70555	0.08722
3160.41978	0.08714
3159.13401	0.08745
3157.84824	0.08794
3156.56247	0.08824
3155.27670	0.08812
3153.99093	0.08757
3152.70516	0.08676
3151.41939	0.08593
3150.13363	0.08525
3148.84786	0.08487
3147.56209	0.08487
3146.27632	0.08515
3144.99055	0.08550
3143.70478	0.08577
3142.41901	0.08598
3141.13324	0.08617
3139.84748	0.08624
3138.56171	0.08607
3137.27594	0.08563
3135.99017	0.08500
3134.70440	0.08435
3133.41863	0.08376
3132.13286	0.08334
3130.84709	0.08316
3129.56132	0.08320
3128.27556	0.08327
3126.98979	0.08321
3125.70402	0.08298
3124.41825	0.08274
3123.13248	0.08259
3121.84671	0.08255
3120.56094	0.08261
3119.27517	0.08276
3117.98940	0.08292
3116.70364	0.08296
3115.41787	0.08281
3114.13210	0.08255
3112.84633	0.08234
3111.56056	0.08227
3110.27479	0.08234
3108.98902	0.08249
3107.70325	0.08258
3106.41749	0.08250
3105.13172	0.08230
3103.84595	0.08209
3102.56018	0.08191
3101.27441	0.08169
3099.98864	0.08140
3098.70287	0.08107
3097.41710	0.08072
3096.13133	0.08036
3094.84557	0.08010
3093.55980	0.08009
3092.27403	0.08029
3090.98826	0.08048
3089.70249	0.08050
3088.41672	0.08033
3087.13095	0.08007
3085.84518	0.07975
3084.55942	0.07935
3083.27365	0.07893
3081.98788	0.07865
3080.70211	0.07866
3079.41634	0.07897
3078.13057	0.07939
3076.84480	0.07962
3075.55903	0.07957
3074.27326	0.07937
3072.98750	0.07918
3071.70173	0.07903
3070.41596	0.07888
3069.13019	0.07877
3067.84442	0.07876
3066.55865	0.07887
3065.27288	0.07905
3063.98711	0.07919
3062.70135	0.07924
3061.41558	0.07920
3060.12981	0.07908
3058.84404	0.07882
3057.55827	0.07838
3056.27250	0.07790
3054.98673	0.07763
3053.70096	0.07773
3052.41519	0.07803
3051.12943	0.07823
3049.84366	0.07817
3048.55789	0.07792
3047.27212	0.07764
3045.98635	0.07738
3044.70058	0.07712
3043.41481	0.07681
3042.12904	0.07645
3040.84328	0.07609
3039.55751	0.07581
3038.27174	0.07566
3036.98597	0.07563
3035.70020	0.07562
3034.41443	0.07554
3033.12866	0.07537
3031.84289	0.07517
3030.55712	0.07506
3029.27136	0.07515
3027.98559	0.07542
3026.69982	0.07564
3025.41405	0.07548
3024.12828	0.07482
3022.84251	0.07388
3021.55674	0.07314
3020.27097	0.07298
3018.98521	0.07332
3017.69944	0.07376
3016.41367	0.07390
3015.12790	0.07371
3013.84213	0.07343
3012.55636	0.07324
3011.27059	0.07316
3009.98482	0.07313
3008.69905	0.07312
3007.41329	0.07309
3006.12752	0.07299
3004.84175	0.07280
3003.55598	0.07264
3002.27021	0.07260
3000.98444	0.07266
2999.69867	0.07270
2998.41290	0.07262
2997.12714	0.07256
2995.84137	0.07268
2994.55560	0.07293
2993.26983	0.07308
2991.98406	0.07301
2990.69829	0.07284
2989.41252	0.07278
2988.12675	0.07288
2986.84098	0.07303
2985.55522	0.07317
2984.26945	0.07336
2982.98368	0.07379
2981.69791	0.07455
2980.41214	0.07553
2979.12637	0.07646
2977.84060	0.07721
2976.55483	0.07794
2975.26907	0.07895
2973.98330	0.08031
2972.69753	0.08176
2971.41176	0.08303
2970.12599	0.08417
2968.84022	0.08545
2967.55445	0.08704
2966.26868	0.08887
2964.98291	0.09070
2963.69715	0.09238
2962.41138	0.09392
2961.12561	0.09544
2959.83984	0.09698
2958.55407	0.09841
2957.26830	0.09961
2955.98253	0.10049
2954.69676	0.10108
2953.41100	0.10147
2952.12523	0.10174
2950.83946	0.10197
2949.55369	0.10218
2948.26792	0.10235
2946.98215	0.10244
2945.69638	0.10246
2944.41061	0.10251
2943.12484	0.10270
2941.83908	0.10309
2940.55331	0.10369
2939.26754	0.10449
2937.98177	0.10549
2936.69600	0.10660
2935.41023	0.10780
2934.12446	0.10910
2932.83869	0.11059
2931.55293	0.11220
2930.26716	0.11372
2928.98139	0.11500
2927.69562	0.11603
2926.40985	0.11690
2925.12408	0.11756
2923.83831	0.11790
2922.55254	0.11784
2921.26677	0.11745
2919.98101	0.11681
2918.69524	0.11596
2917.40947	0.11491
2916.12370	0.11369
2914.83793	0.11230
2913.55216	0.11076
2912.26639	0.10916
2910.98062	0.10763
2909.69486	0.10628
2908.40909	0.10511
2907.12332	0.10407
2905.83755	0.10311
2904.55178	0.10219
2903.26601	0.10132
2901.98024	0.10054
2900.69447	0.09983
2899.40870	0.09909
2898.12294	0.09817
2896.83717	0.09704
2895.55140	0.09579
2894.26563	0.09463
2892.97986	0.09370
2891.69409	0.09301
2890.40832	0.09241
2889.12255	0.09170
2887.83678	0.09083
2886.55102	0.08996
2885.26525	0.08923
2883.97948	0.08870
2882.69371	0.08838
2881.40794	0.08830
2880.12217	0.08850
2878.83640	0.08890
2877.55063	0.08934
2876.26487	0.08972
2874.97910	0.09004
2873.69333	0.09034
2872.40756	0.09068
2871.12179	0.09114
2869.83602	0.09174
2868.55025	0.09238
2867.26448	0.09286
2865.97871	0.09302
2864.69295	0.09289
2863.40718	0.09267
2862.12141	0.09262
2860.83564	0.09279
2859.54987	0.09302
2858.26410	0.09323
2856.97833	0.09340
2855.69256	0.09351
2854.40680	0.09337
2853.12103	0.09281
2851.83526	0.09183
2850.54949	0.09067
2849.26372	0.08957
2847.97795	0.08859
2846.69218	0.08756
2845.40641	0.08637
2844.12064	0.08506
2842.83488	0.08381
2841.54911	0.08266
2840.26334	0.08147
2838.97757	0.08011
2837.69180	0.07858
2836.40603	0.07705
2835.12026	0.07570
2833.83449	0.07458
2832.54873	0.07357
2831.26296	0.07253
2829.97719	0.07146
2828.69142	0.07049
2827.40565	0.06974
2826.11988	0.06917
2824.83411	0.06867
2823.54834	0.06817
2822.26257	0.06771
2820.97681	0.06733
2819.69104	0.06704
2818.40527	0.06676
2817.11950	0.06639
2815.83373	0.06589
2814.54796	0.06534
2813.26219	0.06488
2811.97642	0.06467
2810.69066	0.06469
2809.40489	0.06481
2808.11912	0.06483
2806.83335	0.06464
2805.54758	0.06433
2804.26181	0.06406
2802.97604	0.06390
2801.69027	0.06375
2800.40450	0.06345
2799.11874	0.06297
2797.83297	0.06240
2796.54720	0.06188
2795.26143	0.06145
2793.97566	0.06116
2792.68989	0.06107
2791.40412	0.06119
2790.11835	0.06143
2788.83259	0.06159
2787.54682	0.06157
2786.26105	0.06142
2784.97528	0.06129
2783.68951	0.06126
2782.40374	0.06122
2781.11797	0.06106
2779.83220	0.06076
2778.54643	0.06040
2777.26067	0.06002
2775.97490	0.05963
2774.68913	0.05927
2773.40336	0.05903
2772.11759	0.05897
2770.83182	0.05898
2769.54605	0.05889
2768.26028	0.05863
2766.97452	0.05833
2765.68875	0.05814
2764.40298	0.05811
2763.11721	0.05816
2761.83144	0.05821
2760.54567	0.05820
2759.25990	0.05809
2757.97413	0.05787
2756.68836	0.05758
2755.40260	0.05736
2754.11683	0.05732
2752.83106	0.05745
2751.54529	0.05764
2750.25952	0.05775
2748.97375	0.05775
2747.68798	0.05767
2746.40221	0.05754
2745.11645	0.05737
2743.83068	0.05718
2742.54491	0.05697
2741.25914	0.05677
2739.97337	0.05664
2738.68760	0.05665
2737.40183	0.05685
2736.11606	0.05715
2734.83029	0.05734
2733.54453	0.05723
2732.25876	0.05685
2730.97299	0.05637
2729.68722	0.05603
2728.40145	0.05595
2727.11568	0.05604
2725.82991	0.05609
2724.54414	0.05589
2723.25838	0.05544
2721.97261	0.05496
2720.68684	0.05468
2719.40107	0.05466
2718.11530	0.05477
2716.82953	0.05487
2715.54376	0.05487
2714.25799	0.05481
2712.97222	0.05475
2711.68646	0.05478
2710.40069	0.05488
2709.11492	0.05498
2707.82915	0.05496
2706.54338	0.05481
2705.25761	0.05459
2703.97184	0.05434
2702.68607	0.05410
2701.40031	0.05389
2700.11454	0.05376
2698.82877	0.05372
2697.54300	0.05368
2696.25723	0.05355
2694.97146	0.05334
2693.68569	0.05314
2692.39992	0.05299
2691.11415	0.05288
2689.82839	0.05275
2688.54262	0.05262
2687.25685	0.05254
2685.97108	0.05257
2684.68531	0.05268
2683.39954	0.05279
2682.11377	0.05285
2680.82800	0.05284
2679.54224	0.05279
2678.25647	0.05269
2676.97070	0.05255
2675.68493	0.05244
2674.39916	0.05240
2673.11339	0.05235
2671.82762	0.05219
2670.54185	0.05195
2669.25608	0.05180
2667.97032	0.05182
2666.68455	0.05196
2665.39878	0.05207
2664.11301	0.05206
2662.82724	0.05189
2661.54147	0.05162
2660.25570	0.05134
2658.96993	0.05111
2657.68417	0.05099
2656.39840	0.05100
2655.11263	0.05112
2653.82686	0.05122
2652.54109	0.05109
2651.25532	0.05064
2649.96955	0.05005
2648.68378	0.04957
2647.39801	0.04934
2646.11225	0.04929
2644.82648	0.04931
2643.54071	0.04932
2642.25494	0.04925
2640.96917	0.04906
2639.68340	0.04873
2638.39763	0.04833
2637.11186	0.04797
2635.82609	0.04775
2634.54033	0.04771
2633.25456	0.04782
2631.96879	0.04788
2630.68302	0.04771
2629.39725	0.04730
2628.11148	0.04689
2626.82571	0.04668
2625.53994	0.04666
2624.25418	0.04666
2622.96841	0.04655
2621.68264	0.04636
2620.39687	0.04616
2619.11110	0.04588
2617.82533	0.04550
2616.53956	0.04520
2615.25379	0.04523
2613.96802	0.04557
2612.68226	0.04595
2611.39649	0.04606
2610.11072	0.04591
2608.82495	0.04570
2607.53918	0.04552
2606.25341	0.04525
2604.96764	0.04478
2603.68187	0.04425
2602.39611	0.04393
2601.11034	0.04391
2599.82457	0.04399
2598.53880	0.04390
2597.25303	0.04361
2595.96726	0.04330
2594.68149	0.04320
2593.39572	0.04334
2592.10995	0.04353
2590.82419	0.04349
2589.53842	0.04317
2588.25265	0.04274
2586.96688	0.04245
2585.68111	0.04236
2584.39534	0.04236
2583.10957	0.04237
2581.82380	0.04242
2580.53804	0.04250
2579.25227	0.04252
2577.96650	0.04242
2576.68073	0.04227
2575.39496	0.04215
2574.10919	0.04207
2572.82342	0.04201
2571.53765	0.04198
2570.25188	0.04202
2568.96612	0.04207
2567.68035	0.04200
2566.39458	0.04172
2565.10881	0.04136
2563.82304	0.04118
2562.53727	0.04131
2561.25150	0.04157
2559.96573	0.04170
2558.67997	0.04153
2557.39420	0.04120
2556.10843	0.04094
2554.82266	0.04081
2553.53689	0.04075
2552.25112	0.04066
2550.96535	0.04056
2549.67958	0.04044
2548.39381	0.04030
2547.10805	0.04015
2545.82228	0.04000
2544.53651	0.03986
2543.25074	0.03975
2541.96497	0.03974
2540.67920	0.03995
2539.39343	0.04036
2538.10766	0.04078
2536.82190	0.04098
2535.53613	0.04084
2534.25036	0.04051
2532.96459	0.04026
2531.67882	0.04024
2530.39305	0.04033
2529.10728	0.04039
2527.82151	0.04036
2526.53574	0.04025
2525.24998	0.03998
2523.96421	0.03949
2522.67844	0.03896
2521.39267	0.03869
2520.10690	0.03884
2518.82113	0.03926
2517.53536	0.03961
2516.24959	0.03967
2514.96383	0.03940
2513.67806	0.03900
2512.39229	0.03867
2511.10652	0.03854
2509.82075	0.03854
2508.53498	0.03846
2507.24921	0.03814
2505.96344	0.03764
2504.67767	0.03727
2503.39191	0.03730
2502.10614	0.03772
2500.82037	0.03817
2499.53460	0.03827
2498.24883	0.03792
2496.96306	0.03744
2495.67729	0.03722
2494.39152	0.03735
2493.10576	0.03765
2491.81999	0.03792
2490.53422	0.03808
2489.24845	0.03812
2487.96268	0.03810
2486.67691	0.03816
2485.39114	0.03834
2484.10537	0.03847
2482.81960	0.03831
2481.53384	0.03782
2480.24807	0.03729
2478.96230	0.03704
2477.67653	0.03711
2476.39076	0.03734
2475.10499	0.03761
2473.81922	0.03792
2472.53345	0.03825
2471.24769	0.03835
2469.96192	0.03805
2468.67615	0.03746
2467.39038	0.03689
2466.10461	0.03654
2464.81884	0.03647
2463.53307	0.03659
2462.24730	0.03677
2460.96153	0.03691
2459.67577	0.03702
2458.39000	0.03721
2457.10423	0.03751
2455.81846	0.03770
2454.53269	0.03753
2453.24692	0.03704
2451.96115	0.03650
2450.67538	0.03619
2449.38962	0.03616
2448.10385	0.03629
2446.81808	0.03643
2445.53231	0.03653
2444.24654	0.03658
2442.96077	0.03657
2441.67500	0.03642
2440.38923	0.03611
2439.10346	0.03576
2437.81770	0.03553
2436.53193	0.03542
2435.24616	0.03526
2433.96039	0.03497
2432.67462	0.03467
2431.38885	0.03451
2430.10308	0.03452
2428.81731	0.03462
2427.53155	0.03471
2426.24578	0.03469
2424.96001	0.03454
2423.67424	0.03445
2422.38847	0.03466
2421.10270	0.03517
2419.81693	0.03570
2418.53116	0.03592
2417.24539	0.03569
2415.95963	0.03519
2414.67386	0.03471
2413.38809	0.03447
2412.10232	0.03453
2410.81655	0.03480
2409.53078	0.03510
2408.24501	0.03526
2406.95924	0.03525
2405.67347	0.03516
2404.38771	0.03513
2403.10194	0.03517
2401.81617	0.03519
2400.53040	0.03516
2399.24463	0.03512
2397.95886	0.03512
2396.67309	0.03516
2395.38732	0.03520
2394.10156	0.03524
2392.81579	0.03526
2391.53002	0.03519
2390.24425	0.03502
2388.95848	0.03479
2387.67271	0.03462
2386.38694	0.03460
2385.10117	0.03469
2383.81540	0.03483
2382.52964	0.03497
2381.24387	0.03517
2379.95810	0.03551
2378.67233	0.03599
2377.38656	0.03656
2376.10079	0.03717
2374.81502	0.03774
2373.52925	0.03826
2372.24349	0.03873
2370.95772	0.03910
2369.67195	0.03934
2368.38618	0.03948
2367.10041	0.03964
2365.81464	0.03992
2364.52887	0.04029
2363.24310	0.04060
2361.95733	0.04079
2360.67157	0.04091
2359.38580	0.04101
2358.10003	0.04107
2356.81426	0.04099
2355.52849	0.04069
2354.24272	0.04017
2352.95695	0.03957
2351.67118	0.03905
2350.38542	0.03873
2349.09965	0.03863
2347.81388	0.03872
2346.52811	0.03892
2345.24234	0.03912
2343.95657	0.03924
2342.67080	0.03927
2341.38503	0.03922
2340.09926	0.03913
2338.81350	0.03906
2337.52773	0.03906
2336.24196	0.03915
2334.95619	0.03929
2333.67042	0.03946
2332.38465	0.03961
2331.09888	0.03973
2329.81311	0.03984
2328.52735	0.03998
2327.24158	0.04013
2325.95581	0.04014
2324.67004	0.03987
2323.38427	0.03930
2322.09850	0.03857
2320.81273	0.03790
2319.52696	0.03739
2318.24119	0.03699
2316.95543	0.03661
2315.66966	0.03623
2314.38389	0.03587
2313.09812	0.03560
2311.81235	0.03545
2310.52658	0.03541
2309.24081	0.03536
2307.95504	0.03525
2306.66928	0.03513
2305.38351	0.03502
2304.09774	0.03481
2302.81197	0.03447
2301.52620	0.03411
2300.24043	0.03392
2298.95466	0.03394
2297.66889	0.03402
2296.38312	0.03403
2295.09736	0.03392
2293.81159	0.03371
2292.52582	0.03337
2291.24005	0.03293
2289.95428	0.03247
2288.66851	0.03203
2287.38274	0.03156
2286.09697	0.03099
2284.81121	0.03050
2283.52544	0.03035
2282.23967	0.03051
2280.95390	0.03054
2279.66813	0.03011
2278.38236	0.02933
2277.09659	0.02871
2275.81082	0.02860
2274.52505	0.02897
2273.23929	0.02944
2271.95352	0.02965
2270.66775	0.02945
2269.38198	0.02906
2268.09621	0.02875
2266.81044	0.02853
2265.52467	0.02811
2264.23890	0.02730
2262.95314	0.02633
2261.66737	0.02571
2260.38160	0.02579
2259.09583	0.02642
2257.81006	0.02712
2256.52429	0.02745
2255.23852	0.02735
2253.95275	0.02711
2252.66698	0.02698
2251.38122	0.02694
2250.09545	0.02682
2248.80968	0.02656
2247.52391	0.02641
2246.23814	0.02633
2244.95237	0.02612
2243.66660	0.02565
2242.38083	0.02519
2241.09507	0.02505
2239.80930	0.02517
2238.52353	0.02509
2237.23776	0.02446
2235.95199	0.02348
2234.66622	0.02270
2233.38045	0.02260
2232.09468	0.02322
2230.80891	0.02416
2229.52315	0.02482
2228.23738	0.02484
2226.95161	0.02435
2225.66584	0.02376
2224.38007	0.02346
2223.09430	0.02344
2221.80853	0.02342
2220.52276	0.02317
2219.23700	0.02282
2217.95123	0.02261
2216.66546	0.02258
2215.37969	0.02263
2214.09392	0.02275
2212.80815	0.02307
2211.52238	0.02342
2210.23661	0.02330
2208.95084	0.02234
2207.66508	0.02077
2206.37931	0.01934
2205.09354	0.01876
2203.80777	0.01917
2202.52200	0.02015
2201.23623	0.02103
2199.95046	0.02147
2198.66469	0.02152
2197.37893	0.02129
2196.09316	0.02075
2194.80739	0.01995
2193.52162	0.01922
2192.23585	0.01896
2190.95008	0.01915
2189.66431	0.01935
2188.37854	0.01922
2187.09277	0.01897
2185.80701	0.01893
2184.52124	0.01904
2183.23547	0.01885
2181.94970	0.01813
2180.66393	0.01711
2179.37816	0.01625
2178.09239	0.01584
2176.80662	0.01592
2175.52085	0.01619
2174.23509	0.01618
2172.94932	0.01567
2171.66355	0.01500
2170.37778	0.01485
2169.09201	0.01559
2167.80624	0.01690
2166.52047	0.01807
2165.23470	0.01849
2163.94894	0.01795
2162.66317	0.01653
2161.37740	0.01457
2160.09163	0.01262
2158.80586	0.01139
2157.52009	0.01111
2156.23432	0.01136
2154.94855	0.01170
2153.66278	0.01215
2152.37702	0.01287
2151.09125	0.01363
2149.80548	0.01398
2148.51971	0.01372
2147.23394	0.01320
2145.94817	0.01294
2144.66240	0.01320
2143.37663	0.01387
2142.09087	0.01483
2140.80510	0.01607
2139.51933	0.01748
2138.23356	0.01857
2136.94779	0.01884
2135.66202	0.01819
2134.37625	0.01707
2133.09048	0.01616
2131.80471	0.01599
2130.51895	0.01660
2129.23318	0.01756
2127.94741	0.01839
2126.66164	0.01889
2125.37587	0.01914
2124.09010	0.01917
2122.80433	0.01909
2121.51856	0.01919
2120.23280	0.01971
2118.94703	0.02051
2117.66126	0.02116
2116.37549	0.02140
2115.08972	0.02131
2113.80395	0.02114
2112.51818	0.02109
2111.23241	0.02110
2109.94664	0.02094
2108.66088	0.02042
2107.37511	0.01966
2106.08934	0.01905
2104.80357	0.01876
2103.51780	0.01863
2102.23203	0.01842
2100.94626	0.01813
2099.66049	0.01752
2098.37473	0.01708
2097.08896	0.01689
2095.80319	0.01703
2094.51742	0.01761
2093.23165	0.01856
2091.94588	0.01955
2090.66011	0.02028
2089.37434	0.02061
2088.08857	0.02051
2086.80281	0.02001
2085.51704	0.01917
2084.23127	0.01820
2082.94550	0.01740
2081.65973	0.01708
2080.37396	0.01730
2079.08819	0.01783
2077.80242	0.01831
2076.51666	0.01854
2075.23089	0.01860
2073.94512	0.01857
2072.65935	0.01847
2071.37358	0.01830
2070.08781	0.01809
2068.80204	0.01786
2067.51627	0.01758
2066.23050	0.01728
2064.94474	0.01703
2063.65897	0.01684
2062.37320	0.01659
2061.08743	0.01634
2059.80166	0.01630
2058.51589	0.01655
2057.23012	0.01676
2055.94435	0.01646
2054.65859	0.01560
2053.37282	0.01460
2052.08705	0.01393
2050.80128	0.01359
2049.51551	0.01329
2048.22974	0.01275
2046.94397	0.01184
2045.65820	0.01060
2044.37243	0.00913
2043.08667	0.00767
2041.80090	0.00663
2040.51513	0.00646
2039.22936	0.00722
2037.94359	0.00846
2036.65782	0.00936
2035.37205	0.00941
2034.08628	0.00870
2032.80052	0.00773
2031.51475	0.00701
2030.22898	0.00678
2028.94321	0.00714
2027.65744	0.00803
2026.37167	0.00925
2025.08590	0.01042
2023.80013	0.01116
2022.51436	0.01131
2021.22860	0.01100
2019.94283	0.01055
2018.65706	0.01034
2017.37129	0.01059
2016.08552	0.01113
2014.79975	0.01139
2013.51398	0.01086
2012.22821	0.00962
2010.94245	0.00828
2009.65668	0.00749
2008.37091	0.00771
2007.08514	0.00894
2005.79937	0.01068
2004.51360	0.01209
2003.22783	0.01250
2001.94206	0.01197
2000.65629	0.01116
1999.37053	0.01079
1998.08476	0.01120
1996.79899	0.01230
1995.51322	0.01372
1994.22745	0.01495
1992.94168	0.01568
1991.65591	0.01590
1990.37014	0.01585
1989.08438	0.01569
1987.79861	0.01536
1986.51284	0.01477
1985.22707	0.01405
1983.94130	0.01343
1982.65553	0.01306
1981.36976	0.01289
1980.08399	0.01277
1978.79822	0.01258
1977.51246	0.01219
1976.22669	0.01157
1974.94092	0.01104
1973.65515	0.01103
1972.36938	0.01167
1971.08361	0.01247
1969.79784	0.01274
1968.51207	0.01231
1967.22631	0.01170
1965.94054	0.01158
1964.65477	0.01213
1963.36900	0.01291
1962.08323	0.01339
1960.79746	0.01346
1959.51169	0.01346
1958.22592	0.01386
1956.94015	0.01473
1955.65439	0.01567
1954.36862	0.01623
1953.08285	0.01634
1951.79708	0.01621
1950.51131	0.01596
1949.22554	0.01569
1947.93977	0.01565
1946.65400	0.01612
1945.36823	0.01697
1944.08247	0.01768
1942.79670	0.01785
1941.51093	0.01752
1940.22516	0.01695
1938.93939	0.01632
1937.65362	0.01574
1936.36785	0.01534
1935.08208	0.01533
1933.79632	0.01578
1932.51055	0.01651
1931.22478	0.01712
1929.93901	0.01730
1928.65324	0.01703
1927.36747	0.01658
1926.08170	0.01633
1924.79593	0.01648
1923.51016	0.01697
1922.22440	0.01755
1920.93863	0.01792
1919.65286	0.01799
1918.36709	0.01786
1917.08132	0.01771
1915.79555	0.01761
1914.50978	0.01756
1913.22401	0.01753
1911.93825	0.01753
1910.65248	0.01758
1909.36671	0.01768
1908.08094	0.01785
1906.79517	0.01812
1905.50940	0.01852
1904.22363	0.01899
1902.93786	0.01937
1901.65209	0.01957
1900.36633	0.01963
1899.08056	0.01965
1897.79479	0.01958
1896.50902	0.01929
1895.22325	0.01879
1893.93748	0.01830
1892.65171	0.01807
1891.36594	0.01819
1890.08018	0.01854
1888.79441	0.01897
1887.50864	0.01934
1886.22287	0.01965
1884.93710	0.01991
1883.65133	0.02010
1882.36556	0.02015
1881.07979	0.02006
1879.79402	0.01989
1878.50826	0.01969
1877.22249	0.01950
1875.93672	0.01940
1874.65095	0.01944
1873.36518	0.01960
1872.07941	0.01972
1870.79364	0.01965
1869.50787	0.01951
1868.22211	0.01947
1866.93634	0.01959
1865.65057	0.01981
1864.36480	0.02004
1863.07903	0.02021
1861.79326	0.02028
1860.50749	0.02024
1859.22172	0.02016
1857.93595	0.02013
1856.65019	0.02016
1855.36442	0.02016
1854.07865	0.02010
1852.79288	0.02004
1851.50711	0.02010
1850.22134	0.02029
1848.93557	0.02054
1847.64980	0.02068
1846.36404	0.02063
1845.07827	0.02044
1843.79250	0.02025
1842.50673	0.02010
1841.22096	0.01995
1839.93519	0.01981
1838.64942	0.01980
1837.36365	0.01998
1836.07788	0.02025
1834.79212	0.02045
1833.50635	0.02048
1832.22058	0.02038
1830.93481	0.02026
1829.64904	0.02018
1828.36327	0.02010
1827.07750	0.02000
1825.79173	0.01994
1824.50597	0.02001
1823.22020	0.02015
1821.93443	0.02023
1820.64866	0.02017
1819.36289	0.02004
1818.07712	0.01999
1816.79135	0.02011
1815.50558	0.02037
1814.21981	0.02065
1812.93405	0.02087
1811.64828	0.02101
1810.36251	0.02114
1809.07674	0.02129
1807.79097	0.02142
1806.50520	0.02152
1805.21943	0.02155
1803.93366	0.02149
1802.64790	0.02136
1801.36213	0.02122
1800.07636	0.02117
1798.79059	0.02124
1797.50482	0.02136
1796.21905	0.02140
1794.93328	0.02130
1793.64751	0.02111
1792.36174	0.02100
1791.07598	0.02105
1789.79021	0.02120
1788.50444	0.02128
1787.21867	0.02125
1785.93290	0.02117
1784.64713	0.02113
1783.36136	0.02115
1782.07559	0.02121
1780.78983	0.02127
1779.50406	0.02134
1778.21829	0.02145
1776.93252	0.02160
1775.64675	0.02176
1774.36098	0.02187
1773.07521	0.02196
1771.78944	0.02212
1770.50367	0.02231
1769.21791	0.02242
1767.93214	0.02246
1766.64637	0.02251
1765.36060	0.02252
1764.07483	0.02242
1762.78906	0.02228
1761.50329	0.02226
1760.21752	0.02238
1758.93176	0.02254
1757.64599	0.02263
1756.36022	0.02266
1755.07445	0.02268
1753.78868	0.02269
1752.50291	0.02268
1751.21714	0.02274
1749.93137	0.02287
1748.64560	0.02300
1747.35984	0.02309
1746.07407	0.02314
1744.78830	0.02318
1743.50253	0.02320
1742.21676	0.02320
1740.93099	0.02321
1739.64522	0.02331
1738.35945	0.02353
1737.07369	0.02374
1735.78792	0.02378
1734.50215	0.02379
1733.21638	0.02396
1731.93061	0.02425
1730.64484	0.02444
1729.35907	0.02447
1728.07330	0.02448
1726.78753	0.02454
1725.50177	0.02469
1724.21600	0.02491
1722.93023	0.02518
1721.64446	0.02542
1720.35869	0.02554
1719.07292	0.02558
1717.78715	0.02573
1716.50138	0.02612
1715.21561	0.02665
1713.92985	0.02715
1712.64408	0.02753
1711.35831	0.02782
1710.07254	0.02808
1708.78677	0.02838
1707.50100	0.02876
1706.21523	0.02922
1704.92946	0.02974
1703.64370	0.03019
1702.35793	0.03045
1701.07216	0.03066
1699.78639	0.03110
1698.50062	0.03168
1697.21485	0.03209
1695.92908	0.03238
1694.64331	0.03282
1693.35754	0.03336
1692.07178	0.03377
1690.78601	0.03404
1689.50024	0.03433
1688.21447	0.03470
1686.92870	0.03503
1685.64293	0.03531
1684.35716	0.03572
1683.07139	0.03628
1681.78563	0.03678
1680.49986	0.03711
1679.21409	0.03739
1677.92832	0.03772
1676.64255	0.03811
1675.35678	0.03863
1674.07101	0.03925
1672.78524	0.03983
1671.49947	0.04023
1670.21371	0.04055
1668.92794	0.04093
1667.64217	0.04140
1666.35640	0.04184
1665.07063	0.04218
1663.78486	0.04248
1662.49909	0.04283
1661.21332	0.04322
1659.92756	0.04359
1658.64179	0.04393
1657.35602	0.04425
1656.07025	0.04442
1654.78448	0.04434
1653.49871	0.04425
1652.21294	0.04451
1650.92717	0.04504
1649.64140	0.04541
1648.35564	0.04547
1647.06987	0.04540
1645.78410	0.04541
1644.49833	0.04549
1643.21256	0.04555
1641.92679	0.04558
1640.64102	0.04563
1639.35525	0.04572
1638.06949	0.04573
1636.78372	0.04566
1635.49795	0.04559
1634.21218	0.04560
1632.92641	0.04557
1631.64064	0.04544
1630.35487	0.04529
1629.06910	0.04525
1627.78333	0.04532
1626.49757	0.04539
1625.21180	0.04535
1623.92603	0.04522
1622.64026	0.04512
1621.35449	0.04513
1620.06872	0.04518
1618.78295	0.04516
1617.49718	0.04513
1616.21142	0.04523
1614.92565	0.04546
1613.63988	0.04567
1612.35411	0.04578
1611.06834	0.04586
1609.78257	0.04598
1608.49680	0.04612
1607.21103	0.04627
1605.92526	0.04642
1604.63950	0.04660
1603.35373	0.04685
1602.06796	0.04716
1600.78219	0.04748
1599.49642	0.04776
1598.21065	0.04798
1596.92488	0.04817
1595.63911	0.04835
1594.35335	0.04853
1593.06758	0.04875
1591.78181	0.04902
1590.49604	0.04935
1589.21027	0.04974
1587.92450	0.05017
1586.63873	0.05061
1585.35296	0.05103
1584.06719	0.05141
1582.78143	0.05179
1581.49566	0.05223
1580.20989	0.05275
1578.92412	0.05325
1577.63835	0.05367
1576.35258	0.05413
1575.06681	0.05474
1573.78104	0.05541
1572.49528	0.05596
1571.20951	0.05638
1569.92374	0.05683
1568.63797	0.05739
1567.35220	0.05799
1566.06643	0.05855
1564.78066	0.05909
1563.49489	0.05964
1562.20912	0.06010
1560.92336	0.06039
1559.63759	0.06069
1558.35182	0.06119
1557.06605	0.06184
1555.78028	0.06239
1554.49451	0.06279
1553.20874	0.06314
1551.92297	0.06347
1550.63721	0.06372
1549.35144	0.06389
1548.06567	0.06397
1546.77990	0.06394
1545.49413	0.06380
1544.20836	0.06358
1542.92259	0.06329
1541.63682	0.06290
1540.35105	0.06249
1539.06529	0.06222
1537.77952	0.06212
1536.49375	0.06199
1535.20798	0.06173
1533.92221	0.06146
1532.63644	0.06134
1531.35067	0.06141
1530.06490	0.06159
1528.77914	0.06184
1527.49337	0.06216
1526.20760	0.06258
1524.92183	0.06310
1523.63606	0.06368
1522.35029	0.06430
1521.06452	0.06509
1519.77875	0.06605
1518.49298	0.06707
1517.20722	0.06811
1515.92145	0.06926
1514.63568	0.07056
1513.34991	0.07197
1512.06414	0.07346
1510.77837	0.07504
1509.49260	0.07659
1508.20683	0.07804
1506.92107	0.07947
1505.63530	0.08103
1504.34953	0.08266
1503.06376	0.08415
1501.77799	0.08544
1500.49222	0.08660
1499.20645	0.08766
1497.92068	0.08859
1496.63491	0.08944
1495.34915	0.09030
1494.06338	0.09121
1492.77761	0.09212
1491.49184	0.09303
1490.20607	0.09399
1488.92030	0.09501
1487.63453	0.09609
1486.34876	0.09730
1485.06299	0.09867
1483.77723	0.10020
1482.49146	0.10183
1481.20569	0.10352
1479.91992	0.10522
1478.63415	0.10686
1477.34838	0.10842
1476.06261	0.10988
1474.77684	0.11123
1473.49108	0.11249
1472.20531	0.11376
1470.91954	0.11503
1469.63377	0.11624
1468.34800	0.11728
1467.06223	0.11815
1465.77646	0.11893
1464.49069	0.11974
1463.20492	0.12061
1461.91916	0.12150
1460.63339	0.12235
1459.34762	0.12312
1458.06185	0.12386
1456.77608	0.12467
1455.49031	0.12553
1454.20454	0.12627
1452.91877	0.12681
1451.63301	0.12725
1450.34724	0.12763
1449.06147	0.12792
1447.77570	0.12809
1446.48993	0.12812
1445.20416	0.12797
1443.91839	0.12756
1442.63262	0.12694
1441.34685	0.12622
1440.06109	0.12550
1438.77532	0.12486
1437.48955	0.12442
1436.20378	0.12430
1434.91801	0.12453
1433.63224	0.12502
1432.34647	0.12571
1431.06070	0.12664
1429.77494	0.12788
1428.48917	0.12942
1427.20340	0.13122
1425.91763	0.13321
1424.63186	0.13531
1423.34609	0.13745
1422.06032	0.13950
1420.77455	0.14137
1419.48878	0.14307
1418.20302	0.14466
1416.91725	0.14606
1415.63148	0.14716
1414.34571	0.14795
1413.05994	0.14846
1411.77417	0.14871
1410.48840	0.14869
1409.20263	0.14835
1407.91687	0.14767
1406.63110	0.14664
1405.34533	0.14532
1404.05956	0.14378
1402.77379	0.14202
1401.48802	0.14002
1400.20225	0.13775
1398.91648	0.13523
1397.63071	0.13249
1396.34495	0.12958
1395.05918	0.12656
1393.77341	0.12352
1392.48764	0.12054
1391.20187	0.11765
1389.91610	0.11486
1388.63033	0.11219
1387.34456	0.10962
1386.05880	0.10708
1384.77303	0.10455
1383.48726	0.10203
1382.20149	0.09955
1380.91572	0.09714
1379.62995	0.09474
1378.34418	0.09231
1377.05841	0.08980
1375.77264	0.08715
1374.48688	0.08436
1373.20111	0.08145
1371.91534	0.07850
1370.62957	0.07561
1369.34380	0.07289
1368.05803	0.07040
1366.77226	0.06810
1365.48649	0.06590
1364.20073	0.06376
1362.91496	0.06168
1361.62919	0.05973
1360.34342	0.05796
1359.05765	0.05638
1357.77188	0.05494
1356.48611	0.05360
1355.20034	0.05234
1353.91457	0.05114
1352.62881	0.05000
1351.34304	0.04892
1350.05727	0.04791
1348.77150	0.04700
1347.48573	0.04616
1346.19996	0.04535
1344.91419	0.04453
1343.62842	0.04372
1342.34266	0.04298
1341.05689	0.04233
1339.77112	0.04179
1338.48535	0.04130
1337.19958	0.04081
1335.91381	0.04029
1334.62804	0.03977
1333.34227	0.03926
1332.05650	0.03877
1330.77074	0.03831
1329.48497	0.03788
1328.19920	0.03749
1326.91343	0.03711
1325.62766	0.03676
1324.34189	0.03642
1323.05612	0.03612
1321.77035	0.03583
1320.48459	0.03558
1319.19882	0.03534
1317.91305	0.03509
1316.62728	0.03481
1315.34151	0.03450
1314.05574	0.03417
1312.76997	0.03387
1311.48420	0.03361
1310.19843	0.03338
1308.91267	0.03314
1307.62690	0.03288
1306.34113	0.03261
1305.05536	0.03236
1303.76959	0.03215
1302.48382	0.03197
1301.19805	0.03179
1299.91228	0.03157
1298.62652	0.03129
1297.34075	0.03096
1296.05498	0.03063
1294.76921	0.03034
1293.48344	0.03017
1292.19767	0.03007
1290.91190	0.02997
1289.62613	0.02980
1288.34036	0.02956
1287.05460	0.02929
1285.76883	0.02906
1284.48306	0.02890
1283.19729	0.02879
1281.91152	0.02872
1280.62575	0.02862
1279.33998	0.02848
1278.05421	0.02828
1276.76845	0.02806
1275.48268	0.02785
1274.19691	0.02768
1272.91114	0.02755
1271.62537	0.02742
1270.33960	0.02728
1269.05383	0.02714
1267.76806	0.02701
1266.48229	0.02686
1265.19653	0.02665
1263.91076	0.02638
1262.62499	0.02611
1261.33922	0.02589
1260.05345	0.02574
1258.76768	0.02561
1257.48191	0.02551
1256.19614	0.02542
1254.91037	0.02537
1253.62461	0.02533
1252.33884	0.02524
1251.05307	0.02511
1249.76730	0.02497
1248.48153	0.02485
1247.19576	0.02475
1245.90999	0.02467
1244.62422	0.02457
1243.33846	0.02446
1242.05269	0.02434
1240.76692	0.02419
1239.48115	0.02401
1238.19538	0.02385
1236.90961	0.02373
1235.62384	0.02368
1234.33807	0.02366
1233.05230	0.02366
1231.76654	0.02363
1230.48077	0.02355
1229.19500	0.02342
1227.90923	0.02325
1226.62346	0.02307
1225.33769	0.02290
1224.05192	0.02275
1222.76615	0.02263
1221.48039	0.02254
1220.19462	0.02248
1218.90885	0.02242
1217.62308	0.02236
1216.33731	0.02229
1215.05154	0.02221
1213.76577	0.02210
1212.48000	0.02196
1211.19423	0.02182
1209.90847	0.02171
1208.62270	0.02164
1207.33693	0.02161
1206.05116	0.02156
1204.76539	0.02149
1203.47962	0.02140
1202.19385	0.02128
1200.90808	0.02119
1199.62232	0.02117
1198.33655	0.02117
1197.05078	0.02118
1195.76501	0.02116
1194.47924	0.02110
1193.19347	0.02106
1191.90770	0.02106
1190.62193	0.02106
1189.33616	0.02099
1188.05040	0.02084
1186.76463	0.02070
1185.47886	0.02061
1184.19309	0.02058
1182.90732	0.02060
1181.62155	0.02065
1180.33578	0.02069
1179.05001	0.02071
1177.76425	0.02071
1176.47848	0.02074
1175.19271	0.02081
1173.90694	0.02094
1172.62117	0.02112
1171.33540	0.02133
1170.04963	0.02153
1168.76386	0.02168
1167.47809	0.02180
1166.19233	0.02193
1164.90656	0.02210
1163.62079	0.02230
1162.33502	0.02250
1161.04925	0.02267
1159.76348	0.02282
1158.47771	0.02298
1157.19194	0.02319
1155.90618	0.02348
1154.62041	0.02384
1153.33464	0.02424
1152.04887	0.02462
1150.76310	0.02495
1149.47733	0.02528
1148.19156	0.02570
1146.90579	0.02627
1145.62002	0.02701
1144.33426	0.02789
1143.04849	0.02884
1141.76272	0.02982
1140.47695	0.03083
1139.19118	0.03190
1137.90541	0.03310
1136.61964	0.03449
1135.33387	0.03612
1134.04811	0.03803
1132.76234	0.04021
1131.47657	0.04257
1130.19080	0.04509
1128.90503	0.04784
1127.61926	0.05087
1126.33349	0.05416
1125.04772	0.05760
1123.76195	0.06116
1122.47619	0.06483
1121.19042	0.06865
1119.90465	0.07263
1118.61888	0.07671
1117.33311	0.08083
1116.04734	0.08498
1114.76157	0.08915
1113.47580	0.09334
1112.19004	0.09750
1110.90427	0.10157
1109.61850	0.10550
1108.33273	0.10929
1107.04696	0.11294
1105.76119	0.11649
1104.47542	0.11995
1103.18965	0.12333
1101.90388	0.12663
1100.61812	0.12982
1099.33235	0.13295
1098.04658	0.13599
1096.76081	0.13892
1095.47504	0.14174
1094.18927	0.14445
1092.90350	0.14704
1091.61773	0.14946
1090.33197	0.15166
1089.04620	0.15371
1087.76043	0.15570
1086.47466	0.15768
1085.18889	0.15965
1083.90312	0.16164
1082.61735	0.16374
1081.33158	0.16601
1080.04581	0.16848
1078.76005	0.17114
1077.47428	0.17396
1076.18851	0.17692
1074.90274	0.18003
1073.61697	0.18325
1072.33120	0.18658
1071.04543	0.19004
1069.75966	0.19368
1068.47390	0.19752
1067.18813	0.20151
1065.90236	0.20555
1064.61659	0.20959
1063.33082	0.21365
1062.04505	0.21780
1060.75928	0.22205
1059.47351	0.22637
1058.18774	0.23066
1056.90198	0.23487
1055.61621	0.23898
1054.33044	0.24302
1053.04467	0.24703
1051.75890	0.25105
1050.47313	0.25512
1049.18736	0.25931
1047.90159	0.26365
1046.61583	0.26814
1045.33006	0.27274
1044.04429	0.27742
1042.75852	0.28217
1041.47275	0.28698
1040.18698	0.29179
1038.90121	0.29656
1037.61544	0.30127
1036.32967	0.30599
1035.04391	0.31074
1033.75814	0.31547
1032.47237	0.32008
1031.18660	0.32450
1029.90083	0.32874
1028.61506	0.33279
1027.32929	0.33656
1026.04352	0.33988
1024.75775	0.34270
1023.47199	0.34515
1022.18622	0.34738
1020.90045	0.34933
1019.61468	0.35079
1018.32891	0.35160
1017.04314	0.35178
1015.75737	0.35141
1014.47160	0.35051
1013.18584	0.34902
1011.90007	0.34693
1010.61430	0.34425
1009.32853	0.34100
1008.04276	0.33716
1006.75699	0.33270
1005.47122	0.32763
1004.18545	0.32199
1002.89968	0.31581
1001.61392	0.30916
1000.32815	0.30209
999.04238	0.29456
997.75661	0.28662
996.47084	0.27842
995.18507	0.27017
993.89930	0.26200
992.61353	0.25392
991.32777	0.24593
990.04200	0.23807
988.75623	0.23037
987.47046	0.22282
986.18469	0.21542
984.89892	0.20820
983.61315	0.20125
982.32738	0.19460
981.04161	0.18827
979.75585	0.18227
978.47008	0.17661
977.18431	0.17130
975.89854	0.16640
974.61277	0.16198
973.32700	0.15816
972.04123	0.15506
970.75546	0.15280
969.46970	0.15148
968.18393	0.15107
966.89816	0.15143
965.61239	0.15232
964.32662	0.15347
963.04085	0.15458
961.75508	0.15530
960.46931	0.15532
959.18354	0.15450
957.89778	0.15281
956.61201	0.15039
955.32624	0.14746
954.04047	0.14424
952.75470	0.14085
951.46893	0.13733
950.18316	0.13376
948.89739	0.13027
947.61163	0.12697
946.32586	0.12382
945.04009	0.12072
943.75432	0.11758
942.46855	0.11445
941.18278	0.11140
939.89701	0.10850
938.61124	0.10578
937.32547	0.10323
936.03971	0.10083
934.75394	0.09859
933.46817	0.09647
932.18240	0.09445
930.89663	0.09257
929.61086	0.09085
928.32509	0.08928
927.03932	0.08781
925.75356	0.08640
924.46779	0.08500
923.18202	0.08364
921.89625	0.08233
920.61048	0.08111
919.32471	0.07994
918.03894	0.07880
916.75317	0.07769
915.46740	0.07662
914.18164	0.07560
912.89587	0.07467
911.61010	0.07385
910.32433	0.07311
909.03856	0.07236
907.75279	0.07155
906.46702	0.07067
905.18125	0.06981
903.89549	0.06901
902.60972	0.06826
901.32395	0.06752
900.03818	0.06677
898.75241	0.06601
897.46664	0.06530
896.18087	0.06468
894.89510	0.06420
893.60933	0.06386
892.32357	0.06362
891.03780	0.06339
889.75203	0.06316
888.46626	0.06305
887.18049	0.06335
885.89472	0.06442
884.60895	0.06655
883.32318	0.06983
882.03742	0.07397
880.75165	0.07832
879.46588	0.08207
878.18011	0.08487
876.89434	0.08704
875.60857	0.08920
874.32280	0.09157
873.03703	0.09378
871.75126	0.09518
870.46550	0.09537
869.17973	0.09432
867.89396	0.09221
866.60819	0.08934
865.32242	0.08607
864.03665	0.08275
862.75088	0.07961
861.46511	0.07668
860.17935	0.07393
858.89358	0.07137
857.60781	0.06907
856.32204	0.06715
855.03627	0.06560
853.75050	0.06433
852.46473	0.06322
851.17896	0.06220
849.89319	0.06128
848.60743	0.06048
847.32166	0.05978
846.03589	0.05914
844.75012	0.05852
843.46435	0.05791
842.17858	0.05732
840.89281	0.05676
839.60704	0.05621
838.32128	0.05569
837.03551	0.05524
835.74974	0.05486
834.46397	0.05449
833.17820	0.05408
831.89243	0.05362
830.60666	0.05317
829.32089	0.05275
828.03512	0.05230
826.74936	0.05187
825.46359	0.05156
824.17782	0.05143
822.89205	0.05139
821.60628	0.05132
820.32051	0.05117
819.03474	0.05097
817.74897	0.05078
816.46321	0.05057
815.17744	0.05034
813.89167	0.05012
812.60590	0.04995
811.32013	0.04987
810.03436	0.04984
808.74859	0.04981
807.46282	0.04969
806.17705	0.04942
804.89129	0.04904
803.60552	0.04865
802.31975	0.04836
801.03398	0.04818
799.74821	0.04807
798.46244	0.04796
797.17667	0.04783
795.89090	0.04767
794.60513	0.04742
793.31937	0.04711
792.03360	0.04685
790.74783	0.04672
789.46206	0.04673
788.17629	0.04675
786.89052	0.04670
785.60475	0.04655
784.31898	0.04637
783.03322	0.04619
781.74745	0.04603
780.46168	0.04587
779.17591	0.04571
777.89014	0.04556
776.60437	0.04540
775.31860	0.04527
774.03283	0.04516
772.74706	0.04511
771.46130	0.04509
770.17553	0.04509
768.88976	0.04511
767.60399	0.04512
766.31822	0.04509
765.03245	0.04501
763.74668	0.04493
762.46091	0.04493
761.17515	0.04503
759.88938	0.04520
758.60361	0.04536
757.31784	0.04549
756.03207	0.04559
754.74630	0.04565
753.46053	0.04564
752.17476	0.04553
750.88899	0.04530
749.60323	0.04502
748.31746	0.04478
747.03169	0.04469
745.74592	0.04477
744.46015	0.04490
743.17438	0.04494
741.88861	0.04482
740.60284	0.04456
739.31708	0.04428
738.03131	0.04406
736.74554	0.04391
735.45977	0.04376
734.17400	0.04355
732.88823	0.04328
731.60246	0.04306
730.31669	0.04295
729.03092	0.04299
727.74516	0.04312
726.45939	0.04326
725.17362	0.04335
723.88785	0.04337
722.60208	0.04325
721.31631	0.04304
720.03054	0.04283
718.74477	0.04266
717.45901	0.04254
716.17324	0.04245
714.88747	0.04237
713.60170	0.04227
712.31593	0.04215
711.03016	0.04202
709.74439	0.04190
708.45862	0.04183
707.17285	0.04179
705.88709	0.04174
704.60132	0.04168
703.31555	0.04157
702.02978	0.04141
700.74401	0.04123
699.45824	0.04106
698.17247	0.04090
696.88670	0.04078
695.60094	0.04074
694.31517	0.04076
693.02940	0.04081
691.74363	0.04081
690.45786	0.04074
689.17209	0.04058
687.88632	0.04037
686.60055	0.04017
685.31478	0.04000
684.02902	0.03984
682.74325	0.03968
681.45748	0.03951
680.17171	0.03937
678.88594	0.03929
677.60017	0.03930
676.31440	0.03936
675.02863	0.03942
673.74287	0.03949
672.45710	0.03958
671.17133	0.03972
669.88556	0.03989
668.59979	0.04000
667.31402	0.03994
666.02825	0.03968
664.74248	0.03931
663.45671	0.03895
662.17095	0.03865
660.88518	0.03843
659.59941	0.03823
658.31364	0.03800
657.02787	0.03777
655.74210	0.03756
654.45633	0.03743
653.17056	0.03737
651.88480	0.03735
650.59903	0.03732
649.31326	0.03725
648.02749	0.03714
646.74172	0.03704
645.45595	0.03699
644.17018	0.03698
642.88441	0.03699
641.59864	0.03703
640.31288	0.03711
639.02711	0.03727
637.74134	0.03750
636.45557	0.03779
635.16980	0.03815
633.88403	0.03859
632.59826	0.03908
631.31249	0.03954
630.02673	0.03974
628.74096	0.03984
627.45519	0.04060
626.16942	0.04110
624.88365	0.04186
623.59788	0.04366
622.31211	0.04670
621.02634	0.05052
619.74057	0.05445
618.45481	0.05836
617.16904	0.06268
615.88327	0.06748
614.59750	0.07216
613.31173	0.07613
612.02596	0.07986
610.74019	0.08497
609.45442	0.09262
608.16866	0.10206
606.88289	0.11138
605.59712	0.11910
604.31135	0.12451
603.02558	0.12733
601.73981	0.12785
600.45404	0.12676
599.16827	0.12469
597.88250	0.12192
596.59674	0.11856
595.31097	0.11493
594.02520	0.11146
592.73943	0.10850
591.45366	0.10618
590.16789	0.10451
588.88212	0.10354
587.59635	0.10336
586.31059	0.10402
585.02482	0.10548
583.73905	0.10766
582.45328	0.11047
581.16751	0.11380
579.88174	0.11749
578.59597	0.12129
577.31020	0.12496
576.02443	0.12834
574.73867	0.13144
573.45290	0.13442
572.16713	0.13754
570.88136	0.14103
569.59559	0.14506
568.30982	0.14969
567.02405	0.15483
565.73828	0.16026
564.45251	0.16551
563.16675	0.16997
561.88098	0.17290
560.59521	0.17368
559.30944	0.17207
558.02367	0.16826
556.73790	0.16270
555.45213	0.15591
554.16636	0.14841
552.88060	0.14067
551.59483	0.13305
550.30906	0.12578
549.02329	0.11898
547.73752	0.11279
546.45175	0.10733
545.16598	0.10259
543.88021	0.09841
542.59444	0.09458
541.30868	0.09090
540.02291	0.08732
538.73714	0.08393
537.45137	0.08078
536.16560	0.07792
534.87983	0.07535
533.59406	0.07306
532.30829	0.07105
531.02253	0.06922
529.73676	0.06742
528.45099	0.06560
527.16522	0.06382
525.87945	0.06215
524.59368	0.06059
523.30791	0.05911
522.02214	0.05768
520.73637	0.05631
519.45061	0.05499
518.16484	0.05375
516.87907	0.05260
515.59330	0.05150
514.30753	0.05040
513.02176	0.04932
511.73599	0.04832
510.45022	0.04743
509.16446	0.04665
507.87869	0.04589
506.59292	0.04507
505.30715	0.04419
504.02138	0.04334
502.73561	0.04264
501.44984	0.04217
500.16407	0.04183
498.87830	0.04150
497.59254	0.04111
496.30677	0.04066
495.02100	0.04016
493.73523	0.03963
492.44946	0.03909
491.16369	0.03860
489.87792	0.03818
488.59215	0.03784
487.30639	0.03757
486.02062	0.03739
484.73485	0.03730
483.44908	0.03728
482.16331	0.03733
480.87754	0.03745
479.59177	0.03762
478.30600	0.03785
477.02023	0.03809
475.73447	0.03832
474.44870	0.03855
473.16293	0.03884
471.87716	0.03916
470.59139	0.03933
469.30562	0.03918
468.01985	0.03872
466.73408	0.03811
465.44832	0.03750
464.16255	0.03695
462.87678	0.03648
461.59101	0.03605
460.30524	0.03568
459.01947	0.03532
457.73370	0.03496
456.44793	0.03454
455.16216	0.03408
453.87640	0.03364
452.59063	0.03326
451.30486	0.03293
450.01909	0.03260
448.73332	0.03228
447.44755	0.03199
446.16178	0.03176
444.87601	0.03155
443.59025	0.03136
442.30448	0.03118
441.01871	0.03099
439.73294	0.03077
438.44717	0.03052
437.16140	0.03029
435.87563	0.03013
434.58986	0.03002
433.30409	0.02993
432.01833	0.02979
430.73256	0.02960
429.44679	0.02938
428.16102	0.02916
426.87525	0.02897
425.58948	0.02882
424.30371	0.02870
423.01794	0.02857
421.73218	0.02842
420.44641	0.02826
419.16064	0.02813
417.87487	0.02808
416.58910	0.02804
415.30333	0.02798
414.01756	0.02786
412.73179	0.02772
411.44602	0.02760
410.16026	0.02753
408.87449	0.02753
407.58872	0.02758
406.30295	0.02762
405.01718	0.02763
403.73141	0.02763
402.44564	0.02767
401.15987	0.02778
399.87411	0.02792
