3997.45528 0.04542
3996.16951 0.04563
3994.88374 0.04593
3993.59798 0.04630
3992.31221 0.04648
3991.02644 0.04619
3989.74067 0.04540
3988.45490 0.04437
3987.16913 0.04345
3985.88336 0.04286
3984.59759 0.04245
3983.31183 0.04198
3982.02606 0.04148
3980.74029 0.04133
3979.45452 0.04182
3978.16875 0.04269
3976.88298 0.04338
3975.59721 0.04361
3974.31144 0.04348
3973.02567 0.04309
3971.73991 0.04247
3970.45414 0.04172
3969.16837 0.04123
3967.88260 0.04134
3966.59683 0.04213
3965.31106 0.04342
3964.02529 0.04486
3962.73952 0.04594
3961.45376 0.04634
3960.16799 0.04629
3958.88222 0.04632
3957.59645 0.04661
3956.31068 0.04666
3955.02491 0.04590
3953.73914 0.04471
3952.45337 0.04427
3951.16760 0.04531
3949.88184 0.04714
3948.59607 0.04826
3947.31030 0.04789
3946.02453 0.04657
3944.73876 0.04540
3943.45299 0.04505
3942.16722 0.04546
3940.88145 0.04613
3939.59569 0.04642
3938.30992 0.04592
3937.02415 0.04478
3935.73838 0.04361
3934.45261 0.04298
3933.16684 0.04289
3931.88107 0.04287
3930.59530 0.04259
3929.30953 0.04217
3928.02377 0.04199
3926.73800 0.04221
3925.45223 0.04266
3924.16646 0.04301
3922.88069 0.04299
3921.59492 0.04266
3920.30915 0.04231
3919.02338 0.04218
3917.73762 0.04231
3916.45185 0.04251
3915.16608 0.04247
3913.88031 0.04201
3912.59454 0.04137
3911.30877 0.04114
3910.02300 0.04166
3908.73723 0.04256
3907.45146 0.04299
3906.16570 0.04243
3904.87993 0.04121
3903.59416 0.04007
3902.30839 0.03952
3901.02262 0.03968
3899.73685 0.04050
3898.45108 0.04186
3897.16531 0.04347
3895.87955 0.04491
3894.59378 0.04584
3893.30801 0.04606
3892.02224 0.04557
3890.73647 0.04465
3889.45070 0.04366
3888.16493 0.04280
3886.87916 0.04222
3885.59339 0.04202
3884.30763 0.04208
3883.02186 0.04220
3881.73609 0.04236
3880.45032 0.04280
3879.16455 0.04345
3877.87878 0.04385
3876.59301 0.04355
3875.30724 0.04266
3874.02148 0.04178
3872.73571 0.04158
3871.44994 0.04230
3870.16417 0.04352
3868.87840 0.04437
3867.59263 0.04410
3866.30686 0.04290
3865.02109 0.04169
3863.73532 0.04101
3862.44956 0.04064
3861.16379 0.04025
3859.87802 0.03996
3858.59225 0.04001
3857.30648 0.04047
3856.02071 0.04126
3854.73494 0.04240
3853.44917 0.04387
3852.16341 0.04520
3850.87764 0.04577
3849.59187 0.04556
3848.30610 0.04509
3847.02033 0.04468
3845.73456 0.04437
3844.44879 0.04424
3843.16302 0.04452
3841.87725 0.04514
3840.59149 0.04544
3839.30572 0.04478
3838.01995 0.04319
3836.73418 0.04139
3835.44841 0.04011
3834.16264 0.03978
3832.87687 0.04036
3831.59110 0.04131
3830.30534 0.04187
3829.01957 0.04158
3827.73380 0.04066
3826.44803 0.03975
3825.16226 0.03930
3823.87649 0.03929
3822.59072 0.03961
3821.30495 0.04029
3820.01918 0.04118
3818.73342 0.04174
3817.44765 0.04157
3816.16188 0.04103
3814.87611 0.04071
3813.59034 0.04082
3812.30457 0.04126
3811.01880 0.04192
3809.73303 0.04253
3808.44726 0.04271
3807.16150 0.04240
3805.87573 0.04188
3804.58996 0.04150
3803.30419 0.04159
3802.01842 0.04235
3800.73265 0.04345
3799.44688 0.04417
3798.16111 0.04421
3796.87535 0.04403
3795.58958 0.04398
3794.30381 0.04359
3793.01804 0.04233
3791.73227 0.04041
3790.44650 0.03860
3789.16073 0.03745
3787.87496 0.03703
3786.58919 0.03716
3785.30343 0.03759
3784.01766 0.03805
3782.73189 0.03831
3781.44612 0.03846
3780.16035 0.03872
3778.87458 0.03909
3777.58881 0.03929
3776.30304 0.03907
3775.01728 0.03862
3773.73151 0.03835
3772.44574 0.03849
3771.15997 0.03891
3769.87420 0.03938
3768.58843 0.03973
3767.30266 0.03997
3766.01689 0.04014
3764.73112 0.04016
3763.44536 0.03978
3762.15959 0.03901
3760.87382 0.03824
3759.58805 0.03792
3758.30228 0.03819
3757.01651 0.03891
3755.73074 0.03975
3754.44497 0.04023
3753.15921 0.04005
3751.87344 0.03929
3750.58767 0.03833
3749.30190 0.03773
3748.01613 0.03784
3746.73036 0.03828
3745.44459 0.03849
3744.15882 0.03828
3742.87305 0.03773
3741.58729 0.03711
3740.30152 0.03706
3739.01575 0.03789
3737.72998 0.03902
3736.44421 0.03957
3735.15844 0.03929
3733.87267 0.03855
3732.58690 0.03805
3731.30114 0.03823
3730.01537 0.03879
3728.72960 0.03906
3727.44383 0.03887
3726.15806 0.03861
3724.87229 0.03856
3723.58652 0.03853
3722.30075 0.03839
3721.01498 0.03826
3719.72922 0.03842
3718.44345 0.03892
3717.15768 0.03946
3715.87191 0.03955
3714.58614 0.03896
3713.30037 0.03806
3712.01460 0.03752
3710.72883 0.03766
3709.44307 0.03827
3708.15730 0.03899
3706.87153 0.03956
3705.58576 0.03974
3704.29999 0.03935
3703.01422 0.03851
3701.72845 0.03772
3700.44268 0.03735
3699.15691 0.03734
3697.87115 0.03754
3696.58538 0.03776
3695.29961 0.03765
3694.01384 0.03710
3692.72807 0.03660
3691.44230 0.03661
3690.15653 0.03696
3688.87076 0.03712
3687.58500 0.03677
3686.29923 0.03598
3685.01346 0.03526
3683.72769 0.03495
3682.44192 0.03482
3681.15615 0.03459
3679.87038 0.03441
3678.58461 0.03465
3677.29884 0.03542
3676.01308 0.03655
3674.72731 0.03777
3673.44154 0.03872
3672.15577 0.03913
3670.87000 0.03935
3669.58423 0.03981
3668.29846 0.04036
3667.01269 0.04045
3665.72693 0.03985
3664.44116 0.03879
3663.15539 0.03771
3661.86962 0.03706
3660.58385 0.03695
3659.29808 0.03714
3658.01231 0.03732
3656.72654 0.03753
3655.44077 0.03800
3654.15501 0.03866
3652.86924 0.03918
3651.58347 0.03930
3650.29770 0.03907
3649.01193 0.03887
3647.72616 0.03906
3646.44039 0.03966
3645.15462 0.04026
3643.86886 0.04045
3642.58309 0.04031
3641.29732 0.04023
3640.01155 0.04041
3638.72578 0.04073
3637.44001 0.04097
3636.15424 0.04092
3634.86847 0.04055
3633.58270 0.04010
3632.29694 0.03987
3631.01117 0.04004
3629.72540 0.04060
3628.43963 0.04133
3627.15386 0.04170
3625.86809 0.04120
3624.58232 0.03997
3623.29655 0.03868
3622.01079 0.03792
3620.72502 0.03792
3619.43925 0.03847
3618.15348 0.03909
3616.86771 0.03931
3615.58194 0.03922
3614.29617 0.03938
3613.01040 0.04022
3611.72463 0.04150
3610.43887 0.04259
3609.15310 0.04316
3607.86733 0.04329
3606.58156 0.04302
3605.29579 0.04247
3604.01002 0.04201
3602.72425 0.04208
3601.43848 0.04273
3600.15272 0.04354
3598.86695 0.04404
3597.58118 0.04414
3596.29541 0.04399
3595.00964 0.04359
3593.72387 0.04287
3592.43810 0.04208
3591.15233 0.04170
3589.86656 0.04197
3588.58080 0.04265
3587.29503 0.04332
3586.00926 0.04377
3584.72349 0.04415
3583.43772 0.04460
3582.15195 0.04484
3580.86618 0.04450
3579.58041 0.04374
3578.29464 0.04319
3577.00888 0.04335
3575.72311 0.04421
3574.43734 0.04520
3573.15157 0.04563
3571.86580 0.04521
3570.58003 0.04430
3569.29426 0.04358
3568.00849 0.04354
3566.72273 0.04417
3565.43696 0.04509
3564.15119 0.04595
3562.86542 0.04667
3561.57965 0.04730
3560.29388 0.04780
3559.00811 0.04805
3557.72234 0.04795
3556.43657 0.04755
3555.15081 0.04701
3553.86504 0.04657
3552.57927 0.04654
3551.29350 0.04712
3550.00773 0.04810
3548.72196 0.04884
3547.43619 0.04883
3546.15042 0.04814
3544.86466 0.04731
3543.57889 0.04674
3542.29312 0.04645
3541.00735 0.04633
3539.72158 0.04641
3538.43581 0.04681
3537.15004 0.04741
3535.86427 0.04789
3534.57850 0.04806
3533.29274 0.04805
3532.00697 0.04825
3530.72120 0.04879
3529.43543 0.04931
3528.14966 0.04930
3526.86389 0.04867
3525.57812 0.04789
3524.29235 0.04765
3523.00659 0.04818
3521.72082 0.04914
3520.43505 0.04992
3519.14928 0.05011
3517.86351 0.04968
3516.57774 0.04899
3515.29197 0.04854
3514.00620 0.04857
3512.72043 0.04883
3511.43467 0.04892
3510.14890 0.04880
3508.86313 0.04883
3507.57736 0.04936
3506.29159 0.05032
3505.00582 0.05141
3503.72005 0.05224
3502.43428 0.05248
3501.14852 0.05192
3499.86275 0.05077
3498.57698 0.04966
3497.29121 0.04915
3496.00544 0.04934
3494.71967 0.04985
3493.43390 0.05021
3492.14813 0.05024
3490.86236 0.05014
3489.57660 0.05023
3488.29083 0.05065
3487.00506 0.05141
3485.71929 0.05244
3484.43352 0.05356
3483.14775 0.05433
3481.86198 0.05431
3480.57621 0.05352
3479.29045 0.05254
3478.00468 0.05195
3476.71891 0.05187
3475.43314 0.05203
3474.14737 0.05225
3472.86160 0.05259
3471.57583 0.05314
3470.29006 0.05385
3469.00429 0.05450
3467.71853 0.05474
3466.43276 0.05440
3465.14699 0.05369
3463.86122 0.05317
3462.57545 0.05320
3461.28968 0.05359
3460.00391 0.05387
3458.71814 0.05371
3457.43238 0.05317
3456.14661 0.05256
3454.86084 0.05230
3453.57507 0.05264
3452.28930 0.05339
3451.00353 0.05401
3449.71776 0.05412
3448.43199 0.05375
3447.14622 0.05323
3445.86046 0.05273
3444.57469 0.05231
3443.28892 0.05208
3442.00315 0.05221
3440.71738 0.05272
3439.43161 0.05340
3438.14584 0.05398
3436.86007 0.05434
3435.57431 0.05456
3434.28854 0.05476
3433.00277 0.05498
3431.71700 0.05519
3430.43123 0.05530
3429.14546 0.05533
3427.85969 0.05531
3426.57392 0.05526
3425.28815 0.05516
3424.00239 0.05500
3422.71662 0.05482
3421.43085 0.05481
3420.14508 0.05515
3418.85931 0.05578
3417.57354 0.05632
3416.28777 0.05640
3415.00200 0.05608
3413.71624 0.05577
3412.43047 0.05581
3411.14470 0.05621
3409.85893 0.05675
3408.57316 0.05723
3407.28739 0.05759
3406.00162 0.05783
3404.71585 0.05796
3403.43008 0.05807
3402.14432 0.05832
3400.85855 0.05894
3399.57278 0.05985
3398.28701 0.06056
3397.00124 0.06067
3395.71547 0.06003
3394.42970 0.05899
3393.14393 0.05818
3391.85817 0.05801
3390.57240 0.05848
3389.28663 0.05926
3388.00086 0.05986
3386.71509 0.05991
3385.42932 0.05931
3384.14355 0.05842
3382.85778 0.05772
3381.57201 0.05746
3380.28625 0.05753
3379.00048 0.05767
3377.71471 0.05770
3376.42894 0.05762
3375.14317 0.05757
3373.85740 0.05773
3372.57163 0.05826
3371.28586 0.05909
3370.00010 0.05993
3368.71433 0.06048
3367.42856 0.06060
3366.14279 0.06031
3364.85702 0.05973
3363.57125 0.05905
3362.28548 0.05850
3360.99971 0.05830
3359.71394 0.05843
3358.42818 0.05864
3357.14241 0.05868
3355.85664 0.05859
3354.57087 0.05857
3353.28510 0.05877
3351.99933 0.05903
3350.71356 0.05911
3349.42779 0.05901
3348.14202 0.05893
3346.85626 0.05902
3345.57049 0.05918
3344.28472 0.05926
3342.99895 0.05917
3341.71318 0.05895
3340.42741 0.05870
3339.14164 0.05855
3337.85587 0.05856
3336.57011 0.05866
3335.28434 0.05880
3333.99857 0.05894
3332.71280 0.05905
3331.42703 0.05909
3330.14126 0.05909
3328.85549 0.05909
3327.56972 0.05909
3326.28395 0.05905
3324.99819 0.05897
3323.71242 0.05898
3322.42665 0.05921
3321.14088 0.05958
3319.85511 0.05989
3318.56934 0.05997
3317.28357 0.05987
3315.99780 0.05976
3314.71204 0.05982
3313.42627 0.06019
3312.14050 0.06083
3310.85473 0.06148
3309.56896 0.06189
3308.28319 0.06200
3306.99742 0.06197
3305.71165 0.06192
3304.42588 0.06186
3303.14012 0.06167
3301.85435 0.06131
3300.56858 0.06095
3299.28281 0.06081
3297.99704 0.06097
3296.71127 0.06115
3295.42550 0.06102
3294.13973 0.06054
3292.85397 0.06001
3291.56820 0.05987
3290.28243 0.06021
3288.99666 0.06065
3287.71089 0.06066
3286.42512 0.06008
3285.13935 0.05923
3283.85358 0.05854
3282.56781 0.05824
3281.28205 0.05847
3279.99628 0.05921
3278.71051 0.06019
3277.42474 0.06095
3276.13897 0.06124
3274.85320 0.06118
3273.56743 0.06098
3272.28166 0.06081
3270.99590 0.06082
3269.71013 0.06107
3268.42436 0.06143
3267.13859 0.06167
3265.85282 0.06173
3264.56705 0.06178
3263.28128 0.06192
3261.99551 0.06205
3260.70974 0.06203
3259.42398 0.06170
3258.13821 0.06101
3256.85244 0.05994
3255.56667 0.05870
3254.28090 0.05773
3252.99513 0.05738
3251.70936 0.05769
3250.42359 0.05831
3249.13783 0.05872
3247.85206 0.05864
3246.56629 0.05815
3245.28052 0.05765
3243.99475 0.05746
3242.70898 0.05765
3241.42321 0.05805
3240.13744 0.05846
3238.85167 0.05873
3237.56591 0.05883
3236.28014 0.05883
3234.99437 0.05885
3233.70860 0.05892
3232.42283 0.05894
3231.13706 0.05882
3229.85129 0.05857
3228.56552 0.05825
3227.27976 0.05793
3225.99399 0.05763
3224.70822 0.05740
3223.42245 0.05729
3222.13668 0.05726
3220.85091 0.05721
3219.56514 0.05707
3218.27937 0.05684
3216.99360 0.05660
3215.70784 0.05638
3214.42207 0.05623
3213.13630 0.05617
3211.85053 0.05629
3210.56476 0.05668
3209.27899 0.05726
3207.99322 0.05774
3206.70745 0.05773
3205.42169 0.05715
3204.13592 0.05634
3202.85015 0.05579
3201.56438 0.05570
3200.27861 0.05586
3198.99284 0.05607
3197.70707 0.05624
3196.42130 0.05634
3195.13553 0.05624
3193.84977 0.05585
3192.56400 0.05531
3191.27823 0.05490
3189.99246 0.05476
3188.70669 0.05479
3187.42092 0.05479
3186.13515 0.05472
3184.84938 0.05470
3183.56362 0.05484
3182.27785 0.05515
3180.99208 0.05548
3179.70631 0.05559
3178.42054 0.05533
3177.13477 0.05475
3175.84900 0.05408
3174.56323 0.05349
3173.27746 0.05304
3171.99170 0.05274
3170.70593 0.05259
3169.42016 0.05256
3168.13439 0.05254
3166.84862 0.05246
3165.56285 0.05234
3164.27708 0.05224
3162.99131 0.05216
3161.70555 0.05201
3160.41978 0.05179
3159.13401 0.05153
3157.84824 0.05131
3156.56247 0.05124
3155.27670 0.05142
3153.99093 0.05190
3152.70516 0.05247
3151.41939 0.05286
3150.13363 0.05292
3148.84786 0.05274
3147.56209 0.05246
3146.27632 0.05216
3144.99055 0.05194
3143.70478 0.05190
3142.41901 0.05201
3141.13324 0.05210
3139.84748 0.05206
3138.56171 0.05192
3137.27594 0.05172
3135.99017 0.05151
3134.70440 0.05143
3133.41863 0.05153
3132.13286 0.05174
3130.84709 0.05184
3129.56132 0.05174
3128.27556 0.05155
3126.98979 0.05140
3125.70402 0.05134
3124.41825 0.05138
3123.13248 0.05144
3121.84671 0.05134
3120.56094 0.05089
3119.27517 0.05015
3117.98940 0.04938
3116.70364 0.04885
3115.41787 0.04862
3114.13210 0.04865
3112.84633 0.04890
3111.56056 0.04932
3110.27479 0.04978
3108.98902 0.05012
3107.70325 0.05026
3106.41749 0.05025
3105.13172 0.05021
3103.84595 0.05021
3102.56018 0.05027
3101.27441 0.05041
3099.98864 0.05057
3098.70287 0.05072
3097.41710 0.05076
3096.13133 0.05067
3094.84557 0.05050
3093.55980 0.05032
3092.27403 0.05014
3090.98826 0.04987
3089.70249 0.04944
3088.41672 0.04897
3087.13095 0.04869
3085.84518 0.04869
3084.55942 0.04883
3083.27365 0.04892
3081.98788 0.04886
3080.70211 0.04875
3079.41634 0.04867
3078.13057 0.04858
3076.84480 0.04848
3075.55903 0.04849
3074.27326 0.04876
3072.98750 0.04924
3071.70173 0.04963
3070.41596 0.04968
3069.13019 0.04950
3067.84442 0.04935
3066.55865 0.04933
3065.27288 0.04929
3063.98711 0.04905
3062.70135 0.04870
3061.41558 0.04849
3060.12981 0.04860
3058.84404 0.04897
3057.55827 0.04931
3056.27250 0.04940
3054.98673 0.04917
3053.70096 0.04871
3052.41519 0.04822
3051.12943 0.04785
3049.84366 0.04769
3048.55789 0.04770
3047.27212 0.04774
3045.98635 0.04770
3044.70058 0.04753
3043.41481 0.04733
3042.12904 0.04720
3040.84328 0.04714
3039.55751 0.04703
3038.27174 0.04676
3036.98597 0.04638
3035.70020 0.04608
3034.41443 0.04604
3033.12866 0.04624
3031.84289 0.04646
3030.55712 0.04651
3029.27136 0.04641
3027.98559 0.04622
3026.69982 0.04598
3025.41405 0.04562
3024.12828 0.04516
3022.84251 0.04485
3021.55674 0.04486
3020.27097 0.04513
3018.98521 0.04541
3017.69944 0.04556
3016.41367 0.04562
3015.12790 0.04569
3013.84213 0.04578
3012.55636 0.04576
3011.27059 0.04551
3009.98482 0.04511
3008.69905 0.04471
3007.41329 0.04445
3006.12752 0.04439
3004.84175 0.04453
3003.55598 0.04484
3002.27021 0.04526
3000.98444 0.04568
2999.69867 0.04589
2998.41290 0.04583
2997.12714 0.04549
2995.84137 0.04494
2994.55560 0.04437
2993.26983 0.04392
2991.98406 0.04369
2990.69829 0.04371
2989.41252 0.04400
2988.12675 0.04454
2986.84098 0.04529
2985.55522 0.04606
2984.26945 0.04658
2982.98368 0.04669
2981.69791 0.04647
2980.41214 0.04615
2979.12637 0.04596
2977.84060 0.04600
2976.55483 0.04623
2975.26907 0.04655
2973.98330 0.04684
2972.69753 0.04699
2971.41176 0.04705
2970.12599 0.04714
2968.84022 0.04732
2967.55445 0.04750
2966.26868 0.04769
2964.98291 0.04811
2963.69715 0.04902
2962.41138 0.05035
2961.12561 0.05166
2959.83984 0.05248
2958.55407 0.05273
2957.26830 0.05276
2955.98253 0.05292
2954.69676 0.05321
2953.41100 0.05327
2952.12523 0.05284
2950.83946 0.05206
2949.55369 0.05136
2948.26792 0.05112
2946.98215 0.05138
2945.69638 0.05187
2944.41061 0.05232
2943.12484 0.05252
2941.83908 0.05249
2940.55331 0.05238
2939.26754 0.05242
2937.98177 0.05271
2936.69600 0.05312
2935.41023 0.05352
2934.12446 0.05388
2932.83869 0.05427
2931.55293 0.05470
2930.26716 0.05505
2928.98139 0.05521
2927.69562 0.05518
2926.40985 0.05509
2925.12408 0.05512
2923.83831 0.05532
2922.55254 0.05551
2921.26677 0.05545
2919.98101 0.05516
2918.69524 0.05486
2917.40947 0.05472
2916.12370 0.05463
2914.83793 0.05440
2913.55216 0.05399
2912.26639 0.05355
2910.98062 0.05323
2909.69486 0.05311
2908.40909 0.05304
2907.12332 0.05289
2905.83755 0.05257
2904.55178 0.05212
2903.26601 0.05161
2901.98024 0.05106
2900.69447 0.05056
2899.40870 0.05018
2898.12294 0.05002
2896.83717 0.05008
2895.55140 0.05030
2894.26563 0.05049
2892.97986 0.05051
2891.69409 0.05035
2890.40832 0.05009
2889.12255 0.04982
2887.83678 0.04955
2886.55102 0.04932
2885.26525 0.04912
2883.97948 0.04897
2882.69371 0.04882
2881.40794 0.04860
2880.12217 0.04828
2878.83640 0.04802
2877.55063 0.04803
2876.26487 0.04834
2874.97910 0.04866
2873.69333 0.04873
2872.40756 0.04857
2871.12179 0.04841
2869.83602 0.04841
2868.55025 0.04854
2867.26448 0.04868
2865.97871 0.04878
2864.69295 0.04881
2863.40718 0.04874
2862.12141 0.04857
2860.83564 0.04834
2859.54987 0.04814
2858.26410 0.04803
2856.97833 0.04801
2855.69256 0.04800
2854.40680 0.04788
2853.12103 0.04758
2851.83526 0.04719
2850.54949 0.04688
2849.26372 0.04672
2847.97795 0.04659
2846.69218 0.04635
2845.40641 0.04604
2844.12064 0.04576
2842.83488 0.04552
2841.54911 0.04524
2840.26334 0.04491
2838.97757 0.04464
2837.69180 0.04452
2836.40603 0.04451
2835.12026 0.04452
2833.83449 0.04442
2832.54873 0.04414
2831.26296 0.04369
2829.97719 0.04320
2828.69142 0.04277
2827.40565 0.04242
2826.11988 0.04212
2824.83411 0.04184
2823.54834 0.04164
2822.26257 0.04161
2820.97681 0.04177
2819.69104 0.04209
2818.40527 0.04243
2817.11950 0.04255
2815.83373 0.04229
2814.54796 0.04176
2813.26219 0.04122
2811.97642 0.04083
2810.69066 0.04054
2809.40489 0.04032
2808.11912 0.04020
2806.83335 0.04015
2805.54758 0.04001
2804.26181 0.03968
2802.97604 0.03931
2801.69027 0.03911
2800.40450 0.03914
2799.11874 0.03921
2797.83297 0.03918
2796.54720 0.03917
2795.26143 0.03933
2793.97566 0.03963
2792.68989 0.03985
2791.40412 0.03981
2790.11835 0.03948
2788.83259 0.03901
2787.54682 0.03857
2786.26105 0.03831
2784.97528 0.03829
2783.68951 0.03845
2782.40374 0.03864
2781.11797 0.03869
2779.83220 0.03855
2778.54643 0.03837
2777.26067 0.03834
2775.97490 0.03849
2774.68913 0.03865
2773.40336 0.03867
2772.11759 0.03858
2770.83182 0.03851
2769.54605 0.03845
2768.26028 0.03828
2766.97452 0.03797
2765.68875 0.03762
2764.40298 0.03743
2763.11721 0.03747
2761.83144 0.03765
2760.54567 0.03781
2759.25990 0.03787
2757.97413 0.03785
2756.68836 0.03774
2755.40260 0.03757
2754.11683 0.03735
2752.83106 0.03719
2751.54529 0.03719
2750.25952 0.03739
2748.97375 0.03768
2747.68798 0.03790
2746.40221 0.03793
2745.11645 0.03776
2743.83068 0.03753
2742.54491 0.03738
2741.25914 0.03732
2739.97337 0.03725
2738.68760 0.03707
2737.40183 0.03681
2736.11606 0.03662
2734.83029 0.03656
2733.54453 0.03657
2732.25876 0.03656
2730.97299 0.03648
2729.68722 0.03634
2728.40145 0.03618
2727.11568 0.03609
2725.82991 0.03611
2724.54414 0.03621
2723.25838 0.03632
2721.97261 0.03636
2720.68684 0.03633
2719.40107 0.03626
2718.11530 0.03619
2716.82953 0.03612
2715.54376 0.03599
2714.25799 0.03579
2712.97222 0.03561
2711.68646 0.03557
2710.40069 0.03567
2709.11492 0.03576
2707.82915 0.03571
2706.54338 0.03554
2705.25761 0.03535
2703.97184 0.03519
2702.68607 0.03505
2701.40031 0.03498
2700.11454 0.03500
2698.82877 0.03501
2697.54300 0.03490
2696.25723 0.03469
2694.97146 0.03452
2693.68569 0.03451
2692.39992 0.03466
2691.11415 0.03490
2689.82839 0.03511
2688.54262 0.03520
2687.25685 0.03512
2685.97108 0.03493
2684.68531 0.03476
2683.39954 0.03467
2682.11377 0.03465
2680.82800 0.03461
2679.54224 0.03453
2678.25647 0.03451
2676.97070 0.03466
2675.68493 0.03494
2674.39916 0.03521
2673.11339 0.03532
2671.82762 0.03523
2670.54185 0.03498
2669.25608 0.03467
2667.97032 0.03438
2666.68455 0.03420
2665.39878 0.03410
2664.11301 0.03399
2662.82724 0.03384
2661.54147 0.03363
2660.25570 0.03338
2658.96993 0.03305
2657.68417 0.03269
2656.39840 0.03247
2655.11263 0.03253
2653.82686 0.03284
2652.54109 0.03324
2651.25532 0.03357
2649.96955 0.03371
2648.68378 0.03359
2647.39801 0.03320
2646.11225 0.03267
2644.82648 0.03224
2643.54071 0.03209
2642.25494 0.03221
2640.96917 0.03239
2639.68340 0.03245
2638.39763 0.03225
2637.11186 0.03182
2635.82609 0.03124
2634.54033 0.03070
2633.25456 0.03041
2631.96879 0.03051
2630.68302 0.03091
2629.39725 0.03134
2628.11148 0.03152
2626.82571 0.03138
2625.53994 0.03106
2624.25418 0.03070
2622.96841 0.03038
2621.68264 0.03018
2620.39687 0.03015
2619.11110 0.03021
2617.82533 0.03014
2616.53956 0.02986
2615.25379 0.02952
2613.96802 0.02933
2612.68226 0.02933
2611.39649 0.02945
2610.11072 0.02964
2608.82495 0.02985
2607.53918 0.02994
2606.25341 0.02976
2604.96764 0.02932
2603.68187 0.02880
2602.39611 0.02848
2601.11034 0.02861
2599.82457 0.02915
2598.53880 0.02979
2597.25303 0.03019
2595.96726 0.03026
2594.68149 0.03008
2593.39572 0.02974
2592.10995 0.02923
2590.82419 0.02859
2589.53842 0.02799
2588.25265 0.02763
2586.96688 0.02763
2585.68111 0.02790
2584.39534 0.02816
2583.10957 0.02819
2581.82380 0.02799
2580.53804 0.02774
2579.25227 0.02761
2577.96650 0.02762
2576.68073 0.02774
2575.39496 0.02788
2574.10919 0.02802
2572.82342 0.02813
2571.53765 0.02811
2570.25188 0.02778
2568.96612 0.02708
2567.68035 0.02626
2566.39458 0.02576
2565.10881 0.02579
2563.82304 0.02622
2562.53727 0.02684
2561.25150 0.02745
2559.96573 0.02786
2558.67997 0.02787
2557.39420 0.02753
2556.10843 0.02725
2554.82266 0.02739
2553.53689 0.02787
2552.25112 0.02815
2550.96535 0.02787
2549.67958 0.02726
2548.39381 0.02682
2547.10805 0.02686
2545.82228 0.02732
2544.53651 0.02787
2543.25074 0.02815
2541.96497 0.02792
2540.67920 0.02726
2539.39343 0.02644
2538.10766 0.02577
2536.82190 0.02547
2535.53613 0.02561
2534.25036 0.02609
2532.96459 0.02657
2531.67882 0.02678
2530.39305 0.02674
2529.10728 0.02662
2527.82151 0.02652
2526.53574 0.02641
2525.24998 0.02620
2523.96421 0.02588
2522.67844 0.02555
2521.39267 0.02541
2520.10690 0.02552
2518.82113 0.02576
2517.53536 0.02591
2516.24959 0.02591
2514.96383 0.02587
2513.67806 0.02594
2512.39229 0.02617
2511.10652 0.02655
2509.82075 0.02700
2508.53498 0.02739
2507.24921 0.02758
2505.96344 0.02757
2504.67767 0.02743
2503.39191 0.02714
2502.10614 0.02663
2500.82037 0.02602
2499.53460 0.02564
2498.24883 0.02567
2496.96306 0.02589
2495.67729 0.02600
2494.39152 0.02589
2493.10576 0.02565
2491.81999 0.02542
2490.53422 0.02534
2489.24845 0.02555
2487.96268 0.02604
2486.67691 0.02656
2485.39114 0.02688
2484.10537 0.02697
2482.81960 0.02685
2481.53384 0.02651
2480.24807 0.02593
2478.96230 0.02537
2477.67653 0.02513
2476.39076 0.02522
2475.10499 0.02525
2473.81922 0.02493
2472.53345 0.02442
2471.24769 0.02410
2469.96192 0.02418
2468.67615 0.02451
2467.39038 0.02485
2466.10461 0.02504
2464.81884 0.02506
2463.53307 0.02499
2462.24730 0.02505
2460.96153 0.02539
2459.67577 0.02596
2458.39000 0.02642
2457.10423 0.02647
2455.81846 0.02612
2454.53269 0.02567
2453.24692 0.02536
2451.96115 0.02527
2450.67538 0.02537
2449.38962 0.02567
2448.10385 0.02605
2446.81808 0.02625
2445.53231 0.02605
2444.24654 0.02553
2442.96077 0.02494
2441.67500 0.02455
2440.38923 0.02442
2439.10346 0.02443
2437.81770 0.02443
2436.53193 0.02440
2435.24616 0.02452
2433.96039 0.02492
2432.67462 0.02548
2431.38885 0.02583
2430.10308 0.02569
2428.81731 0.02516
2427.53155 0.02460
2426.24578 0.02422
2424.96001 0.02398
2423.67424 0.02386
2422.38847 0.02395
2421.10270 0.02433
2419.81693 0.02481
2418.53116 0.02514
2417.24539 0.02520
2415.95963 0.02498
2414.67386 0.02452
2413.38809 0.02394
2412.10232 0.02346
2410.81655 0.02323
2409.53078 0.02327
2408.24501 0.02351
2406.95924 0.02390
2405.67347 0.02433
2404.38771 0.02464
2403.10194 0.02473
2401.81617 0.02466
2400.53040 0.02459
2399.24463 0.02447
2397.95886 0.02443
2396.67309 0.02445
2395.38732 0.02440
2394.10156 0.02431
2392.81579 0.02428
2391.53002 0.02435
2390.24425 0.02450
2388.95848 0.02471
2387.67271 0.02491
2386.38694 0.02506
2385.10117 0.02515
2383.81540 0.02516
2382.52964 0.02513
2381.24387 0.02505
2379.95810 0.02499
2378.67233 0.02504
2377.38656 0.02530
2376.10079 0.02572
2374.81502 0.02606
2373.52925 0.02621
2372.24349 0.02617
2370.95772 0.02606
2369.67195 0.02576
2368.38618 0.02540
2367.10041 0.02524
2365.81464 0.02543
2364.52887 0.02560
2363.24310 0.02561
2361.95733 0.02554
2360.67157 0.02559
2359.38580 0.02538
2358.10003 0.02498
2356.81426 0.02467
2355.52849 0.02462
2354.24272 0.02477
2352.95695 0.02493
2351.67118 0.02520
2350.38542 0.02538
2349.09965 0.02513
2347.81388 0.02467
2346.52811 0.02497
2345.24234 0.02567
2343.95657 0.02556
2342.67080 0.02468
2341.38503 0.02480
2340.09926 0.02594
2338.81350 0.02567
2337.52773 0.02401
2336.24196 0.02411
2334.95619 0.02550
2333.67042 0.02492
2332.38465 0.02300
2331.09888 0.02309
2329.81311 0.02318
2328.52735 0.02114
2327.24158 0.02087
2325.95581 0.02198
2324.67004 0.02172
2323.38427 0.02226
2322.09850 0.02383
2320.81273 0.02376
2319.52696 0.02404
2318.24119 0.02477
2316.95543 0.02456
2315.66966 0.02476
2314.38389 0.02498
2313.09812 0.02445
2311.81235 0.02418
2310.52658 0.02371
2309.24081 0.02321
2307.95504 0.02300
2306.66928 0.02261
2305.38351 0.02241
2304.09774 0.02221
2302.81197 0.02180
2301.52620 0.02135
2300.24043 0.02089
2298.95466 0.02073
2297.66889 0.02087
2296.38312 0.02116
2295.09736 0.02135
2293.81159 0.02125
2292.52582 0.02096
2291.24005 0.02059
2289.95428 0.02026
2288.66851 0.02001
2287.38274 0.01994
2286.09697 0.02009
2284.81121 0.02037
2283.52544 0.02061
2282.23967 0.02076
2280.95390 0.02096
2279.66813 0.02118
2278.38236 0.02127
2277.09659 0.02109
2275.81082 0.02067
2274.52505 0.02007
2273.23929 0.01937
2271.95352 0.01873
2270.66775 0.01839
2269.38198 0.01841
2268.09621 0.01860
2266.81044 0.01877
2265.52467 0.01883
2264.23890 0.01866
2262.95314 0.01829
2261.66737 0.01804
2260.38160 0.01822
2259.09583 0.01885
2257.81006 0.01952
2256.52429 0.01980
2255.23852 0.01966
2253.95275 0.01939
2252.66698 0.01910
2251.38122 0.01861
2250.09545 0.01818
2248.80968 0.01824
2247.52391 0.01776
2246.23814 0.01752
2244.95237 0.01736
2243.66660 0.01719
2242.38083 0.01721
2241.09507 0.01772
2239.80930 0.01871
2238.52353 0.01970
2237.23776 0.02010
2235.95199 0.01976
2234.66622 0.01913
2233.38045 0.01874
2232.09468 0.01850
2230.80891 0.01784
2229.52315 0.01650
2228.23738 0.01505
2226.95161 0.01429
2225.66584 0.01437
2224.38007 0.01472
2223.09430 0.01476
2221.80853 0.01440
2220.52276 0.01391
2219.23700 0.01365
2217.95123 0.01381
2216.66546 0.01424
2215.37969 0.01453
2214.09392 0.01446
2212.80815 0.01420
2211.52238 0.01403
2210.23661 0.01404
2208.95084 0.01424
2207.66508 0.01472
2206.37931 0.01550
2205.09354 0.01633
2203.80777 0.01689
2202.52200 0.01714
2201.23623 0.01723
2199.95046 0.01708
2198.66469 0.01647
2197.37893 0.01544
2196.09316 0.01445
2194.80739 0.01387
2193.52162 0.01355
2192.23585 0.01300
2190.95008 0.01217
2189.66431 0.01161
2188.37854 0.01200
2187.09277 0.01333
2185.80701 0.01479
2184.52124 0.01531
2183.23547 0.01445
2181.94970 0.01278
2180.66393 0.01141
2179.37816 0.01126
2178.09239 0.01223
2176.80662 0.01328
2175.52085 0.01329
2174.23509 0.01207
2172.94932 0.01049
2171.66355 0.00953
2170.37778 0.00939
2169.09201 0.00970
2167.80624 0.00999
2166.52047 0.00999
2165.23470 0.00958
2163.94894 0.00899
2162.66317 0.00869
2161.37740 0.00905
2160.09163 0.00996
2158.80586 0.01087
2157.52009 0.01127
2156.23432 0.01096
2154.94855 0.01014
2153.66278 0.00919
2152.37702 0.00847
2151.09125 0.00821
2149.80548 0.00844
2148.51971 0.00910
2147.23394 0.01006
2145.94817 0.01105
2144.66240 0.01174
2143.37663 0.01197
2142.09087 0.01189
2140.80510 0.01182
2139.51933 0.01191
2138.23356 0.01218
2136.94779 0.01253
2135.66202 0.01285
2134.37625 0.01309
2133.09048 0.01323
2131.80471 0.01332
2130.51895 0.01349
2129.23318 0.01390
2127.94741 0.01462
2126.66164 0.01544
2125.37587 0.01593
2124.09010 0.01583
2122.80433 0.01532
2121.51856 0.01480
2120.23280 0.01456
2118.94703 0.01464
2117.66126 0.01488
2116.37549 0.01512
2115.08972 0.01533
2113.80395 0.01555
2112.51818 0.01567
2111.23241 0.01541
2109.94664 0.01461
2108.66088 0.01357
2107.37511 0.01287
2106.08934 0.01288
2104.80357 0.01337
2103.51780 0.01373
2102.23203 0.01350
2100.94626 0.01297
2099.66049 0.01426
2098.37473 0.01500
2097.08896 0.01490
2095.80319 0.01437
2094.51742 0.01370
2093.23165 0.01323
2091.94588 0.01309
2090.66011 0.01314
2089.37434 0.01318
2088.08857 0.01324
2086.80281 0.01342
2085.51704 0.01377
2084.23127 0.01411
2082.94550 0.01423
2081.65973 0.01405
2080.37396 0.01362
2079.08819 0.01307
2077.80242 0.01261
2076.51666 0.01243
2075.23089 0.01262
2073.94512 0.01301
2072.65935 0.01326
2071.37358 0.01320
2070.08781 0.01299
2068.80204 0.01290
2067.51627 0.01300
2066.23050 0.01312
2064.94474 0.01309
2063.65897 0.01293
2062.37320 0.01277
2061.08743 0.01265
2059.80166 0.01252
2058.51589 0.01234
2057.23012 0.01208
2055.94435 0.01172
2054.65859 0.01135
2053.37282 0.01124
2052.08705 0.01152
2050.80128 0.01197
2049.51551 0.01218
2048.22974 0.01202
2046.94397 0.01168
2045.65820 0.01137
2044.37243 0.01118
2043.08667 0.01115
2041.80090 0.01124
2040.51513 0.01128
2039.22936 0.01105
2037.94359 0.01058
2036.65782 0.01008
2035.37205 0.00977
2034.08628 0.00966
2032.80052 0.00973
2031.51475 0.01002
2030.22898 0.01050
2028.94321 0.01090
2027.65744 0.01087
2026.37167 0.01038
2025.08590 0.00981
2023.80013 0.00939
2022.51436 0.00886
2021.22860 0.00789
2019.94283 0.00664
2018.65706 0.00563
2017.37129 0.00520
2016.08552 0.00534
2014.79975 0.00593
2013.51398 0.00697
2012.22821 0.00846
2010.94245 0.01025
2009.65668 0.01205
2008.37091 0.01347
2007.08514 0.01411
2005.79937 0.01377
2004.51360 0.01269
2003.22783 0.01141
2001.94206 0.01036
2000.65629 0.00965
1999.37053 0.00919
1998.08476 0.00903
1996.79899 0.00923
1995.51322 0.00962
1994.22745 0.00985
1992.94168 0.00979
1991.65591 0.00981
1990.37014 0.01028
1989.08438 0.01102
1987.79861 0.01133
1986.51284 0.01088
1985.22707 0.01014
1983.94130 0.00986
1982.65553 0.01028
1981.36976 0.01107
1980.08399 0.01194
1978.79822 0.01294
1977.51246 0.01410
1976.22669 0.01510
1974.94092 0.01559
1973.65515 0.01564
1972.36938 0.01555
1971.08361 0.01549
1969.79784 0.01536
1968.51207 0.01511
1967.22631 0.01491
1965.94054 0.01496
1964.65477 0.01518
1963.36900 0.01517
1962.08323 0.01469
1960.79746 0.01392
1959.51169 0.01327
1958.22592 0.01291
1956.94015 0.01265
1955.65439 0.01229
1954.36862 0.01202
1953.08285 0.01212
1951.79708 0.01255
1950.51131 0.01297
1949.22554 0.01321
1947.93977 0.01345
1946.65400 0.01395
1945.36823 0.01463
1944.08247 0.01524
1942.79670 0.01560
1941.51093 0.01562
1940.22516 0.01532
1938.93939 0.01485
1937.65362 0.01453
1936.36785 0.01448
1935.08208 0.01452
1933.79632 0.01437
1932.51055 0.01407
1931.22478 0.01394
1929.93901 0.01415
1928.65324 0.01455
1927.36747 0.01483
1926.08170 0.01490
1924.79593 0.01489
1923.51016 0.01493
1922.22440 0.01493
1920.93863 0.01468
1919.65286 0.01421
1918.36709 0.01383
1917.08132 0.01395
1915.79555 0.01458
1914.50978 0.01534
1913.22401 0.01575
1911.93825 0.01561
1910.65248 0.01508
1909.36671 0.01447
1908.08094 0.01405
1906.79517 0.01386
1905.50940 0.01384
1904.22363 0.01396
1902.93786 0.01422
1901.65209 0.01454
1900.36633 0.01469
1899.08056 0.01458
1897.79479 0.01433
1896.50902 0.01416
1895.22325 0.01415
1893.93748 0.01431
1892.65171 0.01461
1891.36594 0.01495
1890.08018 0.01516
1888.79441 0.01513
1887.50864 0.01494
1886.22287 0.01477
1884.93710 0.01475
1883.65133 0.01482
1882.36556 0.01488
1881.07979 0.01485
1879.79402 0.01477
1878.50826 0.01469
1877.22249 0.01465
1875.93672 0.01468
1874.65095 0.01475
1873.36518 0.01484
1872.07941 0.01498
1870.79364 0.01515
1869.50787 0.01534
1868.22211 0.01554
1866.93634 0.01567
1865.65057 0.01566
1864.36480 0.01552
1863.07903 0.01531
1861.79326 0.01516
1860.50749 0.01513
1859.22172 0.01522
1857.93595 0.01535
1856.65019 0.01543
1855.36442 0.01541
1854.07865 0.01526
1852.79288 0.01501
1851.50711 0.01479
1850.22134 0.01473
1848.93557 0.01490
1847.64980 0.01521
1846.36404 0.01549
1845.07827 0.01559
1843.79250 0.01551
1842.50673 0.01526
1841.22096 0.01485
1839.93519 0.01436
1838.64942 0.01399
1837.36365 0.01383
1836.07788 0.01388
1834.79212 0.01407
1833.50635 0.01436
1832.22058 0.01476
1830.93481 0.01524
1829.64904 0.01571
1828.36327 0.01603
1827.07750 0.01610
1825.79173 0.01598
1824.50597 0.01587
1823.22020 0.01586
1821.93443 0.01596
1820.64866 0.01609
1819.36289 0.01619
1818.07712 0.01613
1816.79135 0.01584
1815.50558 0.01538
1814.21981 0.01492
1812.93405 0.01457
1811.64828 0.01439
1810.36251 0.01431
1809.07674 0.01431
1807.79097 0.01437
1806.50520 0.01447
1805.21943 0.01456
1803.93366 0.01462
1802.64790 0.01470
1801.36213 0.01482
1800.07636 0.01492
1798.79059 0.01490
1797.50482 0.01473
1796.21905 0.01456
1794.93328 0.01453
1793.64751 0.01468
1792.36174 0.01494
1791.07598 0.01516
1789.79021 0.01527
1788.50444 0.01529
1787.21867 0.01530
1785.93290 0.01530
1784.64713 0.01529
1783.36136 0.01526
1782.07559 0.01520
1780.78983 0.01515
1779.50406 0.01514
1778.21829 0.01516
1776.93252 0.01519
1775.64675 0.01523
1774.36098 0.01527
1773.07521 0.01532
1771.78944 0.01541
1770.50367 0.01544
1769.21791 0.01533
1767.93214 0.01513
1766.64637 0.01497
1765.36060 0.01491
1764.07483 0.01496
1762.78906 0.01507
1761.50329 0.01520
1760.21752 0.01522
1758.93176 0.01510
1757.64599 0.01496
1756.36022 0.01497
1755.07445 0.01516
1753.78868 0.01538
1752.50291 0.01548
1751.21714 0.01550
1749.93137 0.01546
1748.64560 0.01536
1747.35984 0.01520
1746.07407 0.01502
1744.78830 0.01489
1743.50253 0.01484
1742.21676 0.01490
1740.93099 0.01503
1739.64522 0.01523
1738.35945 0.01550
1737.07369 0.01576
1735.78792 0.01588
1734.50215 0.01591
1733.21638 0.01592
1731.93061 0.01588
1730.64484 0.01574
1729.35907 0.01559
1728.07330 0.01554
1726.78753 0.01558
1725.50177 0.01565
1724.21600 0.01575
1722.93023 0.01594
1721.64446 0.01624
1720.35869 0.01655
1719.07292 0.01681
1717.78715 0.01707
1716.50138 0.01737
1715.21561 0.01764
1713.92985 0.01780
1712.64408 0.01790
1711.35831 0.01802
1710.07254 0.01823
1708.78677 0.01854
1707.50100 0.01894
1706.21523 0.01942
1704.92946 0.02005
1703.64370 0.02086
1702.35793 0.02173
1701.07216 0.02262
1699.78639 0.02356
1698.50062 0.02440
1697.21485 0.02495
1695.92908 0.02533
1694.64331 0.02576
1693.35754 0.02621
1692.07178 0.02659
1690.78601 0.02702
1689.50024 0.02770
1688.21447 0.02863
1686.92870 0.02963
1685.64293 0.03053
1684.35716 0.03133
1683.07139 0.03200
1681.78563 0.03249
1680.49986 0.03285
1679.21409 0.03330
1677.92832 0.03392
1676.64255 0.03461
1675.35678 0.03535
1674.07101 0.03612
1672.78524 0.03685
1671.49947 0.03742
1670.21371 0.03787
1668.92794 0.03830
1667.64217 0.03881
1666.35640 0.03943
1665.07063 0.04015
1663.78486 0.04092
1662.49909 0.04166
1661.21332 0.04229
1659.92756 0.04279
1658.64179 0.04326
1657.35602 0.04384
1656.07025 0.04456
1654.78448 0.04528
1653.49871 0.04596
1652.21294 0.04654
1650.92717 0.04690
1649.64140 0.04694
1648.35564 0.04680
1647.06987 0.04675
1645.78410 0.04683
1644.49833 0.04693
1643.21256 0.04695
1641.92679 0.04692
1640.64102 0.04693
1639.35525 0.04699
1638.06949 0.04702
1636.78372 0.04695
1635.49795 0.04678
1634.21218 0.04652
1632.92641 0.04612
1631.64064 0.04559
1630.35487 0.04504
1629.06910 0.04454
1627.78333 0.04410
1626.49757 0.04368
1625.21180 0.04320
1623.92603 0.04261
1622.64026 0.04195
1621.35449 0.04128
1620.06872 0.04066
1618.78295 0.04008
1617.49718 0.03954
1616.21142 0.03903
1614.92565 0.03849
1613.63988 0.03788
1612.35411 0.03726
1611.06834 0.03674
1609.78257 0.03633
1608.49680 0.03595
1607.21103 0.03558
1605.92526 0.03523
1604.63950 0.03492
1603.35373 0.03464
1602.06796 0.03439
1600.78219 0.03418
1599.49642 0.03400
1598.21065 0.03388
1596.92488 0.03379
1595.63911 0.03371
1594.35335 0.03363
1593.06758 0.03357
1591.78181 0.03351
1590.49604 0.03346
1589.21027 0.03339
1587.92450 0.03333
1586.63873 0.03331
1585.35296 0.03335
1584.06719 0.03348
1582.78143 0.03369
1581.49566 0.03400
1580.20989 0.03442
1578.92412 0.03486
1577.63835 0.03519
1576.35258 0.03541
1575.06681 0.03559
1573.78104 0.03574
1572.49528 0.03588
1571.20951 0.03608
1569.92374 0.03638
1568.63797 0.03669
1567.35220 0.03692
1566.06643 0.03706
1564.78066 0.03725
1563.49489 0.03762
1562.20912 0.03813
1560.92336 0.03866
1559.63759 0.03915
1558.35182 0.03958
1557.06605 0.03984
1555.78028 0.03985
1554.49451 0.03976
1553.20874 0.03977
1551.92297 0.03987
1550.63721 0.03995
1549.35144 0.04000
1548.06567 0.04008
1546.77990 0.04021
1545.49413 0.04044
1544.20836 0.04080
1542.92259 0.04120
1541.63682 0.04151
1540.35105 0.04162
1539.06529 0.04154
1537.77952 0.04134
1536.49375 0.04104
1535.20798 0.04073
1533.92221 0.04053
1532.63644 0.04049
1531.35067 0.04050
1530.06490 0.04049
1528.77914 0.04051
1527.49337 0.04062
1526.20760 0.04088
1524.92183 0.04123
1523.63606 0.04154
1522.35029 0.04173
1521.06452 0.04186
1519.77875 0.04196
1518.49298 0.04200
1517.20722 0.04201
1515.92145 0.04208
1514.63568 0.04225
1513.34991 0.04247
1512.06414 0.04275
1510.77837 0.04314
1509.49260 0.04356
1508.20683 0.04392
1506.92107 0.04419
1505.63530 0.04440
1504.34953 0.04453
1503.06376 0.04456
1501.77799 0.04459
1500.49222 0.04470
1499.20645 0.04487
1497.92068 0.04499
1496.63491 0.04505
1495.34915 0.04507
1494.06338 0.04506
1492.77761 0.04502
1491.49184 0.04503
1490.20607 0.04517
1488.92030 0.04543
1487.63453 0.04570
1486.34876 0.04594
1485.06299 0.04619
1483.77723 0.04649
1482.49146 0.04688
1481.20569 0.04736
1479.91992 0.04794
1478.63415 0.04859
1477.34838 0.04927
1476.06261 0.04994
1474.77684 0.05054
1473.49108 0.05106
1472.20531 0.05149
1470.91954 0.05188
1469.63377 0.05225
1468.34800 0.05263
1467.06223 0.05304
1465.77646 0.05347
1464.49069 0.05389
1463.20492 0.05430
1461.91916 0.05478
1460.63339 0.05538
1459.34762 0.05607
1458.06185 0.05676
1456.77608 0.05741
1455.49031 0.05799
1454.20454 0.05842
1452.91877 0.05872
1451.63301 0.05900
1450.34724 0.05928
1449.06147 0.05951
1447.77570 0.05966
1446.48993 0.05972
1445.20416 0.05971
1443.91839 0.05961
1442.63262 0.05946
1441.34685 0.05928
1440.06109 0.05912
1438.77532 0.05896
1437.48955 0.05881
1436.20378 0.05872
1434.91801 0.05868
1433.63224 0.05867
1432.34647 0.05870
1431.06070 0.05880
1429.77494 0.05901
1428.48917 0.05929
1427.20340 0.05963
1425.91763 0.06002
1424.63186 0.06047
1423.34609 0.06102
1422.06032 0.06162
1420.77455 0.06218
1419.48878 0.06269
1418.20302 0.06314
1416.91725 0.06350
1415.63148 0.06377
1414.34571 0.06399
1413.05994 0.06418
1411.77417 0.06431
1410.48840 0.06434
1409.20263 0.06425
1407.91687 0.06408
1406.63110 0.06385
1405.34533 0.06359
1404.05956 0.06328
1402.77379 0.06283
1401.48802 0.06222
1400.20225 0.06148
1398.91648 0.06067
1397.63071 0.05983
1396.34495 0.05891
1395.05918 0.05793
1393.77341 0.05697
1392.48764 0.05610
1391.20187 0.05531
1389.91610 0.05454
1388.63033 0.05374
1387.34456 0.05289
1386.05880 0.05202
1384.77303 0.05113
1383.48726 0.05027
1382.20149 0.04947
1380.91572 0.04872
1379.62995 0.04795
1378.34418 0.04711
1377.05841 0.04619
1375.77264 0.04522
1374.48688 0.04425
1373.20111 0.04330
1371.91534 0.04237
1370.62957 0.04145
1369.34380 0.04053
1368.05803 0.03964
1366.77226 0.03878
1365.48649 0.03794
1364.20073 0.03712
1362.91496 0.03635
1361.62919 0.03565
1360.34342 0.03500
1359.05765 0.03440
1357.77188 0.03381
1356.48611 0.03327
1355.20034 0.03276
1353.91457 0.03232
1352.62881 0.03194
1351.34304 0.03161
1350.05727 0.03131
1348.77150 0.03102
1347.48573 0.03069
1346.19996 0.03035
1344.91419 0.03004
1343.62842 0.02980
1342.34266 0.02963
1341.05689 0.02949
1339.77112 0.02935
1338.48535 0.02916
1337.19958 0.02894
1335.91381 0.02873
1334.62804 0.02855
1333.34227 0.02837
1332.05650 0.02816
1330.77074 0.02790
1329.48497 0.02763
1328.19920 0.02743
1326.91343 0.02731
1325.62766 0.02721
1324.34189 0.02708
1323.05612 0.02689
1321.77035 0.02666
1320.48459 0.02643
1319.19882 0.02620
1317.91305 0.02600
1316.62728 0.02583
1315.34151 0.02568
1314.05574 0.02554
1312.76997 0.02538
1311.48420 0.02519
1310.19843 0.02498
1308.91267 0.02479
1307.62690 0.02462
1306.34113 0.02448
1305.05536 0.02436
1303.76959 0.02426
1302.48382 0.02416
1301.19805 0.02403
1299.91228 0.02387
1298.62652 0.02370
1297.34075 0.02355
1296.05498 0.02341
1294.76921 0.02329
1293.48344 0.02315
1292.19767 0.02301
1290.91190 0.02291
1289.62613 0.02286
1288.34036 0.02285
1287.05460 0.02285
1285.76883 0.02283
1284.48306 0.02279
1283.19729 0.02272
1281.91152 0.02264
1280.62575 0.02255
1279.33998 0.02246
1278.05421 0.02239
1276.76845 0.02234
1275.48268 0.02228
1274.19691 0.02220
1272.91114 0.02212
1271.62537 0.02208
1270.33960 0.02206
1269.05383 0.02203
1267.76806 0.02195
1266.48229 0.02183
1265.19653 0.02172
1263.91076 0.02168
1262.62499 0.02170
1261.33922 0.02178
1260.05345 0.02187
1258.76768 0.02196
1257.48191 0.02202
1256.19614 0.02206
1254.91037 0.02207
1253.62461 0.02208
1252.33884 0.02208
1251.05307 0.02210
1249.76730 0.02213
1248.48153 0.02220
1247.19576 0.02228
1245.90999 0.02235
1244.62422 0.02239
1243.33846 0.02242
1242.05269 0.02240
1240.76692 0.02234
1239.48115 0.02228
1238.19538 0.02224
1236.90961 0.02222
1235.62384 0.02219
1234.33807 0.02213
1233.05230 0.02205
1231.76654 0.02197
1230.48077 0.02188
1229.19500 0.02178
1227.90923 0.02169
1226.62346 0.02162
1225.33769 0.02159
1224.05192 0.02157
1222.76615 0.02155
1221.48039 0.02152
1220.19462 0.02145
1218.90885 0.02134
1217.62308 0.02118
1216.33731 0.02103
1215.05154 0.02090
1213.76577 0.02081
1212.48000 0.02078
1211.19423 0.02083
1209.90847 0.02095
1208.62270 0.02109
1207.33693 0.02122
1206.05116 0.02134
1204.76539 0.02147
1203.47962 0.02162
1202.19385 0.02175
1200.90808 0.02178
1199.62232 0.02167
1198.33655 0.02176
1197.05078 0.02184
1195.76501 0.02185
1194.47924 0.02183
1193.19347 0.02179
1191.90770 0.02176
1190.62193 0.02175
1189.33616 0.02174
1188.05040 0.02175
1186.76463 0.02180
1185.47886 0.02187
1184.19309 0.02191
1182.90732 0.02191
1181.62155 0.02192
1180.33578 0.02195
1179.05001 0.02199
1177.76425 0.02204
1176.47848 0.02210
1175.19271 0.02220
1173.90694 0.02232
1172.62117 0.02247
1171.33540 0.02265
1170.04963 0.02286
1168.76386 0.02307
1167.47809 0.02329
1166.19233 0.02349
1164.90656 0.02368
1163.62079 0.02380
1162.33502 0.02383
1161.04925 0.02380
1159.76348 0.02378
1158.47771 0.02385
1157.19194 0.02403
1155.90618 0.02424
1154.62041 0.02439
1153.33464 0.02445
1152.04887 0.02448
1150.76310 0.02454
1149.47733 0.02469
1148.19156 0.02492
1146.90579 0.02519
1145.62002 0.02546
1144.33426 0.02571
1143.04849 0.02597
1141.76272 0.02629
1140.47695 0.02671
1139.19118 0.02719
1137.90541 0.02767
1136.61964 0.02813
1135.33387 0.02860
1134.04811 0.02917
1132.76234 0.02990
1131.47657 0.03080
1130.19080 0.03187
1128.90503 0.03306
1127.61926 0.03429
1126.33349 0.03554
1125.04772 0.03686
1123.76195 0.03830
1122.47619 0.03989
1121.19042 0.04158
1119.90465 0.04331
1118.61888 0.04503
1117.33311 0.04676
1116.04734 0.04848
1114.76157 0.05019
1113.47580 0.05184
1112.19004 0.05347
1110.90427 0.05509
1109.61850 0.05674
1108.33273 0.05841
1107.04696 0.06007
1105.76119 0.06166
1104.47542 0.06317
1103.18965 0.06461
1101.90388 0.06600
1100.61812 0.06737
1099.33235 0.06872
1098.04658 0.07001
1096.76081 0.07124
1095.47504 0.07238
1094.18927 0.07344
1092.90350 0.07445
1091.61773 0.07538
1090.33197 0.07625
1089.04620 0.07706
1087.76043 0.07786
1086.47466 0.07869
1085.18889 0.07955
1083.90312 0.08044
1082.61735 0.08134
1081.33158 0.08226
1080.04581 0.08326
1078.76005 0.08434
1077.47428 0.08546
1076.18851 0.08658
1074.90274 0.08769
1073.61697 0.08884
1072.33120 0.09007
1071.04543 0.09137
1069.75966 0.09270
1068.47390 0.09406
1067.18813 0.09549
1065.90236 0.09701
1064.61659 0.09860
1063.33082 0.10025
1062.04505 0.10192
1060.75928 0.10360
1059.47351 0.10523
1058.18774 0.10676
1056.90198 0.10821
1055.61621 0.10962
1054.33044 0.11102
1053.04467 0.11243
1051.75890 0.11388
1050.47313 0.11536
1049.18736 0.11688
1047.90159 0.11838
1046.61583 0.11982
1045.33006 0.12123
1044.04429 0.12265
1042.75852 0.12413
1041.47275 0.12569
1040.18698 0.12728
1038.90121 0.12890
1037.61544 0.13051
1036.32967 0.13208
1035.04391 0.13357
1033.75814 0.13495
1032.47237 0.13625
1031.18660 0.13750
1029.90083 0.13868
1028.61506 0.13979
1027.32929 0.14080
1026.04352 0.14166
1024.75775 0.14235
1023.47199 0.14291
1022.18622 0.14338
1020.90045 0.14371
1019.61468 0.14385
1018.32891 0.14378
1017.04314 0.14354
1015.75737 0.14316
1014.47160 0.14265
1013.18584 0.14196
1011.90007 0.14103
1010.61430 0.13991
1009.32853 0.13866
1008.04276 0.13732
1006.75699 0.13578
1005.47122 0.13397
1004.18545 0.13190
1002.89968 0.12967
1001.61392 0.12736
1000.32815 0.12497
999.04238 0.12246
997.75661 0.11986
996.47084 0.11725
995.18507 0.11466
993.89930 0.11207
992.61353 0.10944
991.32777 0.10675
990.04200 0.10407
988.75623 0.10148
987.47046 0.09904
986.18469 0.09668
984.89892 0.09433
983.61315 0.09194
982.32738 0.08956
981.04161 0.08728
979.75585 0.08518
978.47008 0.08327
977.18431 0.08152
975.89854 0.07988
974.61277 0.07830
973.32700 0.07677
972.04123 0.07537
970.75546 0.07422
969.46970 0.07339
968.18393 0.07287
966.89816 0.07262
965.61239 0.07258
964.32662 0.07270
963.04085 0.07289
961.75508 0.07303
960.46931 0.07298
959.18354 0.07266
957.89778 0.07204
956.61201 0.07114
955.32624 0.07004
954.04047 0.06882
952.75470 0.06752
951.46893 0.06618
950.18316 0.06488
948.89739 0.06370
947.61163 0.06262
946.32586 0.06158
945.04009 0.06056
943.75432 0.05962
942.46855 0.05873
941.18278 0.05781
939.89701 0.05682
938.61124 0.05580
937.32547 0.05482
936.03971 0.05391
934.75394 0.05308
933.46817 0.05233
932.18240 0.05165
930.89663 0.05099
929.61086 0.05029
928.32509 0.04954
927.03932 0.04875
925.75356 0.04796
924.46779 0.04726
923.18202 0.04667
921.89625 0.04620
920.61048 0.04582
919.32471 0.04544
918.03894 0.04503
916.75317 0.04459
915.46740 0.04416
914.18164 0.04370
912.89587 0.04320
911.61010 0.04269
910.32433 0.04221
909.03856 0.04176
907.75279 0.04134
906.46702 0.04102
905.18125 0.04077
903.89549 0.04050
902.60972 0.04006
901.32395 0.03948
900.03818 0.03891
898.75241 0.03847
897.46664 0.03815
896.18087 0.03791
894.89510 0.03766
893.60933 0.03738
892.32357 0.03705
891.03780 0.03673
889.75203 0.03648
888.46626 0.03638
887.18049 0.03645
885.89472 0.03670
884.60895 0.03721
883.32318 0.03805
882.03742 0.03923
880.75165 0.04061
879.46588 0.04198
878.18011 0.04313
876.89434 0.04406
875.60857 0.04489
874.32280 0.04570
873.03703 0.04640
871.75126 0.04682
870.46550 0.04681
869.17973 0.04640
867.89396 0.04570
866.60819 0.04481
865.32242 0.04378
864.03665 0.04263
862.75088 0.04141
861.46511 0.04019
860.17935 0.03907
858.89358 0.03809
857.60781 0.03725
856.32204 0.03650
855.03627 0.03586
853.75050 0.03534
852.46473 0.03494
851.17896 0.03459
849.89319 0.03418
848.60743 0.03370
847.32166 0.03322
846.03589 0.03282
844.75012 0.03251
843.46435 0.03228
842.17858 0.03209
840.89281 0.03191
839.60704 0.03176
838.32128 0.03161
837.03551 0.03144
835.74974 0.03125
834.46397 0.03105
833.17820 0.03086
831.89243 0.03064
830.60666 0.03036
829.32089 0.03001
828.03512 0.02965
826.74936 0.02935
825.46359 0.02915
824.17782 0.02905
822.89205 0.02904
821.60628 0.02910
820.32051 0.02915
819.03474 0.02909
817.74897 0.02893
816.46321 0.02877
815.17744 0.02875
813.89167 0.02886
812.60590 0.02900
811.32013 0.02905
810.03436 0.02895
808.74859 0.02882
807.46282 0.02882
806.17705 0.02905
804.89129 0.02944
803.60552 0.02983
802.31975 0.03011
801.03398 0.03023
799.74821 0.03028
798.46244 0.03032
797.17667 0.03041
795.89090 0.03051
794.60513 0.03055
793.31937 0.03054
792.03360 0.03051
790.74783 0.03046
789.46206 0.03034
788.17629 0.03014
786.89052 0.02998
785.60475 0.02996
784.31898 0.03007
783.03322 0.03018
781.74745 0.03019
780.46168 0.03015
779.17591 0.03017
777.89014 0.03031
776.60437 0.03047
775.31860 0.03053
774.03283 0.03044
772.74706 0.03028
771.46130 0.03013
770.17553 0.03004
768.88976 0.03002
767.60399 0.03004
766.31822 0.03007
765.03245 0.03007
763.74668 0.02999
762.46091 0.02985
761.17515 0.02971
759.88938 0.02965
758.60361 0.02965
757.31784 0.02968
756.03207 0.02966
754.74630 0.02955
753.46053 0.02939
752.17476 0.02925
750.88899 0.02918
749.60323 0.02918
748.31746 0.02913
747.03169 0.02895
745.74592 0.02871
744.46015 0.02858
743.17438 0.02867
741.88861 0.02895
740.60284 0.02927
739.31708 0.02954
738.03131 0.02967
736.74554 0.02964
735.45977 0.02945
734.17400 0.02915
732.88823 0.02883
731.60246 0.02854
730.31669 0.02836
729.03092 0.02829
727.74516 0.02832
726.45939 0.02836
725.17362 0.02834
723.88785 0.02809
722.60208 0.02826
721.31631 0.02871
720.03054 0.02917
718.74477 0.02953
717.45901 0.02971
716.17324 0.02970
714.88747 0.02950
713.60170 0.02917
712.31593 0.02883
711.03016 0.02856
709.74439 0.02839
708.45862 0.02832
707.17285 0.02828
705.88709 0.02825
704.60132 0.02822
703.31555 0.02818
702.02978 0.02814
700.74401 0.02814
699.45824 0.02821
698.17247 0.02835
696.88670 0.02854
695.60094 0.02870
694.31517 0.02880
693.02940 0.02881
691.74363 0.02876
690.45786 0.02869
689.17209 0.02861
687.88632 0.02850
686.60055 0.02832
685.31478 0.02809
684.02902 0.02788
682.74325 0.02773
681.45748 0.02763
680.17171 0.02751
678.88594 0.02733
677.60017 0.02714
676.31440 0.02703
675.02863 0.02703
673.74287 0.02714
672.45710 0.02729
671.17133 0.02743
669.88556 0.02751
668.59979 0.02732
667.31402 0.02713
666.02825 0.02719
664.74248 0.02699
663.45671 0.02677
662.17095 0.02664
660.88518 0.02656
659.59941 0.02651
658.31364 0.02648
657.02787 0.02647
655.74210 0.02646
654.45633 0.02648
653.17056 0.02653
651.88480 0.02659
650.59903 0.02663
649.31326 0.02664
648.02749 0.02665
646.74172 0.02669
645.45595 0.02677
644.17018 0.02685
642.88441 0.02690
641.59864 0.02691
640.31288 0.02688
639.02711 0.02679
637.74134 0.02665
636.45557 0.02650
635.16980 0.02640
633.88403 0.02634
632.59826 0.02624
631.31249 0.02621
630.02673 0.02715
628.74096 0.02886
627.45519 0.02763
626.16942 0.02959
624.88365 0.03386
623.59788 0.03828
622.31211 0.04193
621.02634 0.04407
619.74057 0.04404
618.45481 0.04189
617.16904 0.03862
615.88327 0.03590
614.59750 0.03532
613.31173 0.03748
612.02596 0.04166
610.74019 0.04651
609.45442 0.05127
608.16866 0.05613
606.88289 0.06131
605.59712 0.06611
604.31135 0.06929
603.02558 0.07018
601.73981 0.06917
600.45404 0.06724
599.16827 0.06513
597.88250 0.06305
596.59674 0.06100
595.31097 0.05908
594.02520 0.05747
592.73943 0.05631
591.45366 0.05559
590.16789 0.05520
588.88212 0.05502
587.59635 0.05500
586.31059 0.05520
585.02482 0.05571
583.73905 0.05654
582.45328 0.05753
581.16751 0.05851
579.88174 0.05943
578.59597 0.06039
577.31020 0.06148
576.02443 0.06265
574.73867 0.06381
573.45290 0.06490
572.16713 0.06609
570.88136 0.06759
569.59559 0.06951
568.30982 0.07167
567.02405 0.07376
565.73828 0.07557
564.45251 0.07706
563.16675 0.07819
561.88098 0.07879
560.59521 0.07861
559.30944 0.07755
558.02367 0.07576
556.73790 0.07355
555.45213 0.07116
554.16636 0.06866
552.88060 0.06609
551.59483 0.06354
550.30906 0.06117
549.02329 0.05910
547.73752 0.05733
546.45175 0.05573
545.16598 0.05420
543.88021 0.05272
542.59444 0.05128
541.30868 0.04993
540.02291 0.04871
538.73714 0.04768
537.45137 0.04686
536.16560 0.04618
534.87983 0.04554
533.59406 0.04486
532.30829 0.04415
531.02253 0.04349
529.73676 0.04293
528.45099 0.04245
527.16522 0.04200
525.87945 0.04154
524.59368 0.04110
523.30791 0.04071
522.02214 0.04031
520.73637 0.03983
519.45061 0.03926
518.16484 0.03867
516.87907 0.03815
515.59330 0.03773
514.30753 0.03734
513.02176 0.03694
511.73599 0.03655
510.45022 0.03621
509.16446 0.03591
507.87869 0.03563
506.59292 0.03531
505.30715 0.03495
504.02138 0.03460
502.73561 0.03426
501.44984 0.03395
500.16407 0.03369
498.87830 0.03347
497.59254 0.03329
496.30677 0.03315
495.02100 0.03306
493.73523 0.03300
492.44946 0.03296
491.16369 0.03285
489.87792 0.03262
488.59215 0.03233
487.30639 0.03211
486.02062 0.03208
484.73485 0.03222
483.44908 0.03245
482.16331 0.03266
480.87754 0.03279
479.59177 0.03284
478.30600 0.03287
477.02023 0.03300
475.73447 0.03328
474.44870 0.03365
473.16293 0.03402
471.87716 0.03433
470.59139 0.03457
469.30562 0.03469
468.01985 0.03467
466.73408 0.03457
465.44832 0.03446
464.16255 0.03433
462.87678 0.03414
461.59101 0.03385
460.30524 0.03346
459.01947 0.03302
457.73370 0.03258
456.44793 0.03216
455.16216 0.03173
453.87640 0.03131
452.59063 0.03096
451.30486 0.03072
450.01909 0.03052
448.73332 0.03026
447.44755 0.02992
446.16178 0.02959
444.87601 0.02937
443.59025 0.02925
442.30448 0.02911
441.01871 0.02887
439.73294 0.02858
438.44717 0.02837
437.16140 0.02827
435.87563 0.02822
434.58986 0.02819
433.30409 0.02816
432.01833 0.02814
430.73256 0.02812
429.44679 0.02804
428.16102 0.02789
426.87525 0.02768
425.58948 0.02748
424.30371 0.02727
423.01794 0.02703
421.73218 0.02675
420.44641 0.02643
419.16064 0.02611
417.87487 0.02580
416.58910 0.02550
415.30333 0.02523
414.01756 0.02502
412.73179 0.02482
411.44602 0.02459
410.16026 0.02427
408.87449 0.02394
407.58872 0.02367
406.30295 0.02353
405.01718 0.02350
403.73141 0.02354
402.44564 0.02358
401.15987 0.02361
399.87411 0.02366
