3997.45528	0.03101
3996.16951	0.03145
3994.88374	0.03215
3993.59798	0.03295
3992.31221	0.03361
3991.02644	0.03389
3989.74067	0.03353
3988.45490	0.03242
3987.16913	0.03089
3985.88336	0.02967
3984.59759	0.02931
3983.31183	0.02985
3982.02606	0.03102
3980.74029	0.03248
3979.45452	0.03389
3978.16875	0.03491
3976.88298	0.03538
3975.59721	0.03531
3974.31144	0.03460
3973.02567	0.03315
3971.73991	0.03127
3970.45414	0.02967
3969.16837	0.02893
3967.88260	0.02916
3966.59683	0.03010
3965.31106	0.03129
3964.02529	0.03215
3962.73952	0.03234
3961.45376	0.03211
3960.16799	0.03205
3958.88222	0.03242
3957.59645	0.03295
3956.31068	0.03333
3955.02491	0.03359
3953.73914	0.03385
3952.45337	0.03407
3951.16760	0.03408
3949.88184	0.03370
3948.59607	0.03280
3947.31030	0.03143
3946.02453	0.02996
3944.73876	0.02894
3943.45299	0.02874
3942.16722	0.02937
3940.88145	0.03048
3939.59569	0.03153
3938.30992	0.03190
3937.02415	0.03126
3935.73838	0.03002
3934.45261	0.02912
3933.16684	0.02932
3931.88107	0.03056
3930.59530	0.03207
3929.30953	0.03301
3928.02377	0.03310
3926.73800	0.03277
3925.45223	0.03260
3924.16646	0.03278
3922.88069	0.03320
3921.59492	0.03362
3920.30915	0.03376
3919.02338	0.03333
3917.73762	0.03232
3916.45185	0.03113
3915.16608	0.03032
3913.88031	0.03013
3912.59454	0.03036
3911.30877	0.03058
3910.02300	0.03054
3908.73723	0.03033
3907.45146	0.03019
3906.16570	0.03017
3904.87993	0.03004
3903.59416	0.02969
3902.30839	0.02944
3901.02262	0.02964
3899.73685	0.03019
3898.45108	0.03060
3897.16531	0.03053
3895.87955	0.02985
3894.59378	0.02862
3893.30801	0.02718
3892.02224	0.02607
3890.73647	0.02568
3889.45070	0.02616
3888.16493	0.02738
3886.87916	0.02883
3885.59339	0.02966
3884.30763	0.02941
3883.02186	0.02858
3881.73609	0.02814
3880.45032	0.02866
3879.16455	0.02987
3877.87878	0.03103
3876.59301	0.03156
3875.30724	0.03146
3874.02148	0.03124
3872.73571	0.03140
3871.44994	0.03179
3870.16417	0.03156
3868.87840	0.03014
3867.59263	0.02813
3866.30686	0.02657
3865.02109	0.02593
3863.73532	0.02604
3862.44956	0.02661
3861.16379	0.02743
3859.87802	0.02822
3858.59225	0.02877
3857.30648	0.02922
3856.02071	0.02982
3854.73494	0.03049
3853.44917	0.03070
3852.16341	0.03023
3850.87764	0.02953
3849.59187	0.02920
3848.30610	0.02935
3847.02033	0.02968
3845.73456	0.02979
3844.44879	0.02955
3843.16302	0.02913
3841.87725	0.02877
3840.59149	0.02866
3839.30572	0.02873
3838.01995	0.02867
3836.73418	0.02824
3835.44841	0.02762
3834.16264	0.02723
3832.87687	0.02726
3831.59110	0.02757
3830.30534	0.02804
3829.01957	0.02869
3827.73380	0.02948
3826.44803	0.03015
3825.16226	0.03040
3823.87649	0.03016
3822.59072	0.02949
3821.30495	0.02841
3820.01918	0.02718
3818.73342	0.02641
3817.44765	0.02650
3816.16188	0.02715
3814.87611	0.02776
3813.59034	0.02814
3812.30457	0.02835
3811.01880	0.02845
3809.73303	0.02860
3808.44726	0.02896
3807.16150	0.02945
3805.87573	0.02986
3804.58996	0.03021
3803.30419	0.03040
3802.01842	0.03002
3800.73265	0.02884
3799.44688	0.02740
3798.16111	0.02661
3796.87535	0.02666
3795.58958	0.02710
3794.30381	0.02751
3793.01804	0.02779
3791.73227	0.02803
3790.44650	0.02828
3789.16073	0.02861
3787.87496	0.02911
3786.58919	0.02978
3785.30343	0.03040
3784.01766	0.03067
3782.73189	0.03045
3781.44612	0.02984
3780.16035	0.02900
3778.87458	0.02818
3777.58881	0.02774
3776.30304	0.02786
3775.01728	0.02819
3773.73151	0.02811
3772.44574	0.02744
3771.15997	0.02663
3769.87420	0.02632
3768.58843	0.02671
3767.30266	0.02756
3766.01689	0.02836
3764.73112	0.02873
3763.44536	0.02865
3762.15959	0.02833
3760.87382	0.02797
3759.58805	0.02764
3758.30228	0.02739
3757.01651	0.02712
3755.73074	0.02677
3754.44497	0.02642
3753.15921	0.02617
3751.87344	0.02609
3750.58767	0.02622
3749.30190	0.02645
3748.01613	0.02657
3746.73036	0.02651
3745.44459	0.02612
3744.15882	0.02523
3742.87305	0.02430
3741.58729	0.02412
3740.30152	0.02475
3739.01575	0.02558
3737.72998	0.02619
3736.44421	0.02649
3735.15844	0.02664
3733.87267	0.02699
3732.58690	0.02768
3731.30114	0.02853
3730.01537	0.02932
3728.72960	0.03003
3727.44383	0.03048
3726.15806	0.03030
3724.87229	0.02946
3723.58652	0.02829
3722.30075	0.02714
3721.01498	0.02608
3719.72922	0.02514
3718.44345	0.02444
3717.15768	0.02420
3715.87191	0.02457
3714.58614	0.02558
3713.30037	0.02687
3712.01460	0.02787
3710.72883	0.02827
3709.44307	0.02817
3708.15730	0.02793
3706.87153	0.02758
3705.58576	0.02688
3704.29999	0.02570
3703.01422	0.02435
3701.72845	0.02341
3700.44268	0.02307
3699.15691	0.02299
3697.87115	0.02306
3696.58538	0.02361
3695.29961	0.02488
3694.01384	0.02657
3692.72807	0.02805
3691.44230	0.02884
3690.15653	0.02895
3688.87076	0.02865
3687.58500	0.02813
3686.29923	0.02752
3685.01346	0.02703
3683.72769	0.02665
3682.44192	0.02609
3681.15615	0.02531
3679.87038	0.02456
3678.58461	0.02440
3677.29884	0.02524
3676.01308	0.02666
3674.72731	0.02787
3673.44154	0.02871
3672.15577	0.02943
3670.87000	0.02993
3669.58423	0.02982
3668.29846	0.02921
3667.01269	0.02861
3665.72693	0.02825
3664.44116	0.02793
3663.15539	0.02742
3661.86962	0.02664
3660.58385	0.02577
3659.29808	0.02524
3658.01231	0.02548
3656.72654	0.02649
3655.44077	0.02762
3654.15501	0.02813
3652.86924	0.02785
3651.58347	0.02734
3650.29770	0.02733
3649.01193	0.02802
3647.72616	0.02899
3646.44039	0.02966
3645.15462	0.02995
3643.86886	0.03023
3642.58309	0.03078
3641.29732	0.03140
3640.01155	0.03150
3638.72578	0.03064
3637.44001	0.02901
3636.15424	0.02734
3634.86847	0.02628
3633.58270	0.02585
3632.29694	0.02578
3631.01117	0.02592
3629.72540	0.02625
3628.43963	0.02671
3627.15386	0.02735
3625.86809	0.02818
3624.58232	0.02891
3623.29655	0.02920
3622.01079	0.02916
3620.72502	0.02913
3619.43925	0.02924
3618.15348	0.02945
3616.86771	0.02975
3615.58194	0.03019
3614.29617	0.03063
3613.01040	0.03093
3611.72463	0.03134
3610.43887	0.03219
3609.15310	0.03334
3607.86733	0.03408
3606.58156	0.03388
3605.29579	0.03290
3604.01002	0.03182
3602.72425	0.03125
3601.43848	0.03134
3600.15272	0.03173
3598.86695	0.03192
3597.58118	0.03168
3596.29541	0.03125
3595.00964	0.03105
3593.72387	0.03130
3592.43810	0.03190
3591.15233	0.03248
3589.86656	0.03269
3588.58080	0.03242
3587.29503	0.03180
3586.00926	0.03110
3584.72349	0.03063
3583.43772	0.03060
3582.15195	0.03082
3580.86618	0.03081
3579.58041	0.03036
3578.29464	0.02972
3577.00888	0.02940
3575.72311	0.02974
3574.43734	0.03065
3573.15157	0.03173
3571.86580	0.03246
3570.58003	0.03254
3569.29426	0.03212
3568.00849	0.03171
3566.72273	0.03189
3565.43696	0.03277
3564.15119	0.03383
3562.86542	0.03427
3561.57965	0.03374
3560.29388	0.03265
3559.00811	0.03177
3557.72234	0.03165
3556.43657	0.03230
3555.15081	0.03329
3553.86504	0.03409
3552.57927	0.03441
3551.29350	0.03440
3550.00773	0.03444
3548.72196	0.03471
3547.43619	0.03508
3546.15042	0.03531
3544.86466	0.03536
3543.57889	0.03533
3542.29312	0.03528
3541.00735	0.03518
3539.72158	0.03506
3538.43581	0.03499
3537.15004	0.03497
3535.86427	0.03500
3534.57850	0.03519
3533.29274	0.03576
3532.00697	0.03666
3530.72120	0.03746
3529.43543	0.03775
3528.14966	0.03755
3526.86389	0.03726
3525.57812	0.03712
3524.29235	0.03704
3523.00659	0.03695
3521.72082	0.03700
3520.43505	0.03732
3519.14928	0.03773
3517.86351	0.03792
3516.57774	0.03779
3515.29197	0.03753
3514.00620	0.03735
3512.72043	0.03719
3511.43467	0.03686
3510.14890	0.03626
3508.86313	0.03560
3507.57736	0.03529
3506.29159	0.03555
3505.00582	0.03620
3503.72005	0.03680
3502.43428	0.03712
3501.14852	0.03732
3499.86275	0.03761
3498.57698	0.03805
3497.29121	0.03854
3496.00544	0.03893
3494.71967	0.03907
3493.43390	0.03881
3492.14813	0.03820
3490.86236	0.03764
3489.57660	0.03760
3488.29083	0.03808
3487.00506	0.03860
3485.71929	0.03877
3484.43352	0.03857
3483.14775	0.03829
3481.86198	0.03820
3480.57621	0.03840
3479.29045	0.03882
3478.00468	0.03922
3476.71891	0.03938
3475.43314	0.03929
3474.14737	0.03907
3472.86160	0.03885
3471.57583	0.03859
3470.29006	0.03834
3469.00429	0.03820
3467.71853	0.03834
3466.43276	0.03880
3465.14699	0.03949
3463.86122	0.04021
3462.57545	0.04075
3461.28968	0.04109
3460.00391	0.04129
3458.71814	0.04143
3457.43238	0.04153
3456.14661	0.04161
3454.86084	0.04168
3453.57507	0.04168
3452.28930	0.04150
3451.00353	0.04108
3449.71776	0.04052
3448.43199	0.04006
3447.14622	0.03983
3445.86046	0.03976
3444.57469	0.03978
3443.28892	0.03998
3442.00315	0.04044
3440.71738	0.04102
3439.43161	0.04134
3438.14584	0.04125
3436.86007	0.04097
3435.57431	0.04089
3434.28854	0.04112
3433.00277	0.04137
3431.71700	0.04133
3430.43123	0.04098
3429.14546	0.04062
3427.85969	0.04051
3426.57392	0.04057
3425.28815	0.04053
3424.00239	0.04023
3422.71662	0.03985
3421.43085	0.03976
3420.14508	0.04021
3418.85931	0.04107
3417.57354	0.04182
3416.28777	0.04193
3415.00200	0.04131
3413.71624	0.04046
3412.43047	0.04003
3411.14470	0.04036
3409.85893	0.04126
3408.57316	0.04223
3407.28739	0.04280
3406.00162	0.04280
3404.71585	0.04247
3403.43008	0.04226
3402.14432	0.04246
3400.85855	0.04297
3399.57278	0.04340
3398.28701	0.04346
3397.00124	0.04318
3395.71547	0.04278
3394.42970	0.04243
3393.14393	0.04214
3391.85817	0.04204
3390.57240	0.04233
3389.28663	0.04306
3388.00086	0.04387
3386.71509	0.04426
3385.42932	0.04409
3384.14355	0.04371
3382.85778	0.04360
3381.57201	0.04381
3380.28625	0.04397
3379.00048	0.04372
3377.71471	0.04311
3376.42894	0.04242
3375.14317	0.04195
3373.85740	0.04185
3372.57163	0.04209
3371.28586	0.04244
3370.00010	0.04263
3368.71433	0.04261
3367.42856	0.04254
3366.14279	0.04268
3364.85702	0.04315
3363.57125	0.04382
3362.28548	0.04433
3360.99971	0.04437
3359.71394	0.04393
3358.42818	0.04336
3357.14241	0.04294
3355.85664	0.04270
3354.57087	0.04255
3353.28510	0.04251
3351.99933	0.04281
3350.71356	0.04355
3349.42779	0.04447
3348.14202	0.04511
3346.85626	0.04508
3345.57049	0.04442
3344.28472	0.04348
3342.99895	0.04271
3341.71318	0.04236
3340.42741	0.04247
3339.14164	0.04284
3337.85587	0.04319
3336.57011	0.04327
3335.28434	0.04306
3333.99857	0.04267
3332.71280	0.04222
3331.42703	0.04174
3330.14126	0.04131
3328.85549	0.04112
3327.56972	0.04138
3326.28395	0.04200
3324.99819	0.04264
3323.71242	0.04297
3322.42665	0.04290
3321.14088	0.04258
3319.85511	0.04221
3318.56934	0.04187
3317.28357	0.04162
3315.99780	0.04148
3314.71204	0.04144
3313.42627	0.04147
3312.14050	0.04162
3310.85473	0.04195
3309.56896	0.04242
3308.28319	0.04294
3306.99742	0.04344
3305.71165	0.04392
3304.42588	0.04431
3303.14012	0.04438
3301.85435	0.04388
3300.56858	0.04290
3299.28281	0.04191
3297.99704	0.04144
3296.71127	0.04171
3295.42550	0.04247
3294.13973	0.04325
3292.85397	0.04375
3291.56820	0.04389
3290.28243	0.04377
3288.99666	0.04347
3287.71089	0.04301
3286.42512	0.04243
3285.13935	0.04183
3283.85358	0.04138
3282.56781	0.04119
3281.28205	0.04115
3279.99628	0.04108
3278.71051	0.04089
3277.42474	0.04074
3276.13897	0.04080
3274.85320	0.04100
3273.56743	0.04112
3272.28166	0.04114
3270.99590	0.04123
3269.71013	0.04150
3268.42436	0.04177
3267.13859	0.04185
3265.85282	0.04175
3264.56705	0.04166
3263.28128	0.04163
3261.99551	0.04150
3260.70974	0.04119
3259.42398	0.04089
3258.13821	0.04091
3256.85244	0.04134
3255.56667	0.04195
3254.28090	0.04240
3252.99513	0.04246
3251.70936	0.04217
3250.42359	0.04177
3249.13783	0.04152
3247.85206	0.04150
3246.56629	0.04159
3245.28052	0.04160
3243.99475	0.04136
3242.70898	0.04091
3241.42321	0.04046
3240.13744	0.04037
3238.85167	0.04068
3237.56591	0.04107
3236.28014	0.04115
3234.99437	0.04088
3233.70860	0.04059
3232.42283	0.04055
3231.13706	0.04074
3229.85129	0.04088
3228.56552	0.04076
3227.27976	0.04042
3225.99399	0.04006
3224.70822	0.03985
3223.42245	0.03982
3222.13668	0.03991
3220.85091	0.04006
3219.56514	0.04012
3218.27937	0.03997
3216.99360	0.03969
3215.70784	0.03958
3214.42207	0.03982
3213.13630	0.04027
3211.85053	0.04065
3210.56476	0.04078
3209.27899	0.04064
3207.99322	0.04029
3206.70745	0.03978
3205.42169	0.03927
3204.13592	0.03893
3202.85015	0.03876
3201.56438	0.03863
3200.27861	0.03843
3198.99284	0.03819
3197.70707	0.03806
3196.42130	0.03819
3195.13553	0.03853
3193.84977	0.03881
3192.56400	0.03882
3191.27823	0.03860
3189.99246	0.03832
3188.70669	0.03816
3187.42092	0.03815
3186.13515	0.03827
3184.84938	0.03843
3183.56362	0.03849
3182.27785	0.03842
3180.99208	0.03827
3179.70631	0.03813
3178.42054	0.03803
3177.13477	0.03794
3175.84900	0.03780
3174.56323	0.03763
3173.27746	0.03756
3171.99170	0.03768
3170.70593	0.03795
3169.42016	0.03818
3168.13439	0.03822
3166.84862	0.03809
3165.56285	0.03795
3164.27708	0.03792
3162.99131	0.03799
3161.70555	0.03805
3160.41978	0.03805
3159.13401	0.03797
3157.84824	0.03790
3156.56247	0.03792
3155.27670	0.03812
3153.99093	0.03845
3152.70516	0.03862
3151.41939	0.03843
3150.13363	0.03798
3148.84786	0.03766
3147.56209	0.03769
3146.27632	0.03787
3144.99055	0.03779
3143.70478	0.03726
3142.41901	0.03649
3141.13324	0.03584
3139.84748	0.03559
3138.56171	0.03573
3137.27594	0.03605
3135.99017	0.03634
3134.70440	0.03651
3133.41863	0.03664
3132.13286	0.03688
3130.84709	0.03727
3129.56132	0.03769
3128.27556	0.03787
3126.98979	0.03760
3125.70402	0.03693
3124.41825	0.03614
3123.13248	0.03552
3121.84671	0.03514
3120.56094	0.03489
3119.27517	0.03472
3117.98940	0.03466
3116.70364	0.03471
3115.41787	0.03484
3114.13210	0.03501
3112.84633	0.03528
3111.56056	0.03568
3110.27479	0.03613
3108.98902	0.03640
3107.70325	0.03618
3106.41749	0.03544
3105.13172	0.03460
3103.84595	0.03424
3102.56018	0.03457
3101.27441	0.03523
3099.98864	0.03566
3098.70287	0.03558
3097.41710	0.03517
3096.13133	0.03477
3094.84557	0.03458
3093.55980	0.03461
3092.27403	0.03478
3090.98826	0.03504
3089.70249	0.03531
3088.41672	0.03544
3087.13095	0.03533
3085.84518	0.03507
3084.55942	0.03484
3083.27365	0.03474
3081.98788	0.03472
3080.70211	0.03476
3079.41634	0.03487
3078.13057	0.03506
3076.84480	0.03524
3075.55903	0.03543
3074.27326	0.03564
3072.98750	0.03585
3071.70173	0.03596
3070.41596	0.03585
3069.13019	0.03554
3067.84442	0.03509
3066.55865	0.03459
3065.27288	0.03415
3063.98711	0.03381
3062.70135	0.03354
3061.41558	0.03333
3060.12981	0.03320
3058.84404	0.03320
3057.55827	0.03330
3056.27250	0.03340
3054.98673	0.03343
3053.70096	0.03340
3052.41519	0.03338
3051.12943	0.03349
3049.84366	0.03377
3048.55789	0.03417
3047.27212	0.03446
3045.98635	0.03446
3044.70058	0.03414
3043.41481	0.03364
3042.12904	0.03313
3040.84328	0.03269
3039.55751	0.03241
3038.27174	0.03235
3036.98597	0.03248
3035.70020	0.03265
3034.41443	0.03272
3033.12866	0.03264
3031.84289	0.03255
3030.55712	0.03256
3029.27136	0.03270
3027.98559	0.03284
3026.69982	0.03279
3025.41405	0.03250
3024.12828	0.03212
3022.84251	0.03194
3021.55674	0.03209
3020.27097	0.03242
3018.98521	0.03265
3017.69944	0.03257
3016.41367	0.03222
3015.12790	0.03182
3013.84213	0.03156
3012.55636	0.03151
3011.27059	0.03160
3009.98482	0.03173
3008.69905	0.03183
3007.41329	0.03189
3006.12752	0.03191
3004.84175	0.03182
3003.55598	0.03155
3002.27021	0.03110
3000.98444	0.03062
2999.69867	0.03033
2998.41290	0.03039
2997.12714	0.03071
2995.84137	0.03111
2994.55560	0.03140
2993.26983	0.03146
2991.98406	0.03132
2990.69829	0.03116
2989.41252	0.03117
2988.12675	0.03132
2986.84098	0.03136
2985.55522	0.03118
2984.26945	0.03099
2982.98368	0.03108
2981.69791	0.03145
2980.41214	0.03177
2979.12637	0.03174
2977.84060	0.03134
2976.55483	0.03074
2975.26907	0.03019
2973.98330	0.02998
2972.69753	0.03028
2971.41176	0.03104
2970.12599	0.03189
2968.84022	0.03245
2967.55445	0.03252
2966.26868	0.03220
2964.98291	0.03176
2963.69715	0.03146
2962.41138	0.03142
2961.12561	0.03161
2959.83984	0.03189
2958.55407	0.03216
2957.26830	0.03233
2955.98253	0.03238
2954.69676	0.03227
2953.41100	0.03205
2952.12523	0.03181
2950.83946	0.03166
2949.55369	0.03163
2948.26792	0.03174
2946.98215	0.03197
2945.69638	0.03223
2944.41061	0.03241
2943.12484	0.03242
2941.83908	0.03227
2940.55331	0.03207
2939.26754	0.03199
2937.98177	0.03220
2936.69600	0.03267
2935.41023	0.03311
2934.12446	0.03319
2932.83869	0.03284
2931.55293	0.03233
2930.26716	0.03199
2928.98139	0.03195
2927.69562	0.03209
2926.40985	0.03225
2925.12408	0.03240
2923.83831	0.03253
2922.55254	0.03258
2921.26677	0.03246
2919.98101	0.03220
2918.69524	0.03200
2917.40947	0.03195
2916.12370	0.03199
2914.83793	0.03202
2913.55216	0.03205
2912.26639	0.03217
2910.98062	0.03229
2909.69486	0.03219
2908.40909	0.03174
2907.12332	0.03114
2905.83755	0.03068
2904.55178	0.03048
2903.26601	0.03043
2901.98024	0.03035
2900.69447	0.03025
2899.40870	0.03026
2898.12294	0.03043
2896.83717	0.03064
2895.55140	0.03072
2894.26563	0.03058
2892.97986	0.03033
2891.69409	0.03005
2890.40832	0.02975
2889.12255	0.02943
2887.83678	0.02910
2886.55102	0.02888
2885.26525	0.02891
2883.97948	0.02916
2882.69371	0.02948
2881.40794	0.02972
2880.12217	0.02985
2878.83640	0.02994
2877.55063	0.02996
2876.26487	0.02985
2874.97910	0.02966
2873.69333	0.02954
2872.40756	0.02955
2871.12179	0.02962
2869.83602	0.02959
2868.55025	0.02937
2867.26448	0.02906
2865.97871	0.02888
2864.69295	0.02895
2863.40718	0.02913
2862.12141	0.02915
2860.83564	0.02889
2859.54987	0.02845
2858.26410	0.02800
2856.97833	0.02760
2855.69256	0.02728
2854.40680	0.02712
2853.12103	0.02722
2851.83526	0.02751
2850.54949	0.02776
2849.26372	0.02777
2847.97795	0.02757
2846.69218	0.02731
2845.40641	0.02721
2844.12064	0.02734
2842.83488	0.02759
2841.54911	0.02769
2840.26334	0.02746
2838.97757	0.02703
2837.69180	0.02672
2836.40603	0.02675
2835.12026	0.02703
2833.83449	0.02722
2832.54873	0.02708
2831.26296	0.02667
2829.97719	0.02626
2828.69142	0.02612
2827.40565	0.02627
2826.11988	0.02654
2824.83411	0.02671
2823.54834	0.02661
2822.26257	0.02627
2820.97681	0.02593
2819.69104	0.02586
2818.40527	0.02607
2817.11950	0.02633
2815.83373	0.02635
2814.54796	0.02608
2813.26219	0.02570
2811.97642	0.02539
2810.69066	0.02521
2809.40489	0.02513
2808.11912	0.02510
2806.83335	0.02510
2805.54758	0.02511
2804.26181	0.02515
2802.97604	0.02522
2801.69027	0.02534
2800.40450	0.02548
2799.11874	0.02558
2797.83297	0.02555
2796.54720	0.02539
2795.26143	0.02511
2793.97566	0.02484
2792.68989	0.02466
2791.40412	0.02458
2790.11835	0.02451
2788.83259	0.02433
2787.54682	0.02405
2786.26105	0.02383
2784.97528	0.02388
2783.68951	0.02420
2782.40374	0.02462
2781.11797	0.02490
2779.83220	0.02493
2778.54643	0.02480
2777.26067	0.02459
2775.97490	0.02431
2774.68913	0.02403
2773.40336	0.02387
2772.11759	0.02395
2770.83182	0.02420
2769.54605	0.02440
2768.26028	0.02443
2766.97452	0.02432
2765.68875	0.02415
2764.40298	0.02400
2763.11721	0.02390
2761.83144	0.02387
2760.54567	0.02388
2759.25990	0.02390
2757.97413	0.02397
2756.68836	0.02415
2755.40260	0.02441
2754.11683	0.02462
2752.83106	0.02467
2751.54529	0.02456
2750.25952	0.02439
2748.97375	0.02426
2747.68798	0.02421
2746.40221	0.02415
2745.11645	0.02398
2743.83068	0.02371
2742.54491	0.02345
2741.25914	0.02332
2739.97337	0.02336
2738.68760	0.02354
2737.40183	0.02377
2736.11606	0.02395
2734.83029	0.02402
2733.54453	0.02398
2732.25876	0.02387
2730.97299	0.02369
2729.68722	0.02352
2728.40145	0.02350
2727.11568	0.02367
2725.82991	0.02385
2724.54414	0.02381
2723.25838	0.02351
2721.97261	0.02314
2720.68684	0.02297
2719.40107	0.02304
2718.11530	0.02319
2716.82953	0.02318
2715.54376	0.02295
2714.25799	0.02265
2712.97222	0.02252
2711.68646	0.02257
2710.40069	0.02267
2709.11492	0.02272
2707.82915	0.02275
2706.54338	0.02284
2705.25761	0.02296
2703.97184	0.02298
2702.68607	0.02286
2701.40031	0.02269
2700.11454	0.02259
2698.82877	0.02258
2697.54300	0.02260
2696.25723	0.02262
2694.97146	0.02265
2693.68569	0.02270
2692.39992	0.02276
2691.11415	0.02281
2689.82839	0.02276
2688.54262	0.02254
2687.25685	0.02220
2685.97108	0.02188
2684.68531	0.02173
2683.39954	0.02180
2682.11377	0.02207
2680.82800	0.02240
2679.54224	0.02264
2678.25647	0.02272
2676.97070	0.02269
2675.68493	0.02258
2674.39916	0.02242
2673.11339	0.02219
2671.82762	0.02199
2670.54185	0.02189
2669.25608	0.02189
2667.97032	0.02193
2666.68455	0.02195
2665.39878	0.02199
2664.11301	0.02206
2662.82724	0.02213
2661.54147	0.02212
2660.25570	0.02200
2658.96993	0.02187
2657.68417	0.02183
2656.39840	0.02194
2655.11263	0.02215
2653.82686	0.02224
2652.54109	0.02205
2651.25532	0.02162
2649.96955	0.02122
2648.68378	0.02107
2647.39801	0.02117
2646.11225	0.02131
2644.82648	0.02131
2643.54071	0.02117
2642.25494	0.02100
2640.96917	0.02097
2639.68340	0.02106
2638.39763	0.02115
2637.11186	0.02113
2635.82609	0.02105
2634.54033	0.02101
2633.25456	0.02102
2631.96879	0.02099
2630.68302	0.02085
2629.39725	0.02061
2628.11148	0.02030
2626.82571	0.01999
2625.53994	0.01971
2624.25418	0.01959
2622.96841	0.01966
2621.68264	0.01984
2620.39687	0.01995
2619.11110	0.01991
2617.82533	0.01979
2616.53956	0.01969
2615.25379	0.01959
2613.96802	0.01940
2612.68226	0.01918
2611.39649	0.01908
2610.11072	0.01916
2608.82495	0.01922
2607.53918	0.01900
2606.25341	0.01839
2604.96764	0.01751
2603.68187	0.01673
2602.39611	0.01643
2601.11034	0.01682
2599.82457	0.01773
2598.53880	0.01869
2597.25303	0.01932
2595.96726	0.01947
2594.68149	0.01929
2593.39572	0.01891
2592.10995	0.01838
2590.82419	0.01779
2589.53842	0.01737
2588.25265	0.01738
2586.96688	0.01776
2585.68111	0.01809
2584.39534	0.01807
2583.10957	0.01783
2581.82380	0.01778
2580.53804	0.01804
2579.25227	0.01830
2577.96650	0.01814
2576.68073	0.01750
2575.39496	0.01676
2574.10919	0.01634
2572.82342	0.01642
2571.53765	0.01675
2570.25188	0.01701
2568.96612	0.01702
2567.68035	0.01685
2566.39458	0.01671
2565.10881	0.01675
2563.82304	0.01696
2562.53727	0.01712
2561.25150	0.01703
2559.96573	0.01668
2558.67997	0.01621
2557.39420	0.01583
2556.10843	0.01572
2554.82266	0.01598
2553.53689	0.01656
2552.25112	0.01726
2550.96535	0.01782
2549.67958	0.01810
2548.39381	0.01817
2547.10805	0.01823
2545.82228	0.01839
2544.53651	0.01851
2543.25074	0.01834
2541.96497	0.01787
2540.67920	0.01741
2539.39343	0.01729
2538.10766	0.01754
2536.82190	0.01784
2535.53613	0.01791
2534.25036	0.01770
2532.96459	0.01737
2531.67882	0.01710
2530.39305	0.01694
2529.10728	0.01683
2527.82151	0.01680
2526.53574	0.01699
2525.24998	0.01738
2523.96421	0.01768
2522.67844	0.01760
2521.39267	0.01724
2520.10690	0.01700
2518.82113	0.01711
2517.53536	0.01739
2516.24959	0.01749
2514.96383	0.01724
2513.67806	0.01675
2512.39229	0.01627
2511.10652	0.01604
2509.82075	0.01613
2508.53498	0.01640
2507.24921	0.01662
2505.96344	0.01673
2504.67767	0.01677
2503.39191	0.01676
2502.10614	0.01660
2500.82037	0.01624
2499.53460	0.01586
2498.24883	0.01571
2496.96306	0.01584
2495.67729	0.01607
2494.39152	0.01617
2493.10576	0.01610
2491.81999	0.01601
2490.53422	0.01610
2489.24845	0.01634
2487.96268	0.01653
2486.67691	0.01642
2485.39114	0.01605
2484.10537	0.01572
2482.81960	0.01566
2481.53384	0.01586
2480.24807	0.01600
2478.96230	0.01581
2477.67653	0.01537
2476.39076	0.01512
2475.10499	0.01541
2473.81922	0.01620
2472.53345	0.01707
2471.24769	0.01762
2469.96192	0.01767
2468.67615	0.01728
2467.39038	0.01663
2466.10461	0.01598
2464.81884	0.01560
2463.53307	0.01558
2462.24730	0.01580
2460.96153	0.01610
2459.67577	0.01635
2458.39000	0.01649
2457.10423	0.01655
2455.81846	0.01657
2454.53269	0.01660
2453.24692	0.01653
2451.96115	0.01624
2450.67538	0.01578
2449.38962	0.01541
2448.10385	0.01534
2446.81808	0.01549
2445.53231	0.01561
2444.24654	0.01567
2442.96077	0.01570
2441.67500	0.01566
2440.38923	0.01540
2439.10346	0.01498
2437.81770	0.01466
2436.53193	0.01464
2435.24616	0.01490
2433.96039	0.01518
2432.67462	0.01523
2431.38885	0.01504
2430.10308	0.01480
2428.81731	0.01464
2427.53155	0.01449
2426.24578	0.01435
2424.96001	0.01434
2423.67424	0.01454
2422.38847	0.01487
2421.10270	0.01514
2419.81693	0.01532
2418.53116	0.01543
2417.24539	0.01554
2415.95963	0.01563
2414.67386	0.01565
2413.38809	0.01551
2412.10232	0.01513
2410.81655	0.01459
2409.53078	0.01404
2408.24501	0.01368
2406.95924	0.01362
2405.67347	0.01383
2404.38771	0.01419
2403.10194	0.01461
2401.81617	0.01509
2400.53040	0.01559
2399.24463	0.01598
2397.95886	0.01611
2396.67309	0.01600
2395.38732	0.01574
2394.10156	0.01544
2392.81579	0.01512
2391.53002	0.01481
2390.24425	0.01458
2388.95848	0.01453
2387.67271	0.01466
2386.38694	0.01490
2385.10117	0.01517
2383.81540	0.01541
2382.52964	0.01554
2381.24387	0.01549
2379.95810	0.01527
2378.67233	0.01494
2377.38656	0.01461
2376.10079	0.01433
2374.81502	0.01411
2373.52925	0.01404
2372.24349	0.01412
2370.95772	0.01444
2369.67195	0.01465
2368.38618	0.01465
2367.10041	0.01449
2365.81464	0.01435
2364.52887	0.01402
2363.24310	0.01370
2361.95733	0.01354
2360.67157	0.01364
2359.38580	0.01356
2358.10003	0.01347
2356.81426	0.01353
2355.52849	0.01377
2354.24272	0.01415
2352.95695	0.01449
2351.67118	0.01495
2350.38542	0.01552
2349.09965	0.01572
2347.81388	0.01534
2346.52811	0.01517
2345.24234	0.01540
2343.95657	0.01552
2342.67080	0.01516
2341.38503	0.01499
2340.09926	0.01520
2338.81350	0.01480
2337.52773	0.01379
2336.24196	0.01348
2334.95619	0.01384
2333.67042	0.01362
2332.38465	0.01288
2331.09888	0.01345
2329.81311	0.01429
2328.52735	0.01379
2327.24158	0.01427
2325.95581	0.01520
2324.67004	0.01473
2323.38427	0.01472
2322.09850	0.01546
2320.81273	0.01503
2319.52696	0.01514
2318.24119	0.01566
2316.95543	0.01536
2315.66966	0.01542
2314.38389	0.01548
2313.09812	0.01506
2311.81235	0.01509
2310.52658	0.01497
2309.24081	0.01477
2307.95504	0.01466
2306.66928	0.01425
2305.38351	0.01408
2304.09774	0.01400
2302.81197	0.01391
2301.52620	0.01400
2300.24043	0.01421
2298.95466	0.01470
2297.66889	0.01521
2296.38312	0.01549
2295.09736	0.01540
2293.81159	0.01502
2292.52582	0.01473
2291.24005	0.01471
2289.95428	0.01493
2288.66851	0.01515
2287.38274	0.01523
2286.09697	0.01522
2284.81121	0.01513
2283.52544	0.01488
2282.23967	0.01434
2280.95390	0.01368
2279.66813	0.01318
2278.38236	0.01303
2277.09659	0.01305
2275.81082	0.01292
2274.52505	0.01253
2273.23929	0.01203
2271.95352	0.01166
2270.66775	0.01149
2269.38198	0.01143
2268.09621	0.01140
2266.81044	0.01147
2265.52467	0.01173
2264.23890	0.01216
2262.95314	0.01266
2261.66737	0.01308
2260.38160	0.01327
2259.09583	0.01319
2257.81006	0.01295
2256.52429	0.01273
2255.23852	0.01265
2253.95275	0.01273
2252.66698	0.01278
2251.38122	0.01264
2250.09545	0.01229
2248.80968	0.01178
2247.52391	0.01116
2246.23814	0.01067
2244.95237	0.01050
2243.66660	0.01071
2242.38083	0.01117
2241.09507	0.01156
2239.80930	0.01155
2238.52353	0.01111
2237.23776	0.01048
2235.95199	0.00995
2234.66622	0.00972
2233.38045	0.00988
2232.09468	0.01040
2230.80891	0.01098
2229.52315	0.01123
2228.23738	0.01103
2226.95161	0.01067
2225.66584	0.01051
2224.38007	0.01057
2223.09430	0.01058
2221.80853	0.01034
2220.52276	0.00986
2219.23700	0.00920
2217.95123	0.00838
2216.66546	0.00743
2215.37969	0.00659
2214.09392	0.00621
2212.80815	0.00649
2211.52238	0.00720
2210.23661	0.00776
2208.95084	0.00776
2207.66508	0.00730
2206.37931	0.00685
2205.09354	0.00664
2203.80777	0.00660
2202.52200	0.00659
2201.23623	0.00656
2199.95046	0.00654
2198.66469	0.00665
2197.37893	0.00698
2196.09316	0.00730
2194.80739	0.00712
2193.52162	0.00643
2192.23585	0.00615
2190.95008	0.00725
2189.66431	0.00959
2188.37854	0.01192
2187.09277	0.01308
2185.80701	0.01265
2184.52124	0.01092
2183.23547	0.00868
2181.94970	0.00692
2180.66393	0.00629
2179.37816	0.00670
2178.09239	0.00762
2176.80662	0.00863
2175.52085	0.00970
2174.23509	0.01086
2172.94932	0.01192
2171.66355	0.01235
2170.37778	0.01154
2169.09201	0.00944
2167.80624	0.00676
2166.52047	0.00465
2165.23470	0.00386
2163.94894	0.00427
2162.66317	0.00508
2161.37740	0.00550
2160.09163	0.00540
2158.80586	0.00528
2157.52009	0.00567
2156.23432	0.00644
2154.94855	0.00717
2153.66278	0.00771
2152.37702	0.00817
2151.09125	0.00845
2149.80548	0.00815
2148.51971	0.00712
2147.23394	0.00587
2145.94817	0.00501
2144.66240	0.00464
2143.37663	0.00440
2142.09087	0.00420
2140.80510	0.00436
2139.51933	0.00508
2138.23356	0.00607
2136.94779	0.00687
2135.66202	0.00715
2134.37625	0.00698
2133.09048	0.00677
2131.80471	0.00697
2130.51895	0.00753
2129.23318	0.00788
2127.94741	0.00756
2126.66164	0.00683
2125.37587	0.00639
2124.09010	0.00656
2122.80433	0.00703
2121.51856	0.00740
2120.23280	0.00766
2118.94703	0.00807
2117.66126	0.00874
2116.37549	0.00948
2115.08972	0.01004
2113.80395	0.01025
2112.51818	0.01015
2111.23241	0.00983
2109.94664	0.00940
2108.66088	0.00895
2107.37511	0.00852
2106.08934	0.00811
2104.80357	0.00777
2103.51780	0.00764
2102.23203	0.00788
2100.94626	0.00845
2099.66049	0.00872
2098.37473	0.00852
2097.08896	0.00782
2095.80319	0.00700
2094.51742	0.00655
2093.23165	0.00666
2091.94588	0.00710
2090.66011	0.00753
2089.37434	0.00779
2088.08857	0.00787
2086.80281	0.00790
2085.51704	0.00793
2084.23127	0.00790
2082.94550	0.00777
2081.65973	0.00759
2080.37396	0.00746
2079.08819	0.00742
2077.80242	0.00730
2076.51666	0.00686
2075.23089	0.00600
2073.94512	0.00491
2072.65935	0.00412
2071.37358	0.00419
2070.08781	0.00515
2068.80204	0.00635
2067.51627	0.00698
2066.23050	0.00671
2064.94474	0.00590
2063.65897	0.00508
2062.37320	0.00455
2061.08743	0.00436
2059.80166	0.00445
2058.51589	0.00470
2057.23012	0.00490
2055.94435	0.00495
2054.65859	0.00489
2053.37282	0.00490
2052.08705	0.00506
2050.80128	0.00533
2049.51551	0.00556
2048.22974	0.00563
2046.94397	0.00551
2045.65820	0.00516
2044.37243	0.00456
2043.08667	0.00385
2041.80090	0.00340
2040.51513	0.00359
2039.22936	0.00435
2037.94359	0.00506
2036.65782	0.00497
2035.37205	0.00378
2034.08628	0.00201
2032.80052	0.00068
2031.51475	0.00052
2030.22898	0.00141
2028.94321	0.00255
2027.65744	0.00328
2026.37167	0.00351
2025.08590	0.00352
2023.80013	0.00359
2022.51436	0.00386
2021.22860	0.00431
2019.94283	0.00473
2018.65706	0.00467
2017.37129	0.00383
2016.08552	0.00241
2014.79975	0.00108
2013.51398	0.00037
2012.22821	0.00027
2010.94245	0.00052
2009.65668	0.00103
2008.37091	0.00185
2007.08514	0.00292
2005.79937	0.00402
2004.51360	0.00506
2003.22783	0.00604
2001.94206	0.00684
2000.65629	0.00729
1999.37053	0.00730
1998.08476	0.00707
1996.79899	0.00684
1995.51322	0.00678
1994.22745	0.00677
1992.94168	0.00658
1991.65591	0.00618
1990.37014	0.00586
1989.08438	0.00593
1987.79861	0.00628
1986.51284	0.00657
1985.22707	0.00661
1983.94130	0.00656
1982.65553	0.00669
1981.36976	0.00696
1980.08399	0.00717
1978.79822	0.00716
1977.51246	0.00702
1976.22669	0.00690
1974.94092	0.00675
1973.65515	0.00645
1972.36938	0.00606
1971.08361	0.00582
1969.79784	0.00586
1968.51207	0.00598
1967.22631	0.00596
1965.94054	0.00573
1964.65477	0.00550
1963.36900	0.00548
1962.08323	0.00583
1960.79746	0.00652
1959.51169	0.00734
1958.22592	0.00800
1956.94015	0.00825
1955.65439	0.00815
1954.36862	0.00802
1953.08285	0.00814
1951.79708	0.00846
1950.51131	0.00868
1949.22554	0.00861
1947.93977	0.00835
1946.65400	0.00806
1945.36823	0.00781
1944.08247	0.00762
1942.79670	0.00754
1941.51093	0.00760
1940.22516	0.00771
1938.93939	0.00767
1937.65362	0.00736
1936.36785	0.00697
1935.08208	0.00691
1933.79632	0.00748
1932.51055	0.00846
1931.22478	0.00933
1929.93901	0.00972
1928.65324	0.00965
1927.36747	0.00934
1926.08170	0.00895
1924.79593	0.00854
1923.51016	0.00816
1922.22440	0.00795
1920.93863	0.00807
1919.65286	0.00852
1918.36709	0.00906
1917.08132	0.00933
1915.79555	0.00922
1914.50978	0.00893
1913.22401	0.00872
1911.93825	0.00864
1910.65248	0.00862
1909.36671	0.00856
1908.08094	0.00848
1906.79517	0.00857
1905.50940	0.00895
1904.22363	0.00948
1902.93786	0.00988
1901.65209	0.01000
1900.36633	0.00991
1899.08056	0.00977
1897.79479	0.00967
1896.50902	0.00951
1895.22325	0.00923
1893.93748	0.00888
1892.65171	0.00865
1891.36594	0.00866
1890.08018	0.00888
1888.79441	0.00911
1887.50864	0.00918
1886.22287	0.00909
1884.93710	0.00893
1883.65133	0.00880
1882.36556	0.00874
1881.07979	0.00871
1879.79402	0.00869
1878.50826	0.00869
1877.22249	0.00872
1875.93672	0.00872
1874.65095	0.00868
1873.36518	0.00865
1872.07941	0.00871
1870.79364	0.00887
1869.50787	0.00902
1868.22211	0.00912
1866.93634	0.00922
1865.65057	0.00936
1864.36480	0.00947
1863.07903	0.00939
1861.79326	0.00912
1860.50749	0.00880
1859.22172	0.00865
1857.93595	0.00873
1856.65019	0.00897
1855.36442	0.00923
1854.07865	0.00940
1852.79288	0.00949
1851.50711	0.00951
1850.22134	0.00945
1848.93557	0.00929
1847.64980	0.00912
1846.36404	0.00902
1845.07827	0.00896
1843.79250	0.00884
1842.50673	0.00874
1841.22096	0.00884
1839.93519	0.00919
1838.64942	0.00960
1837.36365	0.00989
1836.07788	0.01001
1834.79212	0.01000
1833.50635	0.00991
1832.22058	0.00983
1830.93481	0.00979
1829.64904	0.00972
1828.36327	0.00963
1827.07750	0.00961
1825.79173	0.00977
1824.50597	0.00999
1823.22020	0.01009
1821.93443	0.00997
1820.64866	0.00970
1819.36289	0.00944
1818.07712	0.00930
1816.79135	0.00932
1815.50558	0.00944
1814.21981	0.00961
1812.93405	0.00980
1811.64828	0.00996
1810.36251	0.01007
1809.07674	0.01007
1807.79097	0.00996
1806.50520	0.00979
1805.21943	0.00972
1803.93366	0.00981
1802.64790	0.00996
1801.36213	0.01004
1800.07636	0.00998
1798.79059	0.00985
1797.50482	0.00973
1796.21905	0.00967
1794.93328	0.00968
1793.64751	0.00978
1792.36174	0.00990
1791.07598	0.00995
1789.79021	0.00999
1788.50444	0.01010
1787.21867	0.01032
1785.93290	0.01049
1784.64713	0.01045
1783.36136	0.01023
1782.07559	0.00998
1780.78983	0.00981
1779.50406	0.00969
1778.21829	0.00958
1776.93252	0.00952
1775.64675	0.00958
1774.36098	0.00976
1773.07521	0.00992
1771.78944	0.00991
1770.50367	0.00984
1769.21791	0.00990
1767.93214	0.01013
1766.64637	0.01036
1765.36060	0.01050
1764.07483	0.01057
1762.78906	0.01057
1761.50329	0.01050
1760.21752	0.01041
1758.93176	0.01039
1757.64599	0.01042
1756.36022	0.01039
1755.07445	0.01030
1753.78868	0.01029
1752.50291	0.01040
1751.21714	0.01050
1749.93137	0.01047
1748.64560	0.01037
1747.35984	0.01029
1746.07407	0.01030
1744.78830	0.01033
1743.50253	0.01035
1742.21676	0.01039
1740.93099	0.01045
1739.64522	0.01047
1738.35945	0.01045
1737.07369	0.01052
1735.78792	0.01078
1734.50215	0.01107
1733.21638	0.01117
1731.93061	0.01111
1730.64484	0.01110
1729.35907	0.01117
1728.07330	0.01122
1726.78753	0.01118
1725.50177	0.01114
1724.21600	0.01116
1722.93023	0.01123
1721.64446	0.01137
1720.35869	0.01158
1719.07292	0.01183
1717.78715	0.01198
1716.50138	0.01198
1715.21561	0.01193
1713.92985	0.01199
1712.64408	0.01218
1711.35831	0.01244
1710.07254	0.01270
1708.78677	0.01295
1707.50100	0.01321
1706.21523	0.01345
1704.92946	0.01360
1703.64370	0.01379
1702.35793	0.01416
1701.07216	0.01463
1699.78639	0.01494
1698.50062	0.01512
1697.21485	0.01541
1695.92908	0.01575
1694.64331	0.01594
1693.35754	0.01604
1692.07178	0.01632
1690.78601	0.01677
1689.50024	0.01723
1688.21447	0.01762
1686.92870	0.01807
1685.64293	0.01856
1684.35716	0.01890
1683.07139	0.01900
1681.78563	0.01910
1680.49986	0.01937
1679.21409	0.01975
1677.92832	0.02017
1676.64255	0.02058
1675.35678	0.02090
1674.07101	0.02113
1672.78524	0.02138
1671.49947	0.02178
1670.21371	0.02223
1668.92794	0.02259
1667.64217	0.02282
1666.35640	0.02305
1665.07063	0.02339
1663.78486	0.02379
1662.49909	0.02414
1661.21332	0.02440
1659.92756	0.02457
1658.64179	0.02470
1657.35602	0.02482
1656.07025	0.02509
1654.78448	0.02559
1653.49871	0.02606
1652.21294	0.02614
1650.92717	0.02590
1649.64140	0.02576
1648.35564	0.02593
1647.06987	0.02621
1645.78410	0.02635
1644.49833	0.02635
1643.21256	0.02631
1641.92679	0.02630
1640.64102	0.02627
1639.35525	0.02620
1638.06949	0.02616
1636.78372	0.02620
1635.49795	0.02619
1634.21218	0.02608
1632.92641	0.02596
1631.64064	0.02590
1630.35487	0.02587
1629.06910	0.02579
1627.78333	0.02566
1626.49757	0.02557
1625.21180	0.02559
1623.92603	0.02568
1622.64026	0.02570
1621.35449	0.02562
1620.06872	0.02552
1618.78295	0.02552
1617.49718	0.02556
1616.21142	0.02549
1614.92565	0.02532
1613.63988	0.02524
1612.35411	0.02531
1611.06834	0.02543
1609.78257	0.02550
1608.49680	0.02553
1607.21103	0.02557
1605.92526	0.02564
1604.63950	0.02574
1603.35373	0.02584
1602.06796	0.02592
1600.78219	0.02597
1599.49642	0.02600
1598.21065	0.02604
1596.92488	0.02610
1595.63911	0.02621
1594.35335	0.02638
1593.06758	0.02659
1591.78181	0.02680
1590.49604	0.02699
1589.21027	0.02714
1587.92450	0.02723
1586.63873	0.02728
1585.35296	0.02733
1584.06719	0.02743
1582.78143	0.02760
1581.49566	0.02778
1580.20989	0.02789
1578.92412	0.02799
1577.63835	0.02818
1576.35258	0.02837
1575.06681	0.02844
1573.78104	0.02846
1572.49528	0.02863
1571.20951	0.02897
1569.92374	0.02930
1568.63797	0.02949
1567.35220	0.02955
1566.06643	0.02959
1564.78066	0.02964
1563.49489	0.02968
1562.20912	0.02983
1560.92336	0.03013
1559.63759	0.03041
1558.35182	0.03044
1557.06605	0.03029
1555.78028	0.03021
1554.49451	0.03027
1553.20874	0.03033
1551.92297	0.03039
1550.63721	0.03048
1549.35144	0.03056
1548.06567	0.03059
1546.77990	0.03056
1545.49413	0.03050
1544.20836	0.03040
1542.92259	0.03033
1541.63682	0.03034
1540.35105	0.03038
1539.06529	0.03030
1537.77952	0.03014
1536.49375	0.03010
1535.20798	0.03028
1533.92221	0.03051
1532.63644	0.03061
1531.35067	0.03064
1530.06490	0.03076
1528.77914	0.03101
1527.49337	0.03133
1526.20760	0.03162
1524.92183	0.03188
1523.63606	0.03218
1522.35029	0.03256
1521.06452	0.03293
1519.77875	0.03326
1518.49298	0.03368
1517.20722	0.03425
1515.92145	0.03487
1514.63568	0.03548
1513.34991	0.03608
1512.06414	0.03669
1510.77837	0.03732
1509.49260	0.03803
1508.20683	0.03884
1506.92107	0.03961
1505.63530	0.04019
1504.34953	0.04065
1503.06376	0.04114
1501.77799	0.04170
1500.49222	0.04226
1499.20645	0.04279
1497.92068	0.04333
1496.63491	0.04384
1495.34915	0.04420
1494.06338	0.04444
1492.77761	0.04465
1491.49184	0.04493
1490.20607	0.04527
1488.92030	0.04569
1487.63453	0.04622
1486.34876	0.04678
1485.06299	0.04731
1483.77723	0.04780
1482.49146	0.04828
1481.20569	0.04879
1479.91992	0.04935
1478.63415	0.04996
1477.34838	0.05058
1476.06261	0.05117
1474.77684	0.05171
1473.49108	0.05216
1472.20531	0.05242
1470.91954	0.05251
1469.63377	0.05252
1468.34800	0.05257
1467.06223	0.05270
1465.77646	0.05283
1464.49069	0.05289
1463.20492	0.05287
1461.91916	0.05286
1460.63339	0.05296
1459.34762	0.05329
1458.06185	0.05380
1456.77608	0.05428
1455.49031	0.05458
1454.20454	0.05479
1452.91877	0.05503
1451.63301	0.05530
1450.34724	0.05555
1449.06147	0.05576
1447.77570	0.05595
1446.48993	0.05613
1445.20416	0.05631
1443.91839	0.05647
1442.63262	0.05657
1441.34685	0.05654
1440.06109	0.05641
1438.77532	0.05630
1437.48955	0.05631
1436.20378	0.05644
1434.91801	0.05672
1433.63224	0.05718
1432.34647	0.05781
1431.06070	0.05852
1429.77494	0.05922
1428.48917	0.05993
1427.20340	0.06069
1425.91763	0.06152
1424.63186	0.06236
1423.34609	0.06314
1422.06032	0.06389
1420.77455	0.06461
1419.48878	0.06525
1418.20302	0.06569
1416.91725	0.06594
1415.63148	0.06608
1414.34571	0.06615
1413.05994	0.06611
1411.77417	0.06595
1410.48840	0.06564
1409.20263	0.06521
1407.91687	0.06468
1406.63110	0.06408
1405.34533	0.06342
1404.05956	0.06266
1402.77379	0.06182
1401.48802	0.06091
1400.20225	0.05992
1398.91648	0.05881
1397.63071	0.05760
1396.34495	0.05636
1395.05918	0.05512
1393.77341	0.05384
1392.48764	0.05254
1391.20187	0.05124
1389.91610	0.04996
1388.63033	0.04873
1387.34456	0.04753
1386.05880	0.04637
1384.77303	0.04525
1383.48726	0.04416
1382.20149	0.04307
1380.91572	0.04196
1379.62995	0.04081
1378.34418	0.03962
1377.05841	0.03839
1375.77264	0.03718
1374.48688	0.03605
1373.20111	0.03498
1371.91534	0.03394
1370.62957	0.03291
1369.34380	0.03189
1368.05803	0.03089
1366.77226	0.02997
1365.48649	0.02918
1364.20073	0.02850
1362.91496	0.02787
1361.62919	0.02721
1360.34342	0.02653
1359.05765	0.02583
1357.77188	0.02519
1356.48611	0.02461
1355.20034	0.02408
1353.91457	0.02359
1352.62881	0.02312
1351.34304	0.02271
1350.05727	0.02234
1348.77150	0.02201
1347.48573	0.02169
1346.19996	0.02136
1344.91419	0.02105
1343.62842	0.02075
1342.34266	0.02046
1341.05689	0.02019
1339.77112	0.01995
1338.48535	0.01972
1337.19958	0.01949
1335.91381	0.01928
1334.62804	0.01910
1333.34227	0.01893
1332.05650	0.01875
1330.77074	0.01855
1329.48497	0.01832
1328.19920	0.01810
1326.91343	0.01792
1325.62766	0.01777
1324.34189	0.01765
1323.05612	0.01753
1321.77035	0.01743
1320.48459	0.01734
1319.19882	0.01725
1317.91305	0.01714
1316.62728	0.01698
1315.34151	0.01678
1314.05574	0.01658
1312.76997	0.01639
1311.48420	0.01623
1310.19843	0.01610
1308.91267	0.01600
1307.62690	0.01592
1306.34113	0.01585
1305.05536	0.01575
1303.76959	0.01562
1302.48382	0.01549
1301.19805	0.01541
1299.91228	0.01535
1298.62652	0.01529
1297.34075	0.01519
1296.05498	0.01506
1294.76921	0.01497
1293.48344	0.01494
1292.19767	0.01498
1290.91190	0.01502
1289.62613	0.01502
1288.34036	0.01497
1287.05460	0.01490
1285.76883	0.01482
1284.48306	0.01475
1283.19729	0.01466
1281.91152	0.01457
1280.62575	0.01446
1279.33998	0.01435
1278.05421	0.01426
1276.76845	0.01421
1275.48268	0.01419
1274.19691	0.01419
1272.91114	0.01417
1271.62537	0.01412
1270.33960	0.01402
1269.05383	0.01388
1267.76806	0.01372
1266.48229	0.01359
1265.19653	0.01353
1263.91076	0.01351
1262.62499	0.01350
1261.33922	0.01345
1260.05345	0.01339
1258.76768	0.01336
1257.48191	0.01341
1256.19614	0.01351
1254.91037	0.01361
1253.62461	0.01364
1252.33884	0.01358
1251.05307	0.01348
1249.76730	0.01338
1248.48153	0.01328
1247.19576	0.01318
1245.90999	0.01306
1244.62422	0.01293
1243.33846	0.01284
1242.05269	0.01281
1240.76692	0.01284
1239.48115	0.01292
1238.19538	0.01299
1236.90961	0.01301
1235.62384	0.01295
1234.33807	0.01284
1233.05230	0.01274
1231.76654	0.01269
1230.48077	0.01268
1229.19500	0.01266
1227.90923	0.01259
1226.62346	0.01249
1225.33769	0.01235
1224.05192	0.01221
1222.76615	0.01208
1221.48039	0.01201
1220.19462	0.01200
1218.90885	0.01202
1217.62308	0.01204
1216.33731	0.01205
1215.05154	0.01205
1213.76577	0.01203
1212.48000	0.01198
1211.19423	0.01190
1209.90847	0.01183
1208.62270	0.01179
1207.33693	0.01179
1206.05116	0.01183
1204.76539	0.01188
1203.47962	0.01191
1202.19385	0.01193
1200.90808	0.01194
1199.62232	0.01198
1198.33655	0.01201
1197.05078	0.01201
1195.76501	0.01196
1194.47924	0.01185
1193.19347	0.01170
1191.90770	0.01155
1190.62193	0.01146
1189.33616	0.01145
1188.05040	0.01150
1186.76463	0.01156
1185.47886	0.01160
1184.19309	0.01162
1182.90732	0.01165
1181.62155	0.01169
1180.33578	0.01171
1179.05001	0.01166
1177.76425	0.01156
1176.47848	0.01149
1175.19271	0.01149
1173.90694	0.01157
1172.62117	0.01168
1171.33540	0.01177
1170.04963	0.01184
1168.76386	0.01193
1167.47809	0.01206
1166.19233	0.01222
1164.90656	0.01236
1163.62079	0.01242
1162.33502	0.01240
1161.04925	0.01241
1159.76348	0.01251
1158.47771	0.01270
1157.19194	0.01290
1155.90618	0.01304
1154.62041	0.01314
1153.33464	0.01327
1152.04887	0.01350
1150.76310	0.01385
1149.47733	0.01426
1148.19156	0.01469
1146.90579	0.01510
1145.62002	0.01550
1144.33426	0.01593
1143.04849	0.01641
1141.76272	0.01697
1140.47695	0.01765
1139.19118	0.01842
1137.90541	0.01928
1136.61964	0.02022
1135.33387	0.02125
1134.04811	0.02240
1132.76234	0.02369
1131.47657	0.02515
1130.19080	0.02681
1128.90503	0.02866
1127.61926	0.03072
1126.33349	0.03294
1125.04772	0.03530
1123.76195	0.03777
1122.47619	0.04033
1121.19042	0.04294
1119.90465	0.04551
1118.61888	0.04799
1117.33311	0.05041
1116.04734	0.05283
1114.76157	0.05521
1113.47580	0.05748
1112.19004	0.05962
1110.90427	0.06169
1109.61850	0.06376
1108.33273	0.06582
1107.04696	0.06783
1105.76119	0.06979
1104.47542	0.07174
1103.18965	0.07371
1101.90388	0.07567
1100.61812	0.07754
1099.33235	0.07925
1098.04658	0.08077
1096.76081	0.08214
1095.47504	0.08346
1094.18927	0.08479
1092.90350	0.08614
1091.61773	0.08746
1090.33197	0.08869
1089.04620	0.08988
1087.76043	0.09109
1086.47466	0.09237
1085.18889	0.09369
1083.90312	0.09506
1082.61735	0.09654
1081.33158	0.09817
1080.04581	0.09994
1078.76005	0.10182
1077.47428	0.10376
1076.18851	0.10574
1074.90274	0.10777
1073.61697	0.10985
1072.33120	0.11202
1071.04543	0.11428
1069.75966	0.11660
1068.47390	0.11894
1067.18813	0.12130
1065.90236	0.12372
1064.61659	0.12621
1063.33082	0.12875
1062.04505	0.13131
1060.75928	0.13383
1059.47351	0.13626
1058.18774	0.13863
1056.90198	0.14094
1055.61621	0.14319
1054.33044	0.14542
1053.04467	0.14769
1051.75890	0.15002
1050.47313	0.15240
1049.18736	0.15480
1047.90159	0.15724
1046.61583	0.15977
1045.33006	0.16242
1044.04429	0.16517
1042.75852	0.16797
1041.47275	0.17073
1040.18698	0.17340
1038.90121	0.17597
1037.61544	0.17850
1036.32967	0.18104
1035.04391	0.18354
1033.75814	0.18589
1032.47237	0.18800
1031.18660	0.18983
1029.90083	0.19138
1028.61506	0.19265
1027.32929	0.19360
1026.04352	0.19418
1024.75775	0.19437
1023.47199	0.19419
1022.18622	0.19362
1020.90045	0.19264
1019.61468	0.19122
1018.32891	0.18939
1017.04314	0.18717
1015.75737	0.18451
1014.47160	0.18137
1013.18584	0.17770
1011.90007	0.17354
1010.61430	0.16895
1009.32853	0.16400
1008.04276	0.15875
1006.75699	0.15321
1005.47122	0.14740
1004.18545	0.14139
1002.89968	0.13528
1001.61392	0.12911
1000.32815	0.12292
999.04238	0.11672
997.75661	0.11057
996.47084	0.10460
995.18507	0.09888
993.89930	0.09346
992.61353	0.08826
991.32777	0.08326
990.04200	0.07850
988.75623	0.07413
987.47046	0.07021
986.18469	0.06671
984.89892	0.06354
983.61315	0.06062
982.32738	0.05791
981.04161	0.05543
979.75585	0.05318
978.47008	0.05114
977.18431	0.04935
975.89854	0.04786
974.61277	0.04672
973.32700	0.04593
972.04123	0.04545
970.75546	0.04523
969.46970	0.04525
968.18393	0.04548
966.89816	0.04589
965.61239	0.04646
964.32662	0.04711
963.04085	0.04774
961.75508	0.04821
960.46931	0.04831
959.18354	0.04795
957.89778	0.04711
956.61201	0.04595
955.32624	0.04465
954.04047	0.04333
952.75470	0.04208
951.46893	0.04091
950.18316	0.03975
948.89739	0.03857
947.61163	0.03733
946.32586	0.03611
945.04009	0.03503
943.75432	0.03410
942.46855	0.03326
941.18278	0.03242
939.89701	0.03158
938.61124	0.03078
937.32547	0.03005
936.03971	0.02936
934.75394	0.02869
933.46817	0.02808
932.18240	0.02754
930.89663	0.02708
929.61086	0.02671
928.32509	0.02644
927.03932	0.02622
925.75356	0.02598
924.46779	0.02566
923.18202	0.02530
921.89625	0.02499
920.61048	0.02475
919.32471	0.02454
918.03894	0.02431
916.75317	0.02406
915.46740	0.02382
914.18164	0.02366
912.89587	0.02357
911.61010	0.02350
910.32433	0.02341
909.03856	0.02327
907.75279	0.02309
906.46702	0.02287
905.18125	0.02264
903.89549	0.02250
902.60972	0.02250
901.32395	0.02263
900.03818	0.02276
898.75241	0.02281
897.46664	0.02277
896.18087	0.02274
894.89510	0.02274
893.60933	0.02272
892.32357	0.02263
891.03780	0.02253
889.75203	0.02252
888.46626	0.02272
887.18049	0.02325
885.89472	0.02421
884.60895	0.02565
883.32318	0.02748
882.03742	0.02948
880.75165	0.03134
879.46588	0.03281
878.18011	0.03391
876.89434	0.03486
875.60857	0.03584
874.32280	0.03683
873.03703	0.03758
871.75126	0.03786
870.46550	0.03762
869.17973	0.03692
867.89396	0.03582
866.60819	0.03438
865.32242	0.03276
864.03665	0.03118
862.75088	0.02976
861.46511	0.02850
860.17935	0.02736
858.89358	0.02637
857.60781	0.02561
856.32204	0.02508
855.03627	0.02472
853.75050	0.02445
852.46473	0.02422
851.17896	0.02395
849.89319	0.02365
848.60743	0.02334
847.32166	0.02309
846.03589	0.02293
844.75012	0.02283
843.46435	0.02278
842.17858	0.02276
840.89281	0.02275
839.60704	0.02270
838.32128	0.02258
837.03551	0.02240
835.74974	0.02219
834.46397	0.02201
833.17820	0.02191
831.89243	0.02189
830.60666	0.02189
829.32089	0.02189
828.03512	0.02188
826.74936	0.02185
825.46359	0.02178
824.17782	0.02168
822.89205	0.02157
821.60628	0.02153
820.32051	0.02158
819.03474	0.02172
817.74897	0.02191
816.46321	0.02207
815.17744	0.02215
813.89167	0.02215
812.60590	0.02210
811.32013	0.02207
810.03436	0.02208
808.74859	0.02212
807.46282	0.02214
806.17705	0.02217
804.89129	0.02220
803.60552	0.02221
802.31975	0.02213
801.03398	0.02199
799.74821	0.02184
798.46244	0.02176
797.17667	0.02178
795.89090	0.02187
794.60513	0.02194
793.31937	0.02196
792.03360	0.02196
790.74783	0.02197
789.46206	0.02199
788.17629	0.02201
786.89052	0.02198
785.60475	0.02189
784.31898	0.02178
783.03322	0.02175
781.74745	0.02186
780.46168	0.02201
779.17591	0.02208
777.89014	0.02204
776.60437	0.02196
775.31860	0.02196
774.03283	0.02206
772.74706	0.02221
771.46130	0.02232
770.17553	0.02234
768.88976	0.02228
767.60399	0.02221
766.31822	0.02220
765.03245	0.02229
763.74668	0.02243
762.46091	0.02253
761.17515	0.02259
759.88938	0.02266
758.60361	0.02279
757.31784	0.02288
756.03207	0.02292
754.74630	0.02295
753.46053	0.02303
752.17476	0.02313
750.88899	0.02316
749.60323	0.02307
748.31746	0.02291
747.03169	0.02277
745.74592	0.02271
744.46015	0.02275
743.17438	0.02285
741.88861	0.02293
740.60284	0.02293
739.31708	0.02287
738.03131	0.02283
736.74554	0.02286
735.45977	0.02290
734.17400	0.02287
732.88823	0.02278
731.60246	0.02272
730.31669	0.02276
729.03092	0.02288
727.74516	0.02300
726.45939	0.02306
725.17362	0.02309
723.88785	0.02317
722.60208	0.02336
721.31631	0.02356
720.03054	0.02372
718.74477	0.02382
717.45901	0.02388
716.17324	0.02391
714.88747	0.02389
713.60170	0.02381
712.31593	0.02368
711.03016	0.02358
709.74439	0.02354
708.45862	0.02356
707.17285	0.02361
705.88709	0.02363
704.60132	0.02361
703.31555	0.02356
702.02978	0.02350
700.74401	0.02346
699.45824	0.02347
698.17247	0.02353
696.88670	0.02362
695.60094	0.02370
694.31517	0.02375
693.02940	0.02376
691.74363	0.02374
690.45786	0.02372
689.17209	0.02371
687.88632	0.02370
686.60055	0.02370
685.31478	0.02370
684.02902	0.02372
682.74325	0.02373
681.45748	0.02372
680.17171	0.02371
678.88594	0.02372
677.60017	0.02374
676.31440	0.02376
675.02863	0.02380
673.74287	0.02385
672.45710	0.02396
671.17133	0.02418
669.88556	0.02440
668.59979	0.02420
667.31402	0.02409
666.02825	0.02434
664.74248	0.02409
663.45671	0.02384
662.17095	0.02372
660.88518	0.02361
659.59941	0.02350
658.31364	0.02342
657.02787	0.02338
655.74210	0.02337
654.45633	0.02336
653.17056	0.02333
651.88480	0.02332
650.59903	0.02336
649.31326	0.02343
648.02749	0.02352
646.74172	0.02359
645.45595	0.02366
644.17018	0.02374
642.88441	0.02387
641.59864	0.02401
640.31288	0.02417
639.02711	0.02432
637.74134	0.02449
636.45557	0.02469
635.16980	0.02491
633.88403	0.02513
632.59826	0.02534
631.31249	0.02549
630.02673	0.02555
628.74096	0.02564
627.45519	0.02620
626.16942	0.02646
624.88365	0.02639
623.59788	0.02635
622.31211	0.02706
621.02634	0.02938
619.74057	0.03327
618.45481	0.03753
617.16904	0.04067
615.88327	0.04211
614.59750	0.04251
613.31173	0.04324
612.02596	0.04540
610.74019	0.04931
609.45442	0.05453
608.16866	0.06011
606.88289	0.06494
605.59712	0.06837
604.31135	0.07041
603.02558	0.07141
601.73981	0.07161
600.45404	0.07109
599.16827	0.06992
597.88250	0.06828
596.59674	0.06638
595.31097	0.06446
594.02520	0.06270
592.73943	0.06123
591.45366	0.06016
590.16789	0.05959
588.88212	0.05966
587.59635	0.06037
586.31059	0.06152
585.02482	0.06291
583.73905	0.06444
582.45328	0.06615
581.16751	0.06799
579.88174	0.06983
578.59597	0.07159
577.31020	0.07329
576.02443	0.07505
574.73867	0.07688
573.45290	0.07874
572.16713	0.08063
570.88136	0.08261
569.59559	0.08484
568.30982	0.08738
567.02405	0.09018
565.73828	0.09296
564.45251	0.09529
563.16675	0.09668
561.88098	0.09679
560.59521	0.09544
559.30944	0.09264
558.02367	0.08854
556.73790	0.08344
555.45213	0.07775
554.16636	0.07193
552.88060	0.06639
551.59483	0.06143
550.30906	0.05717
549.02329	0.05355
547.73752	0.05045
546.45175	0.04776
545.16598	0.04541
543.88021	0.04335
542.59444	0.04153
541.30868	0.03991
540.02291	0.03853
538.73714	0.03738
537.45137	0.03636
536.16560	0.03539
534.87983	0.03449
533.59406	0.03367
532.30829	0.03291
531.02253	0.03217
529.73676	0.03145
528.45099	0.03083
527.16522	0.03030
525.87945	0.02981
524.59368	0.02927
523.30791	0.02867
522.02214	0.02807
520.73637	0.02753
519.45061	0.02706
518.16484	0.02666
516.87907	0.02627
515.59330	0.02584
514.30753	0.02537
513.02176	0.02490
511.73599	0.02454
510.45022	0.02432
509.16446	0.02419
507.87869	0.02402
506.59292	0.02374
505.30715	0.02338
504.02138	0.02309
502.73561	0.02295
501.44984	0.02295
500.16407	0.02298
498.87830	0.02294
497.59254	0.02278
496.30677	0.02253
495.02100	0.02220
493.73523	0.02187
492.44946	0.02159
491.16369	0.02144
489.87792	0.02141
488.59215	0.02142
487.30639	0.02136
486.02062	0.02125
484.73485	0.02115
483.44908	0.02114
482.16331	0.02121
480.87754	0.02131
479.59177	0.02143
478.30600	0.02156
477.02023	0.02171
475.73447	0.02188
474.44870	0.02204
473.16293	0.02217
471.87716	0.02225
470.59139	0.02229
469.30562	0.02234
468.01985	0.02236
466.73408	0.02230
465.44832	0.02217
464.16255	0.02202
462.87678	0.02192
461.59101	0.02185
460.30524	0.02175
459.01947	0.02152
457.73370	0.02114
456.44793	0.02071
455.16216	0.02037
453.87640	0.02019
452.59063	0.02014
451.30486	0.02013
450.01909	0.02015
448.73332	0.02020
447.44755	0.02024
446.16178	0.02022
444.87601	0.02007
443.59025	0.01984
442.30448	0.01961
441.01871	0.01943
439.73294	0.01934
438.44717	0.01932
437.16140	0.01934
435.87563	0.01931
434.58986	0.01924
433.30409	0.01917
432.01833	0.01913
430.73256	0.01914
429.44679	0.01916
428.16102	0.01916
426.87525	0.01913
425.58948	0.01911
424.30371	0.01911
423.01794	0.01911
421.73218	0.01908
420.44641	0.01900
419.16064	0.01886
417.87487	0.01870
416.58910	0.01856
415.30333	0.01850
414.01756	0.01851
412.73179	0.01856
411.44602	0.01862
410.16026	0.01866
408.87449	0.01869
407.58872	0.01874
406.30295	0.01882
405.01718	0.01887
403.73141	0.01888
402.44564	0.01889
401.15987	0.01894
399.87411	0.01903
