3997.45528	0.06933
3996.16951	0.06938
3994.88374	0.06899
3993.59798	0.06842
3992.31221	0.06803
3991.02644	0.06768
3989.74067	0.06686
3988.45490	0.06548
3987.16913	0.06408
3985.88336	0.06334
3984.59759	0.06339
3983.31183	0.06374
3982.02606	0.06389
3980.74029	0.06385
3979.45452	0.06389
3978.16875	0.06403
3976.88298	0.06391
3975.59721	0.06324
3974.31144	0.06218
3973.02567	0.06134
3971.73991	0.06122
3970.45414	0.06180
3969.16837	0.06255
3967.88260	0.06298
3966.59683	0.06299
3965.31106	0.06292
3964.02529	0.06324
3962.73952	0.06425
3961.45376	0.06575
3960.16799	0.06701
3958.88222	0.06731
3957.59645	0.06657
3956.31068	0.06538
3955.02491	0.06444
3953.73914	0.06403
3952.45337	0.06398
3951.16760	0.06396
3949.88184	0.06369
3948.59607	0.06313
3947.31030	0.06256
3946.02453	0.06233
3944.73876	0.06257
3943.45299	0.06313
3942.16722	0.06383
3940.88145	0.06461
3939.59569	0.06532
3938.30992	0.06564
3937.02415	0.06534
3935.73838	0.06459
3934.45261	0.06393
3933.16684	0.06374
3931.88107	0.06406
3930.59530	0.06469
3929.30953	0.06546
3928.02377	0.06617
3926.73800	0.06658
3925.45223	0.06640
3924.16646	0.06562
3922.88069	0.06469
3921.59492	0.06417
3920.30915	0.06415
3919.02338	0.06422
3917.73762	0.06389
3916.45185	0.06312
3915.16608	0.06220
3913.88031	0.06150
3912.59454	0.06119
3911.30877	0.06134
3910.02300	0.06189
3908.73723	0.06263
3907.45146	0.06317
3906.16570	0.06307
3904.87993	0.06219
3903.59416	0.06094
3902.30839	0.06017
3901.02262	0.06049
3899.73685	0.06166
3898.45108	0.06276
3897.16531	0.06305
3895.87955	0.06250
3894.59378	0.06154
3893.30801	0.06048
3892.02224	0.05931
3890.73647	0.05807
3889.45070	0.05730
3888.16493	0.05758
3886.87916	0.05888
3885.59339	0.06037
3884.30763	0.06129
3883.02186	0.06154
3881.73609	0.06149
3880.45032	0.06138
3879.16455	0.06115
3877.87878	0.06063
3876.59301	0.05977
3875.30724	0.05865
3874.02148	0.05758
3872.73571	0.05709
3871.44994	0.05766
3870.16417	0.05921
3868.87840	0.06102
3867.59263	0.06232
3866.30686	0.06275
3865.02109	0.06249
3863.73532	0.06200
3862.44956	0.06166
3861.16379	0.06155
3859.87802	0.06141
3858.59225	0.06087
3857.30648	0.05981
3856.02071	0.05860
3854.73494	0.05800
3853.44917	0.05839
3852.16341	0.05932
3850.87764	0.05988
3849.59187	0.05948
3848.30610	0.05844
3847.02033	0.05769
3845.73456	0.05789
3844.44879	0.05888
3843.16302	0.05983
3841.87725	0.06002
3840.59149	0.05938
3839.30572	0.05830
3838.01995	0.05720
3836.73418	0.05637
3835.44841	0.05614
3834.16264	0.05663
3832.87687	0.05753
3831.59110	0.05823
3830.30534	0.05835
3829.01957	0.05803
3827.73380	0.05763
3826.44803	0.05743
3825.16226	0.05761
3823.87649	0.05828
3822.59072	0.05926
3821.30495	0.06006
3820.01918	0.06033
3818.73342	0.06029
3817.44765	0.06037
3816.16188	0.06068
3814.87611	0.06087
3813.59034	0.06065
3812.30457	0.05998
3811.01880	0.05917
3809.73303	0.05872
3808.44726	0.05881
3807.16150	0.05906
3805.87573	0.05902
3804.58996	0.05870
3803.30419	0.05836
3802.01842	0.05802
3800.73265	0.05756
3799.44688	0.05710
3798.16111	0.05683
3796.87535	0.05660
3795.58958	0.05612
3794.30381	0.05545
3793.01804	0.05498
3791.73227	0.05501
3790.44650	0.05526
3789.16073	0.05521
3787.87496	0.05476
3786.58919	0.05449
3785.30343	0.05490
3784.01766	0.05572
3782.73189	0.05609
3781.44612	0.05555
3780.16035	0.05445
3778.87458	0.05357
3777.58881	0.05346
3776.30304	0.05418
3775.01728	0.05545
3773.73151	0.05693
3772.44574	0.05822
3771.15997	0.05885
3769.87420	0.05842
3768.58843	0.05709
3767.30266	0.05553
3766.01689	0.05448
3764.73112	0.05421
3763.44536	0.05459
3762.15959	0.05540
3760.87382	0.05640
3759.58805	0.05728
3758.30228	0.05776
3757.01651	0.05774
3755.73074	0.05748
3754.44497	0.05728
3753.15921	0.05704
3751.87344	0.05641
3750.58767	0.05538
3749.30190	0.05440
3748.01613	0.05393
3746.73036	0.05413
3745.44459	0.05475
3744.15882	0.05530
3742.87305	0.05560
3741.58729	0.05587
3740.30152	0.05640
3739.01575	0.05729
3737.72998	0.05829
3736.44421	0.05882
3735.15844	0.05854
3733.87267	0.05774
3732.58690	0.05703
3731.30114	0.05663
3730.01537	0.05642
3728.72960	0.05619
3727.44383	0.05569
3726.15806	0.05478
3724.87229	0.05359
3723.58652	0.05252
3722.30075	0.05202
3721.01498	0.05231
3719.72922	0.05324
3718.44345	0.05439
3717.15768	0.05525
3715.87191	0.05554
3714.58614	0.05531
3713.30037	0.05477
3712.01460	0.05424
3710.72883	0.05401
3709.44307	0.05411
3708.15730	0.05433
3706.87153	0.05438
3705.58576	0.05432
3704.29999	0.05432
3703.01422	0.05439
3701.72845	0.05434
3700.44268	0.05410
3699.15691	0.05372
3697.87115	0.05333
3696.58538	0.05295
3695.29961	0.05257
3694.01384	0.05229
3692.72807	0.05227
3691.44230	0.05239
3690.15653	0.05239
3688.87076	0.05235
3687.58500	0.05253
3686.29923	0.05304
3685.01346	0.05380
3683.72769	0.05439
3682.44192	0.05450
3681.15615	0.05434
3679.87038	0.05424
3678.58461	0.05436
3677.29884	0.05474
3676.01308	0.05511
3674.72731	0.05510
3673.44154	0.05460
3672.15577	0.05369
3670.87000	0.05256
3669.58423	0.05155
3668.29846	0.05110
3667.01269	0.05134
3665.72693	0.05198
3664.44116	0.05262
3663.15539	0.05314
3661.86962	0.05364
3660.58385	0.05424
3659.29808	0.05495
3658.01231	0.05572
3656.72654	0.05649
3655.44077	0.05710
3654.15501	0.05729
3652.86924	0.05692
3651.58347	0.05613
3650.29770	0.05538
3649.01193	0.05510
3647.72616	0.05527
3646.44039	0.05545
3645.15462	0.05532
3643.86886	0.05507
3642.58309	0.05517
3641.29732	0.05587
3640.01155	0.05702
3638.72578	0.05810
3637.44001	0.05849
3636.15424	0.05791
3634.86847	0.05660
3633.58270	0.05525
3632.29694	0.05464
3631.01117	0.05515
3629.72540	0.05660
3628.43963	0.05825
3627.15386	0.05948
3625.86809	0.06012
3624.58232	0.06040
3623.29655	0.06056
3622.01079	0.06073
3620.72502	0.06081
3619.43925	0.06064
3618.15348	0.06012
3616.86771	0.05936
3615.58194	0.05875
3614.29617	0.05860
3613.01040	0.05894
3611.72463	0.05944
3610.43887	0.05997
3609.15310	0.06072
3607.86733	0.06191
3606.58156	0.06338
3605.29579	0.06454
3604.01002	0.06492
3602.72425	0.06454
3601.43848	0.06389
3600.15272	0.06347
3598.86695	0.06340
3597.58118	0.06348
3596.29541	0.06340
3595.00964	0.06304
3593.72387	0.06255
3592.43810	0.06234
3591.15233	0.06262
3589.86656	0.06313
3588.58080	0.06348
3587.29503	0.06357
3586.00926	0.06361
3584.72349	0.06389
3583.43772	0.06459
3582.15195	0.06554
3580.86618	0.06633
3579.58041	0.06680
3578.29464	0.06707
3577.00888	0.06736
3575.72311	0.06771
3574.43734	0.06800
3573.15157	0.06826
3571.86580	0.06866
3570.58003	0.06922
3569.29426	0.06969
3568.00849	0.06974
3566.72273	0.06920
3565.43696	0.06830
3564.15119	0.06757
3562.86542	0.06745
3561.57965	0.06788
3560.29388	0.06838
3559.00811	0.06859
3557.72234	0.06860
3556.43657	0.06872
3555.15081	0.06906
3553.86504	0.06944
3552.57927	0.06960
3551.29350	0.06949
3550.00773	0.06929
3548.72196	0.06928
3547.43619	0.06969
3546.15042	0.07044
3544.86466	0.07124
3543.57889	0.07176
3542.29312	0.07188
3541.00735	0.07178
3539.72158	0.07187
3538.43581	0.07240
3537.15004	0.07311
3535.86427	0.07342
3534.57850	0.07306
3533.29274	0.07237
3532.00697	0.07195
3530.72120	0.07205
3529.43543	0.07253
3528.14966	0.07311
3526.86389	0.07360
3525.57812	0.07390
3524.29235	0.07399
3523.00659	0.07398
3521.72082	0.07409
3520.43505	0.07455
3519.14928	0.07533
3517.86351	0.07608
3516.57774	0.07647
3515.29197	0.07647
3514.00620	0.07622
3512.72043	0.07572
3511.43467	0.07503
3510.14890	0.07447
3508.86313	0.07442
3507.57736	0.07478
3506.29159	0.07500
3505.00582	0.07471
3503.72005	0.07417
3502.43428	0.07389
3501.14852	0.07410
3499.86275	0.07451
3498.57698	0.07488
3497.29121	0.07525
3496.00544	0.07579
3494.71967	0.07637
3493.43390	0.07667
3492.14813	0.07652
3490.86236	0.07608
3489.57660	0.07578
3488.29083	0.07600
3487.00506	0.07680
3485.71929	0.07792
3484.43352	0.07901
3483.14775	0.07980
3481.86198	0.08019
3480.57621	0.08015
3479.29045	0.07974
3478.00468	0.07915
3476.71891	0.07870
3475.43314	0.07864
3474.14737	0.07902
3472.86160	0.07969
3471.57583	0.08038
3470.29006	0.08092
3469.00429	0.08129
3467.71853	0.08156
3466.43276	0.08172
3465.14699	0.08176
3463.86122	0.08182
3462.57545	0.08203
3461.28968	0.08224
3460.00391	0.08212
3458.71814	0.08154
3457.43238	0.08080
3456.14661	0.08044
3454.86084	0.08081
3453.57507	0.08183
3452.28930	0.08299
3451.00353	0.08373
3449.71776	0.08375
3448.43199	0.08320
3447.14622	0.08250
3445.86046	0.08204
3444.57469	0.08196
3443.28892	0.08215
3442.00315	0.08242
3440.71738	0.08256
3439.43161	0.08249
3438.14584	0.08225
3436.86007	0.08204
3435.57431	0.08208
3434.28854	0.08247
3433.00277	0.08309
3431.71700	0.08371
3430.43123	0.08410
3429.14546	0.08416
3427.85969	0.08392
3426.57392	0.08357
3425.28815	0.08334
3424.00239	0.08337
3422.71662	0.08354
3421.43085	0.08355
3420.14508	0.08328
3418.85931	0.08296
3417.57354	0.08307
3416.28777	0.08373
3415.00200	0.08453
3413.71624	0.08486
3412.43047	0.08443
3411.14470	0.08358
3409.85893	0.08297
3408.57316	0.08309
3407.28739	0.08391
3406.00162	0.08500
3404.71585	0.08587
3403.43008	0.08634
3402.14432	0.08641
3400.85855	0.08611
3399.57278	0.08544
3398.28701	0.08462
3397.00124	0.08401
3395.71547	0.08386
3394.42970	0.08413
3393.14393	0.08452
3391.85817	0.08468
3390.57240	0.08449
3389.28663	0.08415
3388.00086	0.08408
3386.71509	0.08450
3385.42932	0.08524
3384.14355	0.08584
3382.85778	0.08598
3381.57201	0.08571
3380.28625	0.08530
3379.00048	0.08503
3377.71471	0.08505
3376.42894	0.08528
3375.14317	0.08542
3373.85740	0.08520
3372.57163	0.08460
3371.28586	0.08397
3370.00010	0.08369
3368.71433	0.08396
3367.42856	0.08460
3366.14279	0.08530
3364.85702	0.08582
3363.57125	0.08616
3362.28548	0.08642
3360.99971	0.08673
3359.71394	0.08708
3358.42818	0.08739
3357.14241	0.08758
3355.85664	0.08761
3354.57087	0.08749
3353.28510	0.08725
3351.99933	0.08690
3350.71356	0.08645
3349.42779	0.08593
3348.14202	0.08540
3346.85626	0.08485
3345.57049	0.08435
3344.28472	0.08399
3342.99895	0.08387
3341.71318	0.08398
3340.42741	0.08424
3339.14164	0.08457
3337.85587	0.08496
3336.57011	0.08531
3335.28434	0.08536
3333.99857	0.08494
3332.71280	0.08421
3331.42703	0.08355
3330.14126	0.08321
3328.85549	0.08309
3327.56972	0.08289
3326.28395	0.08251
3324.99819	0.08219
3323.71242	0.08220
3322.42665	0.08249
3321.14088	0.08282
3319.85511	0.08300
3318.56934	0.08303
3317.28357	0.08300
3315.99780	0.08307
3314.71204	0.08341
3313.42627	0.08397
3312.14050	0.08454
3310.85473	0.08484
3309.56896	0.08477
3308.28319	0.08440
3306.99742	0.08390
3305.71165	0.08345
3304.42588	0.08315
3303.14012	0.08293
3301.85435	0.08271
3300.56858	0.08255
3299.28281	0.08258
3297.99704	0.08284
3296.71127	0.08315
3295.42550	0.08324
3294.13973	0.08290
3292.85397	0.08224
3291.56820	0.08168
3290.28243	0.08163
3288.99666	0.08210
3287.71089	0.08273
3286.42512	0.08310
3285.13935	0.08304
3283.85358	0.08268
3282.56781	0.08227
3281.28205	0.08203
3279.99628	0.08202
3278.71051	0.08212
3277.42474	0.08216
3276.13897	0.08209
3274.85320	0.08202
3273.56743	0.08210
3272.28166	0.08226
3270.99590	0.08222
3269.71013	0.08178
3268.42436	0.08106
3267.13859	0.08041
3265.85282	0.08015
3264.56705	0.08030
3263.28128	0.08062
3261.99551	0.08077
3260.70974	0.08069
3259.42398	0.08051
3258.13821	0.08041
3256.85244	0.08039
3255.56667	0.08038
3254.28090	0.08029
3252.99513	0.08012
3251.70936	0.07989
3250.42359	0.07966
3249.13783	0.07948
3247.85206	0.07942
3246.56629	0.07953
3245.28052	0.07985
3243.99475	0.08024
3242.70898	0.08052
3241.42321	0.08053
3240.13744	0.08026
3238.85167	0.07979
3237.56591	0.07930
3236.28014	0.07903
3234.99437	0.07915
3233.70860	0.07960
3232.42283	0.08015
3231.13706	0.08051
3229.85129	0.08053
3228.56552	0.08029
3227.27976	0.07994
3225.99399	0.07955
3224.70822	0.07907
3223.42245	0.07852
3222.13668	0.07803
3220.85091	0.07776
3219.56514	0.07764
3218.27937	0.07753
3216.99360	0.07734
3215.70784	0.07719
3214.42207	0.07719
3213.13630	0.07734
3211.85053	0.07758
3210.56476	0.07776
3209.27899	0.07773
3207.99322	0.07742
3206.70745	0.07690
3205.42169	0.07638
3204.13592	0.07599
3202.85015	0.07572
3201.56438	0.07559
3200.27861	0.07560
3198.99284	0.07567
3197.70707	0.07564
3196.42130	0.07542
3195.13553	0.07511
3193.84977	0.07482
3192.56400	0.07458
3191.27823	0.07432
3189.99246	0.07396
3188.70669	0.07352
3187.42092	0.07307
3186.13515	0.07279
3184.84938	0.07279
3183.56362	0.07304
3182.27785	0.07335
3180.99208	0.07349
3179.70631	0.07336
3178.42054	0.07301
3177.13477	0.07263
3175.84900	0.07244
3174.56323	0.07256
3173.27746	0.07295
3171.99170	0.07340
3170.70593	0.07380
3169.42016	0.07417
3168.13439	0.07453
3166.84862	0.07474
3165.56285	0.07456
3164.27708	0.07395
3162.99131	0.07314
3161.70555	0.07242
3160.41978	0.07194
3159.13401	0.07169
3157.84824	0.07157
3156.56247	0.07157
3155.27670	0.07172
3153.99093	0.07198
3152.70516	0.07224
3151.41939	0.07230
3150.13363	0.07201
3148.84786	0.07142
3147.56209	0.07072
3146.27632	0.07012
3144.99055	0.06974
3143.70478	0.06958
3142.41901	0.06962
3141.13324	0.06979
3139.84748	0.07001
3138.56171	0.07014
3137.27594	0.07019
3135.99017	0.07023
3134.70440	0.07035
3133.41863	0.07047
3132.13286	0.07036
3130.84709	0.06988
3129.56132	0.06911
3128.27556	0.06834
3126.98979	0.06777
3125.70402	0.06751
3124.41825	0.06761
3123.13248	0.06803
3121.84671	0.06855
3120.56094	0.06881
3119.27517	0.06858
3117.98940	0.06796
3116.70364	0.06728
3115.41787	0.06686
3114.13210	0.06685
3112.84633	0.06720
3111.56056	0.06770
3110.27479	0.06804
3108.98902	0.06802
3107.70325	0.06764
3106.41749	0.06711
3105.13172	0.06670
3103.84595	0.06653
3102.56018	0.06657
3101.27441	0.06663
3099.98864	0.06654
3098.70287	0.06619
3097.41710	0.06571
3096.13133	0.06537
3094.84557	0.06532
3093.55980	0.06542
3092.27403	0.06538
3090.98826	0.06513
3089.70249	0.06492
3088.41672	0.06497
3087.13095	0.06530
3085.84518	0.06567
3084.55942	0.06586
3083.27365	0.06586
3081.98788	0.06573
3080.70211	0.06558
3079.41634	0.06549
3078.13057	0.06551
3076.84480	0.06562
3075.55903	0.06570
3074.27326	0.06563
3072.98750	0.06538
3071.70173	0.06502
3070.41596	0.06466
3069.13019	0.06436
3067.84442	0.06414
3066.55865	0.06392
3065.27288	0.06360
3063.98711	0.06321
3062.70135	0.06289
3061.41558	0.06282
3060.12981	0.06300
3058.84404	0.06331
3057.55827	0.06360
3056.27250	0.06372
3054.98673	0.06357
3053.70096	0.06318
3052.41519	0.06273
3051.12943	0.06236
3049.84366	0.06214
3048.55789	0.06206
3047.27212	0.06216
3045.98635	0.06249
3044.70058	0.06297
3043.41481	0.06336
3042.12904	0.06353
3040.84328	0.06353
3039.55751	0.06349
3038.27174	0.06338
3036.98597	0.06308
3035.70020	0.06258
3034.41443	0.06202
3033.12866	0.06151
3031.84289	0.06108
3030.55712	0.06076
3029.27136	0.06058
3027.98559	0.06060
3026.69982	0.06077
3025.41405	0.06099
3024.12828	0.06108
3022.84251	0.06094
3021.55674	0.06056
3020.27097	0.05997
3018.98521	0.05926
3017.69944	0.05865
3016.41367	0.05838
3015.12790	0.05856
3013.84213	0.05900
3012.55636	0.05943
3011.27059	0.05968
3009.98482	0.05973
3008.69905	0.05963
3007.41329	0.05937
3006.12752	0.05897
3004.84175	0.05853
3003.55598	0.05818
3002.27021	0.05806
3000.98444	0.05814
2999.69867	0.05827
2998.41290	0.05818
2997.12714	0.05781
2995.84137	0.05734
2994.55560	0.05704
2993.26983	0.05711
2991.98406	0.05748
2990.69829	0.05799
2989.41252	0.05846
2988.12675	0.05878
2986.84098	0.05891
2985.55522	0.05892
2984.26945	0.05891
2982.98368	0.05896
2981.69791	0.05907
2980.41214	0.05925
2979.12637	0.05955
2977.84060	0.06004
2976.55483	0.06067
2975.26907	0.06124
2973.98330	0.06153
2972.69753	0.06153
2971.41176	0.06163
2970.12599	0.06231
2968.84022	0.06358
2967.55445	0.06494
2966.26868	0.06591
2964.98291	0.06640
2963.69715	0.06668
2962.41138	0.06706
2961.12561	0.06765
2959.83984	0.06830
2958.55407	0.06887
2957.26830	0.06935
2955.98253	0.06983
2954.69676	0.07027
2953.41100	0.07048
2952.12523	0.07041
2950.83946	0.07022
2949.55369	0.07013
2948.26792	0.07023
2946.98215	0.07038
2945.69638	0.07043
2944.41061	0.07041
2943.12484	0.07042
2941.83908	0.07054
2940.55331	0.07080
2939.26754	0.07118
2937.98177	0.07167
2936.69600	0.07222
2935.41023	0.07276
2934.12446	0.07321
2932.83869	0.07353
2931.55293	0.07376
2930.26716	0.07408
2928.98139	0.07462
2927.69562	0.07530
2926.40985	0.07587
2925.12408	0.07611
2923.83831	0.07595
2922.55254	0.07543
2921.26677	0.07470
2919.98101	0.07400
2918.69524	0.07349
2917.40947	0.07309
2916.12370	0.07260
2914.83793	0.07200
2913.55216	0.07142
2912.26639	0.07096
2910.98062	0.07051
2909.69486	0.06994
2908.40909	0.06928
2907.12332	0.06868
2905.83755	0.06824
2904.55178	0.06789
2903.26601	0.06749
2901.98024	0.06695
2900.69447	0.06629
2899.40870	0.06564
2898.12294	0.06508
2896.83717	0.06463
2895.55140	0.06418
2894.26563	0.06362
2892.97986	0.06288
2891.69409	0.06205
2890.40832	0.06139
2889.12255	0.06115
2887.83678	0.06131
2886.55102	0.06154
2885.26525	0.06158
2883.97948	0.06144
2882.69371	0.06128
2881.40794	0.06117
2880.12217	0.06106
2878.83640	0.06093
2877.55063	0.06085
2876.26487	0.06088
2874.97910	0.06106
2873.69333	0.06134
2872.40756	0.06170
2871.12179	0.06210
2869.83602	0.06251
2868.55025	0.06283
2867.26448	0.06291
2865.97871	0.06267
2864.69295	0.06229
2863.40718	0.06205
2862.12141	0.06209
2860.83564	0.06226
2859.54987	0.06229
2858.26410	0.06208
2856.97833	0.06175
2855.69256	0.06149
2854.40680	0.06139
2853.12103	0.06135
2851.83526	0.06122
2850.54949	0.06086
2849.26372	0.06026
2847.97795	0.05954
2846.69218	0.05882
2845.40641	0.05818
2844.12064	0.05761
2842.83488	0.05714
2841.54911	0.05677
2840.26334	0.05633
2838.97757	0.05563
2837.69180	0.05469
2836.40603	0.05383
2835.12026	0.05334
2833.83449	0.05318
2832.54873	0.05308
2831.26296	0.05279
2829.97719	0.05227
2828.69142	0.05167
2827.40565	0.05112
2826.11988	0.05071
2824.83411	0.05043
2823.54834	0.05031
2822.26257	0.05036
2820.97681	0.05051
2819.69104	0.05061
2818.40527	0.05062
2817.11950	0.05057
2815.83373	0.05046
2814.54796	0.05019
2813.26219	0.04972
2811.97642	0.04921
2810.69066	0.04890
2809.40489	0.04887
2808.11912	0.04896
2806.83335	0.04901
2805.54758	0.04893
2804.26181	0.04869
2802.97604	0.04831
2801.69027	0.04795
2800.40450	0.04778
2799.11874	0.04782
2797.83297	0.04793
2796.54720	0.04798
2795.26143	0.04797
2793.97566	0.04795
2792.68989	0.04791
2791.40412	0.04777
2790.11835	0.04748
2788.83259	0.04712
2787.54682	0.04683
2786.26105	0.04665
2784.97528	0.04656
2783.68951	0.04649
2782.40374	0.04647
2781.11797	0.04649
2779.83220	0.04650
2778.54643	0.04648
2777.26067	0.04644
2775.97490	0.04642
2774.68913	0.04643
2773.40336	0.04647
2772.11759	0.04654
2770.83182	0.04658
2769.54605	0.04649
2768.26028	0.04627
2766.97452	0.04597
2765.68875	0.04563
2764.40298	0.04530
2763.11721	0.04505
2761.83144	0.04498
2760.54567	0.04505
2759.25990	0.04514
2757.97413	0.04506
2756.68836	0.04481
2755.40260	0.04454
2754.11683	0.04444
2752.83106	0.04455
2751.54529	0.04470
2750.25952	0.04472
2748.97375	0.04458
2747.68798	0.04431
2746.40221	0.04396
2745.11645	0.04362
2743.83068	0.04342
2742.54491	0.04341
2741.25914	0.04356
2739.97337	0.04379
2738.68760	0.04408
2737.40183	0.04437
2736.11606	0.04452
2734.83029	0.04440
2733.54453	0.04407
2732.25876	0.04380
2730.97299	0.04379
2729.68722	0.04405
2728.40145	0.04434
2727.11568	0.04446
2725.82991	0.04442
2724.54414	0.04428
2723.25838	0.04409
2721.97261	0.04377
2720.68684	0.04332
2719.40107	0.04288
2718.11530	0.04259
2716.82953	0.04247
2715.54376	0.04242
2714.25799	0.04234
2712.97222	0.04223
2711.68646	0.04215
2710.40069	0.04216
2709.11492	0.04228
2707.82915	0.04242
2706.54338	0.04250
2705.25761	0.04251
2703.97184	0.04257
2702.68607	0.04267
2701.40031	0.04269
2700.11454	0.04254
2698.82877	0.04228
2697.54300	0.04205
2696.25723	0.04188
2694.97146	0.04170
2693.68569	0.04155
2692.39992	0.04148
2691.11415	0.04151
2689.82839	0.04156
2688.54262	0.04157
2687.25685	0.04148
2685.97108	0.04134
2684.68531	0.04117
2683.39954	0.04100
2682.11377	0.04086
2680.82800	0.04078
2679.54224	0.04077
2678.25647	0.04081
2676.97070	0.04085
2675.68493	0.04088
2674.39916	0.04093
2673.11339	0.04103
2671.82762	0.04120
2670.54185	0.04136
2669.25608	0.04141
2667.97032	0.04135
2666.68455	0.04122
2665.39878	0.04106
2664.11301	0.04081
2662.82724	0.04050
2661.54147	0.04027
2660.25570	0.04021
2658.96993	0.04027
2657.68417	0.04030
2656.39840	0.04019
2655.11263	0.04000
2653.82686	0.03983
2652.54109	0.03978
2651.25532	0.03985
2649.96955	0.04003
2648.68378	0.04020
2647.39801	0.04024
2646.11225	0.04005
2644.82648	0.03963
2643.54071	0.03916
2642.25494	0.03895
2640.96917	0.03914
2639.68340	0.03951
2638.39763	0.03968
2637.11186	0.03946
2635.82609	0.03894
2634.54033	0.03833
2633.25456	0.03781
2631.96879	0.03752
2630.68302	0.03757
2629.39725	0.03789
2628.11148	0.03816
2626.82571	0.03807
2625.53994	0.03753
2624.25418	0.03680
2622.96841	0.03626
2621.68264	0.03612
2620.39687	0.03632
2619.11110	0.03653
2617.82533	0.03650
2616.53956	0.03619
2615.25379	0.03581
2613.96802	0.03557
2612.68226	0.03548
2611.39649	0.03537
2610.11072	0.03509
2608.82495	0.03464
2607.53918	0.03420
2606.25341	0.03392
2604.96764	0.03383
2603.68187	0.03387
2602.39611	0.03395
2601.11034	0.03396
2599.82457	0.03397
2598.53880	0.03415
2597.25303	0.03451
2595.96726	0.03466
2594.68149	0.03425
2593.39572	0.03346
2592.10995	0.03295
2590.82419	0.03314
2589.53842	0.03387
2588.25265	0.03461
2586.96688	0.03497
2585.68111	0.03493
2584.39534	0.03476
2583.10957	0.03457
2581.82380	0.03421
2580.53804	0.03358
2579.25227	0.03293
2577.96650	0.03262
2576.68073	0.03267
2575.39496	0.03279
2574.10919	0.03274
2572.82342	0.03260
2571.53765	0.03254
2570.25188	0.03266
2568.96612	0.03291
2567.68035	0.03319
2566.39458	0.03344
2565.10881	0.03359
2563.82304	0.03360
2562.53727	0.03340
2561.25150	0.03301
2559.96573	0.03264
2558.67997	0.03245
2557.39420	0.03248
2556.10843	0.03261
2554.82266	0.03279
2553.53689	0.03294
2552.25112	0.03297
2550.96535	0.03287
2549.67958	0.03280
2548.39381	0.03279
2547.10805	0.03269
2545.82228	0.03239
2544.53651	0.03202
2543.25074	0.03175
2541.96497	0.03147
2540.67920	0.03100
2539.39343	0.03045
2538.10766	0.03023
2536.82190	0.03054
2535.53613	0.03122
2534.25036	0.03187
2532.96459	0.03224
2531.67882	0.03231
2530.39305	0.03219
2529.10728	0.03202
2527.82151	0.03186
2526.53574	0.03173
2525.24998	0.03161
2523.96421	0.03148
2522.67844	0.03127
2521.39267	0.03093
2520.10690	0.03050
2518.82113	0.03012
2517.53536	0.02986
2516.24959	0.02966
2514.96383	0.02945
2513.67806	0.02927
2512.39229	0.02923
2511.10652	0.02934
2509.82075	0.02949
2508.53498	0.02954
2507.24921	0.02949
2505.96344	0.02947
2504.67767	0.02961
2503.39191	0.02995
2502.10614	0.03037
2500.82037	0.03074
2499.53460	0.03101
2498.24883	0.03119
2496.96306	0.03124
2495.67729	0.03103
2494.39152	0.03054
2493.10576	0.02996
2491.81999	0.02951
2490.53422	0.02924
2489.24845	0.02908
2487.96268	0.02906
2486.67691	0.02922
2485.39114	0.02947
2484.10537	0.02970
2482.81960	0.02999
2481.53384	0.03050
2480.24807	0.03112
2478.96230	0.03143
2477.67653	0.03118
2476.39076	0.03062
2475.10499	0.03020
2473.81922	0.03018
2472.53345	0.03039
2471.24769	0.03055
2469.96192	0.03055
2468.67615	0.03051
2467.39038	0.03059
2466.10461	0.03077
2464.81884	0.03083
2463.53307	0.03057
2462.24730	0.03001
2460.96153	0.02942
2459.67577	0.02905
2458.39000	0.02897
2457.10423	0.02904
2455.81846	0.02906
2454.53269	0.02893
2453.24692	0.02867
2451.96115	0.02841
2450.67538	0.02822
2449.38962	0.02811
2448.10385	0.02804
2446.81808	0.02802
2445.53231	0.02811
2444.24654	0.02830
2442.96077	0.02849
2441.67500	0.02864
2440.38923	0.02870
2439.10346	0.02866
2437.81770	0.02848
2436.53193	0.02821
2435.24616	0.02798
2433.96039	0.02798
2432.67462	0.02820
2431.38885	0.02833
2430.10308	0.02809
2428.81731	0.02755
2427.53155	0.02716
2426.24578	0.02722
2424.96001	0.02757
2423.67424	0.02780
2422.38847	0.02773
2421.10270	0.02756
2419.81693	0.02756
2418.53116	0.02776
2417.24539	0.02795
2415.95963	0.02794
2414.67386	0.02776
2413.38809	0.02752
2412.10232	0.02735
2410.81655	0.02728
2409.53078	0.02730
2408.24501	0.02740
2406.95924	0.02755
2405.67347	0.02763
2404.38771	0.02746
2403.10194	0.02705
2401.81617	0.02664
2400.53040	0.02648
2399.24463	0.02650
2397.95886	0.02661
2396.67309	0.02672
2395.38732	0.02689
2394.10156	0.02718
2392.81579	0.02756
2391.53002	0.02786
2390.24425	0.02799
2388.95848	0.02797
2387.67271	0.02793
2386.38694	0.02796
2385.10117	0.02803
2383.81540	0.02809
2382.52964	0.02817
2381.24387	0.02835
2379.95810	0.02861
2378.67233	0.02884
2377.38656	0.02900
2376.10079	0.02900
2374.81502	0.02897
2373.52925	0.02926
2372.24349	0.02980
2370.95772	0.03067
2369.67195	0.03113
2368.38618	0.03112
2367.10041	0.03109
2365.81464	0.03145
2364.52887	0.03162
2363.24310	0.03180
2361.95733	0.03209
2360.67157	0.03245
2359.38580	0.03208
2358.10003	0.03151
2356.81426	0.03099
2355.52849	0.03051
2354.24272	0.03015
2352.95695	0.02964
2351.67118	0.02947
2350.38542	0.03001
2349.09965	0.03045
2347.81388	0.03006
2346.52811	0.02993
2345.24234	0.03041
2343.95657	0.03092
2342.67080	0.03055
2341.38503	0.03021
2340.09926	0.03053
2338.81350	0.03071
2337.52773	0.03069
2336.24196	0.03086
2334.95619	0.03116
2333.67042	0.03118
2332.38465	0.03030
2331.09888	0.03046
2329.81311	0.03102
2328.52735	0.03015
2327.24158	0.03065
2325.95581	0.03185
2324.67004	0.03130
2323.38427	0.03090
2322.09850	0.03101
2320.81273	0.02954
2319.52696	0.02900
2318.24119	0.02904
2316.95543	0.02813
2315.66966	0.02788
2314.38389	0.02775
2313.09812	0.02715
2311.81235	0.02713
2310.52658	0.02691
2309.24081	0.02690
2307.95504	0.02732
2306.66928	0.02734
2305.38351	0.02746
2304.09774	0.02747
2302.81197	0.02736
2301.52620	0.02739
2300.24043	0.02723
2298.95466	0.02701
2297.66889	0.02659
2296.38312	0.02608
2295.09736	0.02566
2293.81159	0.02532
2292.52582	0.02512
2291.24005	0.02493
2289.95428	0.02484
2288.66851	0.02488
2287.38274	0.02495
2286.09697	0.02496
2284.81121	0.02485
2283.52544	0.02470
2282.23967	0.02456
2280.95390	0.02442
2279.66813	0.02425
2278.38236	0.02411
2277.09659	0.02400
2275.81082	0.02383
2274.52505	0.02350
2273.23929	0.02299
2271.95352	0.02233
2270.66775	0.02155
2269.38198	0.02075
2268.09621	0.02016
2266.81044	0.02001
2265.52467	0.02030
2264.23890	0.02074
2262.95314	0.02112
2261.66737	0.02144
2260.38160	0.02162
2259.09583	0.02145
2257.81006	0.02089
2256.52429	0.02024
2255.23852	0.01994
2253.95275	0.02015
2252.66698	0.02056
2251.38122	0.02075
2250.09545	0.02056
2248.80968	0.02018
2247.52391	0.02003
2246.23814	0.02008
2244.95237	0.02024
2243.66660	0.02039
2242.38083	0.02028
2241.09507	0.01981
2239.80930	0.01920
2238.52353	0.01899
2237.23776	0.01940
2235.95199	0.02001
2234.66622	0.02012
2233.38045	0.01946
2232.09468	0.01843
2230.80891	0.01769
2229.52315	0.01753
2228.23738	0.01779
2226.95161	0.01808
2225.66584	0.01815
2224.38007	0.01804
2223.09430	0.01798
2221.80853	0.01797
2220.52276	0.01769
2219.23700	0.01692
2217.95123	0.01598
2216.66546	0.01545
2215.37969	0.01540
2214.09392	0.01538
2212.80815	0.01519
2211.52238	0.01517
2210.23661	0.01568
2208.95084	0.01661
2207.66508	0.01753
2206.37931	0.01817
2205.09354	0.01849
2203.80777	0.01844
2202.52200	0.01795
2201.23623	0.01710
2199.95046	0.01604
2198.66469	0.01495
2197.37893	0.01405
2196.09316	0.01367
2194.80739	0.01392
2193.52162	0.01445
2192.23585	0.01475
2190.95008	0.01467
2189.66431	0.01432
2188.37854	0.01396
2187.09277	0.01385
2185.80701	0.01416
2184.52124	0.01462
2183.23547	0.01479
2181.94970	0.01463
2180.66393	0.01458
2179.37816	0.01485
2178.09239	0.01503
2176.80662	0.01470
2175.52085	0.01401
2174.23509	0.01353
2172.94932	0.01361
2171.66355	0.01400
2170.37778	0.01413
2169.09201	0.01363
2167.80624	0.01263
2166.52047	0.01156
2165.23470	0.01080
2163.94894	0.01039
2162.66317	0.00996
2161.37740	0.00900
2160.09163	0.00744
2158.80586	0.00597
2157.52009	0.00539
2156.23432	0.00573
2154.94855	0.00635
2153.66278	0.00686
2152.37702	0.00736
2151.09125	0.00795
2149.80548	0.00855
2148.51971	0.00908
2147.23394	0.00977
2145.94817	0.01085
2144.66240	0.01221
2143.37663	0.01330
2142.09087	0.01360
2140.80510	0.01319
2139.51933	0.01268
2138.23356	0.01266
2136.94779	0.01318
2135.66202	0.01398
2134.37625	0.01472
2133.09048	0.01512
2131.80471	0.01510
2130.51895	0.01484
2129.23318	0.01460
2127.94741	0.01447
2126.66164	0.01448
2125.37587	0.01483
2124.09010	0.01565
2122.80433	0.01668
2121.51856	0.01726
2120.23280	0.01696
2118.94703	0.01597
2117.66126	0.01499
2116.37549	0.01458
2115.08972	0.01473
2113.80395	0.01494
2112.51818	0.01481
2111.23241	0.01441
2109.94664	0.01413
2108.66088	0.01426
2107.37511	0.01468
2106.08934	0.01505
2104.80357	0.01516
2103.51780	0.01516
2102.23203	0.01531
2100.94626	0.01550
2099.66049	0.01478
2098.37473	0.01375
2097.08896	0.01275
2095.80319	0.01218
2094.51742	0.01226
2093.23165	0.01276
2091.94588	0.01326
2090.66011	0.01352
2089.37434	0.01359
2088.08857	0.01362
2086.80281	0.01366
2085.51704	0.01367
2084.23127	0.01370
2082.94550	0.01388
2081.65973	0.01429
2080.37396	0.01475
2079.08819	0.01491
2077.80242	0.01459
2076.51666	0.01393
2075.23089	0.01330
2073.94512	0.01288
2072.65935	0.01255
2071.37358	0.01212
2070.08781	0.01163
2068.80204	0.01128
2067.51627	0.01114
2066.23050	0.01106
2064.94474	0.01096
2063.65897	0.01095
2062.37320	0.01111
2061.08743	0.01137
2059.80166	0.01151
2058.51589	0.01134
2057.23012	0.01084
2055.94435	0.01014
2054.65859	0.00951
2053.37282	0.00918
2052.08705	0.00921
2050.80128	0.00941
2049.51551	0.00943
2048.22974	0.00905
2046.94397	0.00826
2045.65820	0.00733
2044.37243	0.00658
2043.08667	0.00623
2041.80090	0.00637
2040.51513	0.00690
2039.22936	0.00760
2037.94359	0.00813
2036.65782	0.00824
2035.37205	0.00794
2034.08628	0.00745
2032.80052	0.00688
2031.51475	0.00617
2030.22898	0.00530
2028.94321	0.00454
2027.65744	0.00416
2026.37167	0.00418
2025.08590	0.00440
2023.80013	0.00461
2022.51436	0.00474
2021.22860	0.00480
2019.94283	0.00487
2018.65706	0.00509
2017.37129	0.00545
2016.08552	0.00584
2014.79975	0.00610
2013.51398	0.00608
2012.22821	0.00571
2010.94245	0.00507
2009.65668	0.00446
2008.37091	0.00419
2007.08514	0.00436
2005.79937	0.00486
2004.51360	0.00555
2003.22783	0.00630
2001.94206	0.00700
2000.65629	0.00767
1999.37053	0.00847
1998.08476	0.00949
1996.79899	0.01057
1995.51322	0.01130
1994.22745	0.01139
1992.94168	0.01090
1991.65591	0.01025
1990.37014	0.00996
1989.08438	0.01036
1987.79861	0.01132
1986.51284	0.01238
1985.22707	0.01302
1983.94130	0.01293
1982.65553	0.01208
1981.36976	0.01074
1980.08399	0.00938
1978.79822	0.00833
1977.51246	0.00755
1976.22669	0.00674
1974.94092	0.00591
1973.65515	0.00556
1972.36938	0.00617
1971.08361	0.00761
1969.79784	0.00921
1968.51207	0.01032
1967.22631	0.01080
1965.94054	0.01084
1964.65477	0.01066
1963.36900	0.01040
1962.08323	0.01009
1960.79746	0.00978
1959.51169	0.00953
1958.22592	0.00952
1956.94015	0.00987
1955.65439	0.01051
1954.36862	0.01119
1953.08285	0.01164
1951.79708	0.01178
1950.51131	0.01174
1949.22554	0.01178
1947.93977	0.01212
1946.65400	0.01288
1945.36823	0.01396
1944.08247	0.01508
1942.79670	0.01578
1941.51093	0.01569
1940.22516	0.01484
1938.93939	0.01377
1937.65362	0.01313
1936.36785	0.01314
1935.08208	0.01353
1933.79632	0.01391
1932.51055	0.01408
1931.22478	0.01405
1929.93901	0.01397
1928.65324	0.01392
1927.36747	0.01387
1926.08170	0.01373
1924.79593	0.01353
1923.51016	0.01341
1922.22440	0.01348
1920.93863	0.01366
1919.65286	0.01375
1918.36709	0.01364
1917.08132	0.01343
1915.79555	0.01334
1914.50978	0.01345
1913.22401	0.01368
1911.93825	0.01390
1910.65248	0.01406
1909.36671	0.01417
1908.08094	0.01424
1906.79517	0.01429
1905.50940	0.01427
1904.22363	0.01413
1902.93786	0.01386
1901.65209	0.01360
1900.36633	0.01352
1899.08056	0.01368
1897.79479	0.01397
1896.50902	0.01421
1895.22325	0.01434
1893.93748	0.01436
1892.65171	0.01429
1891.36594	0.01421
1890.08018	0.01420
1888.79441	0.01436
1887.50864	0.01468
1886.22287	0.01497
1884.93710	0.01509
1883.65133	0.01502
1882.36556	0.01490
1881.07979	0.01480
1879.79402	0.01474
1878.50826	0.01468
1877.22249	0.01467
1875.93672	0.01473
1874.65095	0.01484
1873.36518	0.01496
1872.07941	0.01505
1870.79364	0.01506
1869.50787	0.01492
1868.22211	0.01466
1866.93634	0.01445
1865.65057	0.01443
1864.36480	0.01460
1863.07903	0.01486
1861.79326	0.01515
1860.50749	0.01547
1859.22172	0.01574
1857.93595	0.01583
1856.65019	0.01569
1855.36442	0.01540
1854.07865	0.01513
1852.79288	0.01496
1851.50711	0.01484
1850.22134	0.01469
1848.93557	0.01457
1847.64980	0.01452
1846.36404	0.01453
1845.07827	0.01449
1843.79250	0.01435
1842.50673	0.01421
1841.22096	0.01422
1839.93519	0.01438
1838.64942	0.01456
1837.36365	0.01462
1836.07788	0.01452
1834.79212	0.01432
1833.50635	0.01413
1832.22058	0.01402
1830.93481	0.01403
1829.64904	0.01413
1828.36327	0.01425
1827.07750	0.01427
1825.79173	0.01419
1824.50597	0.01408
1823.22020	0.01411
1821.93443	0.01430
1820.64866	0.01458
1819.36289	0.01487
1818.07712	0.01512
1816.79135	0.01532
1815.50558	0.01546
1814.21981	0.01557
1812.93405	0.01567
1811.64828	0.01579
1810.36251	0.01592
1809.07674	0.01601
1807.79097	0.01605
1806.50520	0.01609
1805.21943	0.01614
1803.93366	0.01618
1802.64790	0.01614
1801.36213	0.01601
1800.07636	0.01586
1798.79059	0.01580
1797.50482	0.01584
1796.21905	0.01591
1794.93328	0.01593
1793.64751	0.01589
1792.36174	0.01581
1791.07598	0.01574
1789.79021	0.01574
1788.50444	0.01579
1787.21867	0.01583
1785.93290	0.01580
1784.64713	0.01572
1783.36136	0.01567
1782.07559	0.01577
1780.78983	0.01601
1779.50406	0.01630
1778.21829	0.01648
1776.93252	0.01647
1775.64675	0.01634
1774.36098	0.01623
1773.07521	0.01626
1771.78944	0.01641
1770.50367	0.01660
1769.21791	0.01672
1767.93214	0.01675
1766.64637	0.01669
1765.36060	0.01665
1764.07483	0.01672
1762.78906	0.01684
1761.50329	0.01696
1760.21752	0.01702
1758.93176	0.01707
1757.64599	0.01714
1756.36022	0.01721
1755.07445	0.01727
1753.78868	0.01731
1752.50291	0.01733
1751.21714	0.01732
1749.93137	0.01735
1748.64560	0.01747
1747.35984	0.01764
1746.07407	0.01777
1744.78830	0.01781
1743.50253	0.01781
1742.21676	0.01790
1740.93099	0.01809
1739.64522	0.01825
1738.35945	0.01831
1737.07369	0.01831
1735.78792	0.01834
1734.50215	0.01840
1733.21638	0.01846
1731.93061	0.01852
1730.64484	0.01863
1729.35907	0.01873
1728.07330	0.01877
1726.78753	0.01879
1725.50177	0.01889
1724.21600	0.01908
1722.93023	0.01929
1721.64446	0.01946
1720.35869	0.01965
1719.07292	0.01994
1717.78715	0.02032
1716.50138	0.02070
1715.21561	0.02103
1713.92985	0.02133
1712.64408	0.02163
1711.35831	0.02198
1710.07254	0.02239
1708.78677	0.02283
1707.50100	0.02323
1706.21523	0.02357
1704.92946	0.02382
1703.64370	0.02404
1702.35793	0.02434
1701.07216	0.02469
1699.78639	0.02498
1698.50062	0.02525
1697.21485	0.02562
1695.92908	0.02608
1694.64331	0.02645
1693.35754	0.02672
1692.07178	0.02701
1690.78601	0.02737
1689.50024	0.02777
1688.21447	0.02818
1686.92870	0.02863
1685.64293	0.02910
1684.35716	0.02950
1683.07139	0.02979
1681.78563	0.03007
1680.49986	0.03038
1679.21409	0.03071
1677.92832	0.03105
1676.64255	0.03145
1675.35678	0.03188
1674.07101	0.03225
1672.78524	0.03256
1671.49947	0.03288
1670.21371	0.03326
1668.92794	0.03368
1667.64217	0.03411
1666.35640	0.03450
1665.07063	0.03486
1663.78486	0.03519
1662.49909	0.03550
1661.21332	0.03580
1659.92756	0.03610
1658.64179	0.03634
1657.35602	0.03649
1656.07025	0.03660
1654.78448	0.03678
1653.49871	0.03703
1652.21294	0.03725
1650.92717	0.03742
1649.64140	0.03764
1648.35564	0.03791
1647.06987	0.03818
1645.78410	0.03838
1644.49833	0.03853
1643.21256	0.03864
1641.92679	0.03871
1640.64102	0.03872
1639.35525	0.03869
1638.06949	0.03868
1636.78372	0.03871
1635.49795	0.03877
1634.21218	0.03882
1632.92641	0.03892
1631.64064	0.03908
1630.35487	0.03923
1629.06910	0.03929
1627.78333	0.03928
1626.49757	0.03926
1625.21180	0.03929
1623.92603	0.03937
1622.64026	0.03947
1621.35449	0.03958
1620.06872	0.03973
1618.78295	0.03996
1617.49718	0.04023
1616.21142	0.04042
1614.92565	0.04050
1613.63988	0.04054
1612.35411	0.04064
1611.06834	0.04080
1609.78257	0.04100
1608.49680	0.04121
1607.21103	0.04142
1605.92526	0.04161
1604.63950	0.04177
1603.35373	0.04193
1602.06796	0.04209
1600.78219	0.04227
1599.49642	0.04245
1598.21065	0.04263
1596.92488	0.04282
1595.63911	0.04304
1594.35335	0.04328
1593.06758	0.04351
1591.78181	0.04369
1590.49604	0.04381
1589.21027	0.04387
1587.92450	0.04393
1586.63873	0.04403
1585.35296	0.04419
1584.06719	0.04442
1582.78143	0.04467
1581.49566	0.04494
1580.20989	0.04519
1578.92412	0.04544
1577.63835	0.04573
1576.35258	0.04600
1575.06681	0.04618
1573.78104	0.04630
1572.49528	0.04644
1571.20951	0.04660
1569.92374	0.04676
1568.63797	0.04688
1567.35220	0.04700
1566.06643	0.04714
1564.78066	0.04729
1563.49489	0.04741
1562.20912	0.04750
1560.92336	0.04758
1559.63759	0.04762
1558.35182	0.04761
1557.06605	0.04760
1555.78028	0.04768
1554.49451	0.04782
1553.20874	0.04795
1551.92297	0.04806
1550.63721	0.04816
1549.35144	0.04823
1548.06567	0.04823
1546.77990	0.04818
1545.49413	0.04807
1544.20836	0.04787
1542.92259	0.04762
1541.63682	0.04745
1540.35105	0.04738
1539.06529	0.04735
1537.77952	0.04731
1536.49375	0.04730
1535.20798	0.04738
1533.92221	0.04756
1532.63644	0.04780
1531.35067	0.04810
1530.06490	0.04845
1528.77914	0.04886
1527.49337	0.04931
1526.20760	0.04982
1524.92183	0.05039
1523.63606	0.05105
1522.35029	0.05179
1521.06452	0.05261
1519.77875	0.05350
1518.49298	0.05449
1517.20722	0.05553
1515.92145	0.05658
1514.63568	0.05767
1513.34991	0.05883
1512.06414	0.06007
1510.77837	0.06134
1509.49260	0.06268
1508.20683	0.06414
1506.92107	0.06562
1505.63530	0.06701
1504.34953	0.06826
1503.06376	0.06947
1501.77799	0.07065
1500.49222	0.07176
1499.20645	0.07276
1497.92068	0.07367
1496.63491	0.07452
1495.34915	0.07531
1494.06338	0.07610
1492.77761	0.07692
1491.49184	0.07782
1490.20607	0.07880
1488.92030	0.07989
1487.63453	0.08111
1486.34876	0.08243
1485.06299	0.08381
1483.77723	0.08523
1482.49146	0.08669
1481.20569	0.08817
1479.91992	0.08965
1478.63415	0.09105
1477.34838	0.09235
1476.06261	0.09353
1474.77684	0.09465
1473.49108	0.09572
1472.20531	0.09671
1470.91954	0.09755
1469.63377	0.09823
1468.34800	0.09874
1467.06223	0.09913
1465.77646	0.09943
1464.49069	0.09968
1463.20492	0.09989
1461.91916	0.10012
1460.63339	0.10045
1459.34762	0.10097
1458.06185	0.10165
1456.77608	0.10236
1455.49031	0.10298
1454.20454	0.10354
1452.91877	0.10410
1451.63301	0.10467
1450.34724	0.10519
1449.06147	0.10559
1447.77570	0.10581
1446.48993	0.10584
1445.20416	0.10572
1443.91839	0.10547
1442.63262	0.10509
1441.34685	0.10456
1440.06109	0.10395
1438.77532	0.10338
1437.48955	0.10297
1436.20378	0.10279
1434.91801	0.10285
1433.63224	0.10318
1432.34647	0.10376
1431.06070	0.10455
1429.77494	0.10553
1428.48917	0.10674
1427.20340	0.10822
1425.91763	0.10990
1424.63186	0.11165
1423.34609	0.11334
1422.06032	0.11497
1420.77455	0.11654
1419.48878	0.11798
1418.20302	0.11917
1416.91725	0.12010
1415.63148	0.12082
1414.34571	0.12134
1413.05994	0.12165
1411.77417	0.12171
1410.48840	0.12150
1409.20263	0.12102
1407.91687	0.12028
1406.63110	0.11928
1405.34533	0.11801
1404.05956	0.11648
1402.77379	0.11473
1401.48802	0.11282
1400.20225	0.11081
1398.91648	0.10873
1397.63071	0.10661
1396.34495	0.10444
1395.05918	0.10221
1393.77341	0.09997
1392.48764	0.09775
1391.20187	0.09559
1389.91610	0.09348
1388.63033	0.09143
1387.34456	0.08946
1386.05880	0.08759
1384.77303	0.08576
1383.48726	0.08389
1382.20149	0.08190
1380.91572	0.07981
1379.62995	0.07768
1378.34418	0.07553
1377.05841	0.07333
1375.77264	0.07103
1374.48688	0.06865
1373.20111	0.06627
1371.91534	0.06397
1370.62957	0.06183
1369.34380	0.05984
1368.05803	0.05799
1366.77226	0.05628
1365.48649	0.05471
1364.20073	0.05321
1362.91496	0.05175
1361.62919	0.05033
1360.34342	0.04899
1359.05765	0.04777
1357.77188	0.04665
1356.48611	0.04557
1355.20034	0.04453
1353.91457	0.04354
1352.62881	0.04260
1351.34304	0.04171
1350.05727	0.04090
1348.77150	0.04018
1347.48573	0.03955
1346.19996	0.03895
1344.91419	0.03834
1343.62842	0.03772
1342.34266	0.03711
1341.05689	0.03656
1339.77112	0.03608
1338.48535	0.03562
1337.19958	0.03514
1335.91381	0.03459
1334.62804	0.03401
1333.34227	0.03348
1332.05650	0.03307
1330.77074	0.03274
1329.48497	0.03244
1328.19920	0.03215
1326.91343	0.03186
1325.62766	0.03161
1324.34189	0.03137
1323.05612	0.03108
1321.77035	0.03073
1320.48459	0.03035
1319.19882	0.02999
1317.91305	0.02966
1316.62728	0.02940
1315.34151	0.02919
1314.05574	0.02902
1312.76997	0.02887
1311.48420	0.02872
1310.19843	0.02853
1308.91267	0.02827
1307.62690	0.02796
1306.34113	0.02764
1305.05536	0.02736
1303.76959	0.02714
1302.48382	0.02697
1301.19805	0.02683
1299.91228	0.02669
1298.62652	0.02653
1297.34075	0.02636
1296.05498	0.02621
1294.76921	0.02608
1293.48344	0.02597
1292.19767	0.02586
1290.91190	0.02572
1289.62613	0.02558
1288.34036	0.02540
1287.05460	0.02519
1285.76883	0.02495
1284.48306	0.02475
1283.19729	0.02461
1281.91152	0.02452
1280.62575	0.02444
1279.33998	0.02434
1278.05421	0.02422
1276.76845	0.02412
1275.48268	0.02402
1274.19691	0.02390
1272.91114	0.02374
1271.62537	0.02354
1270.33960	0.02335
1269.05383	0.02322
1267.76806	0.02315
1266.48229	0.02310
1265.19653	0.02302
1263.91076	0.02290
1262.62499	0.02280
1261.33922	0.02274
1260.05345	0.02271
1258.76768	0.02266
1257.48191	0.02259
1256.19614	0.02248
1254.91037	0.02238
1253.62461	0.02230
1252.33884	0.02223
1251.05307	0.02219
1249.76730	0.02215
1248.48153	0.02208
1247.19576	0.02196
1245.90999	0.02181
1244.62422	0.02169
1243.33846	0.02165
1242.05269	0.02166
1240.76692	0.02164
1239.48115	0.02156
1238.19538	0.02142
1236.90961	0.02126
1235.62384	0.02111
1234.33807	0.02100
1233.05230	0.02093
1231.76654	0.02089
1230.48077	0.02086
1229.19500	0.02084
1227.90923	0.02081
1226.62346	0.02077
1225.33769	0.02071
1224.05192	0.02065
1222.76615	0.02059
1221.48039	0.02052
1220.19462	0.02043
1218.90885	0.02032
1217.62308	0.02021
1216.33731	0.02014
1215.05154	0.02009
1213.76577	0.02006
1212.48000	0.02002
1211.19423	0.01999
1209.90847	0.01998
1208.62270	0.01999
1207.33693	0.01999
1206.05116	0.01995
1204.76539	0.01987
1203.47962	0.01978
1202.19385	0.01974
1200.90808	0.01980
1199.62232	0.01996
1198.33655	0.02004
1197.05078	0.02003
1195.76501	0.01996
1194.47924	0.01986
1193.19347	0.01980
1191.90770	0.01981
1190.62193	0.01986
1189.33616	0.01994
1188.05040	0.02004
1186.76463	0.02013
1185.47886	0.02016
1184.19309	0.02009
1182.90732	0.01998
1181.62155	0.01987
1180.33578	0.01986
1179.05001	0.01992
1177.76425	0.01999
1176.47848	0.02000
1175.19271	0.01992
1173.90694	0.01983
1172.62117	0.01981
1171.33540	0.01989
1170.04963	0.02001
1168.76386	0.02014
1167.47809	0.02025
1166.19233	0.02034
1164.90656	0.02040
1163.62079	0.02042
1162.33502	0.02045
1161.04925	0.02056
1159.76348	0.02076
1158.47771	0.02100
1157.19194	0.02121
1155.90618	0.02139
1154.62041	0.02158
1153.33464	0.02181
1152.04887	0.02208
1150.76310	0.02238
1149.47733	0.02271
1148.19156	0.02311
1146.90579	0.02357
1145.62002	0.02407
1144.33426	0.02461
1143.04849	0.02520
1141.76272	0.02590
1140.47695	0.02671
1139.19118	0.02765
1137.90541	0.02876
1136.61964	0.03004
1135.33387	0.03144
1134.04811	0.03287
1132.76234	0.03438
1131.47657	0.03608
1130.19080	0.03808
1128.90503	0.04037
1127.61926	0.04292
1126.33349	0.04569
1125.04772	0.04867
1123.76195	0.05184
1122.47619	0.05514
1121.19042	0.05854
1119.90465	0.06201
1118.61888	0.06558
1117.33311	0.06925
1116.04734	0.07298
1114.76157	0.07671
1113.47580	0.08037
1112.19004	0.08394
1110.90427	0.08740
1109.61850	0.09077
1108.33273	0.09406
1107.04696	0.09729
1105.76119	0.10041
1104.47542	0.10342
1103.18965	0.10632
1101.90388	0.10919
1100.61812	0.11204
1099.33235	0.11486
1098.04658	0.11759
1096.76081	0.12021
1095.47504	0.12270
1094.18927	0.12501
1092.90350	0.12713
1091.61773	0.12909
1090.33197	0.13095
1089.04620	0.13276
1087.76043	0.13454
1086.47466	0.13629
1085.18889	0.13799
1083.90312	0.13966
1082.61735	0.14140
1081.33158	0.14336
1080.04581	0.14562
1078.76005	0.14816
1077.47428	0.15085
1076.18851	0.15364
1074.90274	0.15652
1073.61697	0.15955
1072.33120	0.16277
1071.04543	0.16615
1069.75966	0.16963
1068.47390	0.17313
1067.18813	0.17664
1065.90236	0.18020
1064.61659	0.18387
1063.33082	0.18763
1062.04505	0.19143
1060.75928	0.19516
1059.47351	0.19878
1058.18774	0.20230
1056.90198	0.20576
1055.61621	0.20919
1054.33044	0.21263
1053.04467	0.21610
1051.75890	0.21963
1050.47313	0.22322
1049.18736	0.22689
1047.90159	0.23064
1046.61583	0.23445
1045.33006	0.23832
1044.04429	0.24231
1042.75852	0.24643
1041.47275	0.25065
1040.18698	0.25487
1038.90121	0.25899
1037.61544	0.26301
1036.32967	0.26698
1035.04391	0.27098
1033.75814	0.27499
1032.47237	0.27891
1031.18660	0.28258
1029.90083	0.28589
1028.61506	0.28880
1027.32929	0.29130
1026.04352	0.29340
1024.75775	0.29509
1023.47199	0.29635
1022.18622	0.29713
1020.90045	0.29740
1019.61468	0.29715
1018.32891	0.29636
1017.04314	0.29495
1015.75737	0.29287
1014.47160	0.29010
1013.18584	0.28666
1011.90007	0.28255
1010.61430	0.27778
1009.32853	0.27234
1008.04276	0.26626
1006.75699	0.25963
1005.47122	0.25251
1004.18545	0.24495
1002.89968	0.23693
1001.61392	0.22848
1000.32815	0.21971
999.04238	0.21078
997.75661	0.20181
996.47084	0.19289
995.18507	0.18409
993.89930	0.17549
992.61353	0.16717
991.32777	0.15918
990.04200	0.15154
988.75623	0.14430
987.47046	0.13751
986.18469	0.13113
984.89892	0.12512
983.61315	0.11941
982.32738	0.11410
981.04161	0.10929
979.75585	0.10503
978.47008	0.10125
977.18431	0.09785
975.89854	0.09481
974.61277	0.09216
973.32700	0.09003
972.04123	0.08850
970.75546	0.08762
969.46970	0.08735
968.18393	0.08770
966.89816	0.08865
965.61239	0.09011
964.32662	0.09181
963.04085	0.09332
961.75508	0.09425
960.46931	0.09435
959.18354	0.09357
957.89778	0.09198
956.61201	0.08975
955.32624	0.08709
954.04047	0.08427
952.75470	0.08144
951.46893	0.07867
950.18316	0.07597
948.89739	0.07338
947.61163	0.07097
946.32586	0.06873
945.04009	0.06657
943.75432	0.06444
942.46855	0.06240
941.18278	0.06053
939.89701	0.05886
938.61124	0.05732
937.32547	0.05583
936.03971	0.05437
934.75394	0.05296
933.46817	0.05163
932.18240	0.05036
930.89663	0.04920
929.61086	0.04816
928.32509	0.04727
927.03932	0.04653
925.75356	0.04594
924.46779	0.04547
923.18202	0.04503
921.89625	0.04455
920.61048	0.04402
919.32471	0.04347
918.03894	0.04293
916.75317	0.04239
915.46740	0.04185
914.18164	0.04134
912.89587	0.04090
911.61010	0.04053
910.32433	0.04019
909.03856	0.03986
907.75279	0.03951
906.46702	0.03914
905.18125	0.03879
903.89549	0.03848
902.60972	0.03821
901.32395	0.03798
900.03818	0.03779
898.75241	0.03757
897.46664	0.03730
896.18087	0.03700
894.89510	0.03681
893.60933	0.03682
892.32357	0.03701
891.03780	0.03731
889.75203	0.03773
888.46626	0.03843
887.18049	0.03958
885.89472	0.04137
884.60895	0.04394
883.32318	0.04727
882.03742	0.05101
880.75165	0.05461
879.46588	0.05756
878.18011	0.05975
876.89434	0.06151
875.60857	0.06332
874.32280	0.06532
873.03703	0.06714
871.75126	0.06807
870.46550	0.06761
869.17973	0.06578
867.89396	0.06301
866.60819	0.05976
865.32242	0.05632
864.03665	0.05288
862.75088	0.04964
861.46511	0.04681
860.17935	0.04449
858.89358	0.04266
857.60781	0.04119
856.32204	0.04001
855.03627	0.03905
853.75050	0.03830
852.46473	0.03777
851.17896	0.03741
849.89319	0.03713
848.60743	0.03687
847.32166	0.03660
846.03589	0.03634
844.75012	0.03610
843.46435	0.03585
842.17858	0.03558
840.89281	0.03530
839.60704	0.03506
838.32128	0.03486
837.03551	0.03465
835.74974	0.03440
834.46397	0.03413
833.17820	0.03388
831.89243	0.03368
830.60666	0.03350
829.32089	0.03334
828.03512	0.03320
826.74936	0.03307
825.46359	0.03294
824.17782	0.03284
822.89205	0.03280
821.60628	0.03282
820.32051	0.03285
819.03474	0.03289
817.74897	0.03293
816.46321	0.03299
815.17744	0.03301
813.89167	0.03291
812.60590	0.03265
811.32013	0.03236
810.03436	0.03218
808.74859	0.03213
807.46282	0.03216
806.17705	0.03218
804.89129	0.03219
803.60552	0.03219
802.31975	0.03218
801.03398	0.03212
799.74821	0.03201
798.46244	0.03190
797.17667	0.03186
795.89090	0.03193
794.60513	0.03203
793.31937	0.03207
792.03360	0.03199
790.74783	0.03183
789.46206	0.03165
788.17629	0.03152
786.89052	0.03145
785.60475	0.03140
784.31898	0.03128
783.03322	0.03111
781.74745	0.03097
780.46168	0.03098
779.17591	0.03113
777.89014	0.03131
776.60437	0.03141
775.31860	0.03138
774.03283	0.03123
772.74706	0.03105
771.46130	0.03095
770.17553	0.03100
768.88976	0.03119
767.60399	0.03141
766.31822	0.03156
765.03245	0.03158
763.74668	0.03154
762.46091	0.03152
761.17515	0.03160
759.88938	0.03178
758.60361	0.03201
757.31784	0.03221
756.03207	0.03231
754.74630	0.03226
753.46053	0.03212
752.17476	0.03192
750.88899	0.03169
749.60323	0.03143
748.31746	0.03120
747.03169	0.03107
745.74592	0.03103
744.46015	0.03105
743.17438	0.03104
741.88861	0.03093
740.60284	0.03074
739.31708	0.03056
738.03131	0.03053
736.74554	0.03065
735.45977	0.03081
734.17400	0.03091
732.88823	0.03096
731.60246	0.03104
730.31669	0.03121
729.03092	0.03147
727.74516	0.03177
726.45939	0.03202
725.17362	0.03213
723.88785	0.03209
722.60208	0.03189
721.31631	0.03163
720.03054	0.03144
718.74477	0.03135
717.45901	0.03131
716.17324	0.03131
714.88747	0.03132
713.60170	0.03134
712.31593	0.03134
711.03016	0.03131
709.74439	0.03127
708.45862	0.03124
707.17285	0.03124
705.88709	0.03126
704.60132	0.03130
703.31555	0.03135
702.02978	0.03140
700.74401	0.03140
699.45824	0.03133
698.17247	0.03121
696.88670	0.03110
695.60094	0.03106
694.31517	0.03112
693.02940	0.03123
691.74363	0.03131
690.45786	0.03132
689.17209	0.03126
687.88632	0.03115
686.60055	0.03103
685.31478	0.03093
684.02902	0.03086
682.74325	0.03083
681.45748	0.03078
680.17171	0.03069
678.88594	0.03060
677.60017	0.03054
676.31440	0.03053
675.02863	0.03059
673.74287	0.03073
672.45710	0.03107
671.17133	0.03180
669.88556	0.03250
668.59979	0.03202
667.31402	0.03202
666.02825	0.03295
664.74248	0.03238
663.45671	0.03171
662.17095	0.03137
660.88518	0.03109
659.59941	0.03083
658.31364	0.03063
657.02787	0.03054
655.74210	0.03054
654.45633	0.03061
653.17056	0.03072
651.88480	0.03084
650.59903	0.03096
649.31326	0.03105
648.02749	0.03114
646.74172	0.03121
645.45595	0.03128
644.17018	0.03139
642.88441	0.03154
641.59864	0.03172
640.31288	0.03193
639.02711	0.03217
637.74134	0.03244
636.45557	0.03276
635.16980	0.03316
633.88403	0.03363
632.59826	0.03412
631.31249	0.03448
630.02673	0.03439
628.74096	0.03406
627.45519	0.03458
626.16942	0.03425
624.88365	0.03335
623.59788	0.03242
622.31211	0.03194
621.02634	0.03288
619.74057	0.03632
618.45481	0.04230
617.16904	0.04932
615.88327	0.05538
614.59750	0.05947
613.31173	0.06230
612.02596	0.06562
610.74019	0.07071
609.45442	0.07741
608.16866	0.08450
606.88289	0.09078
605.59712	0.09567
604.31135	0.09912
603.02558	0.10135
601.73981	0.10248
600.45404	0.10234
599.16827	0.10064
597.88250	0.09748
596.59674	0.09346
595.31097	0.08951
594.02520	0.08635
592.73943	0.08418
591.45366	0.08278
590.16789	0.08190
588.88212	0.08146
587.59635	0.08157
586.31059	0.08233
585.02482	0.08367
583.73905	0.08548
582.45328	0.08765
581.16751	0.09015
579.88174	0.09292
578.59597	0.09586
577.31020	0.09890
576.02443	0.10197
574.73867	0.10495
573.45290	0.10774
572.16713	0.11040
570.88136	0.11315
569.59559	0.11631
568.30982	0.12006
567.02405	0.12437
565.73828	0.12887
564.45251	0.13294
563.16675	0.13586
561.88098	0.13705
560.59521	0.13625
559.30944	0.13341
558.02367	0.12867
556.73790	0.12241
555.45213	0.11520
554.16636	0.10766
552.88060	0.10028
551.59483	0.09334
550.30906	0.08695
549.02329	0.08116
547.73752	0.07605
546.45175	0.07167
545.16598	0.06797
543.88021	0.06482
542.59444	0.06204
541.30868	0.05949
540.02291	0.05717
538.73714	0.05506
537.45137	0.05318
536.16560	0.05151
534.87983	0.05001
533.59406	0.04865
532.30829	0.04736
531.02253	0.04609
529.73676	0.04482
528.45099	0.04358
527.16522	0.04241
525.87945	0.04139
524.59368	0.04052
523.30791	0.03981
522.02214	0.03922
520.73637	0.03875
519.45061	0.03838
518.16484	0.03804
516.87907	0.03760
515.59330	0.03701
514.30753	0.03632
513.02176	0.03561
511.73599	0.03495
510.45022	0.03437
509.16446	0.03385
507.87869	0.03333
506.59292	0.03281
505.30715	0.03233
504.02138	0.03193
502.73561	0.03163
501.44984	0.03141
500.16407	0.03120
498.87830	0.03097
497.59254	0.03071
496.30677	0.03044
495.02100	0.03020
493.73523	0.02996
492.44946	0.02970
491.16369	0.02943
489.87792	0.02920
488.59215	0.02903
487.30639	0.02895
486.02062	0.02890
484.73485	0.02887
483.44908	0.02887
482.16331	0.02891
480.87754	0.02899
479.59177	0.02914
478.30600	0.02937
477.02023	0.02971
475.73447	0.03012
474.44870	0.03053
473.16293	0.03092
471.87716	0.03127
470.59139	0.03156
469.30562	0.03173
468.01985	0.03169
466.73408	0.03145
465.44832	0.03105
464.16255	0.03056
462.87678	0.03006
461.59101	0.02960
460.30524	0.02922
459.01947	0.02892
457.73370	0.02866
456.44793	0.02838
455.16216	0.02802
453.87640	0.02757
452.59063	0.02710
451.30486	0.02668
450.01909	0.02640
448.73332	0.02629
447.44755	0.02631
446.16178	0.02628
444.87601	0.02613
443.59025	0.02588
442.30448	0.02563
441.01871	0.02543
439.73294	0.02524
438.44717	0.02504
437.16140	0.02487
435.87563	0.02479
434.58986	0.02483
433.30409	0.02496
432.01833	0.02508
430.73256	0.02513
429.44679	0.02508
428.16102	0.02496
426.87525	0.02481
425.58948	0.02466
424.30371	0.02453
423.01794	0.02442
421.73218	0.02433
420.44641	0.02423
419.16064	0.02412
417.87487	0.02401
416.58910	0.02391
415.30333	0.02384
414.01756	0.02380
412.73179	0.02378
411.44602	0.02378
410.16026	0.02378
408.87449	0.02380
407.58872	0.02383
406.30295	0.02387
405.01718	0.02394
403.73141	0.02404
402.44564	0.02415
401.15987	0.02427
399.87411	0.02436
