3997.45528	0.06340
3996.16951	0.06273
3994.88374	0.06229
3993.59798	0.06239
3992.31221	0.06298
3991.02644	0.06350
3989.74067	0.06341
3988.45490	0.06271
3987.16913	0.06194
3985.88336	0.06170
3984.59759	0.06220
3983.31183	0.06317
3982.02606	0.06417
3980.74029	0.06492
3979.45452	0.06545
3978.16875	0.06588
3976.88298	0.06621
3975.59721	0.06620
3974.31144	0.06554
3973.02567	0.06425
3971.73991	0.06286
3970.45414	0.06197
3969.16837	0.06175
3967.88260	0.06182
3966.59683	0.06177
3965.31106	0.06150
3964.02529	0.06102
3962.73952	0.06047
3961.45376	0.06007
3960.16799	0.06019
3958.88222	0.06103
3957.59645	0.06237
3956.31068	0.06369
3955.02491	0.06448
3953.73914	0.06447
3952.45337	0.06372
3951.16760	0.06256
3949.88184	0.06145
3948.59607	0.06064
3947.31030	0.05996
3946.02453	0.05928
3944.73876	0.05886
3943.45299	0.05916
3942.16722	0.06023
3940.88145	0.06159
3939.59569	0.06259
3938.30992	0.06289
3937.02415	0.06249
3935.73838	0.06167
3934.45261	0.06082
3933.16684	0.06019
3931.88107	0.05980
3930.59530	0.05958
3929.30953	0.05953
3928.02377	0.05967
3926.73800	0.05996
3925.45223	0.06019
3924.16646	0.06021
3922.88069	0.06008
3921.59492	0.06007
3920.30915	0.06028
3919.02338	0.06054
3917.73762	0.06055
3916.45185	0.06019
3915.16608	0.05955
3913.88031	0.05883
3912.59454	0.05824
3911.30877	0.05795
3910.02300	0.05809
3908.73723	0.05855
3907.45146	0.05902
3906.16570	0.05918
3904.87993	0.05896
3903.59416	0.05867
3902.30839	0.05876
3901.02262	0.05939
3899.73685	0.06021
3898.45108	0.06066
3897.16531	0.06046
3895.87955	0.05974
3894.59378	0.05877
3893.30801	0.05783
3892.02224	0.05698
3890.73647	0.05608
3889.45070	0.05523
3888.16493	0.05480
3886.87916	0.05494
3885.59339	0.05523
3884.30763	0.05523
3883.02186	0.05498
3881.73609	0.05480
3880.45032	0.05483
3879.16455	0.05503
3877.87878	0.05539
3876.59301	0.05601
3875.30724	0.05691
3874.02148	0.05806
3872.73571	0.05939
3871.44994	0.06058
3870.16417	0.06093
3868.87840	0.05998
3867.59263	0.05820
3866.30686	0.05642
3865.02109	0.05506
3863.73532	0.05418
3862.44956	0.05387
3861.16379	0.05418
3859.87802	0.05487
3858.59225	0.05559
3857.30648	0.05623
3856.02071	0.05692
3854.73494	0.05755
3853.44917	0.05767
3852.16341	0.05721
3850.87764	0.05669
3849.59187	0.05655
3848.30610	0.05670
3847.02033	0.05677
3845.73456	0.05652
3844.44879	0.05598
3843.16302	0.05540
3841.87725	0.05511
3840.59149	0.05531
3839.30572	0.05578
3838.01995	0.05595
3836.73418	0.05554
3835.44841	0.05498
3834.16264	0.05490
3832.87687	0.05547
3831.59110	0.05635
3830.30534	0.05710
3829.01957	0.05751
3827.73380	0.05755
3826.44803	0.05719
3825.16226	0.05649
3823.87649	0.05568
3822.59072	0.05490
3821.30495	0.05410
3820.01918	0.05339
3818.73342	0.05316
3817.44765	0.05345
3816.16188	0.05376
3814.87611	0.05390
3813.59034	0.05434
3812.30457	0.05533
3811.01880	0.05635
3809.73303	0.05687
3808.44726	0.05691
3807.16150	0.05661
3805.87573	0.05610
3804.58996	0.05574
3803.30419	0.05583
3802.01842	0.05600
3800.73265	0.05558
3799.44688	0.05447
3798.16111	0.05316
3796.87535	0.05209
3795.58958	0.05150
3794.30381	0.05158
3793.01804	0.05228
3791.73227	0.05325
3790.44650	0.05402
3789.16073	0.05443
3787.87496	0.05469
3786.58919	0.05507
3785.30343	0.05551
3784.01766	0.05568
3782.73189	0.05552
3781.44612	0.05535
3780.16035	0.05541
3778.87458	0.05558
3777.58881	0.05556
3776.30304	0.05520
3775.01728	0.05451
3773.73151	0.05362
3772.44574	0.05289
3771.15997	0.05277
3769.87420	0.05338
3768.58843	0.05432
3767.30266	0.05489
3766.01689	0.05450
3764.73112	0.05316
3763.44536	0.05163
3762.15959	0.05081
3760.87382	0.05088
3759.58805	0.05127
3758.30228	0.05130
3757.01651	0.05080
3755.73074	0.05022
3754.44497	0.05016
3753.15921	0.05076
3751.87344	0.05166
3750.58767	0.05241
3749.30190	0.05270
3748.01613	0.05256
3746.73036	0.05237
3745.44459	0.05221
3744.15882	0.05167
3742.87305	0.05082
3741.58729	0.05039
3740.30152	0.05062
3739.01575	0.05110
3737.72998	0.05150
3736.44421	0.05178
3735.15844	0.05197
3733.87267	0.05205
3732.58690	0.05191
3731.30114	0.05146
3730.01537	0.05101
3728.72960	0.05110
3727.44383	0.05176
3726.15806	0.05247
3724.87229	0.05268
3723.58652	0.05215
3722.30075	0.05099
3721.01498	0.04958
3719.72922	0.04837
3718.44345	0.04778
3717.15768	0.04792
3715.87191	0.04872
3714.58614	0.04996
3713.30037	0.05111
3712.01460	0.05165
3710.72883	0.05142
3709.44307	0.05085
3708.15730	0.05066
3706.87153	0.05107
3705.58576	0.05164
3704.29999	0.05158
3703.01422	0.05048
3701.72845	0.04884
3700.44268	0.04752
3699.15691	0.04703
3697.87115	0.04732
3696.58538	0.04805
3695.29961	0.04881
3694.01384	0.04941
3692.72807	0.05010
3691.44230	0.05078
3690.15653	0.05114
3688.87076	0.05118
3687.58500	0.05103
3686.29923	0.05077
3685.01346	0.05065
3683.72769	0.05059
3682.44192	0.05028
3681.15615	0.04982
3679.87038	0.04939
3678.58461	0.04928
3677.29884	0.04981
3676.01308	0.05067
3674.72731	0.05149
3673.44154	0.05252
3672.15577	0.05415
3670.87000	0.05590
3669.58423	0.05668
3668.29846	0.05607
3667.01269	0.05467
3665.72693	0.05322
3664.44116	0.05219
3663.15539	0.05158
3661.86962	0.05125
3660.58385	0.05106
3659.29808	0.05112
3658.01231	0.05159
3656.72654	0.05235
3655.44077	0.05292
3654.15501	0.05285
3652.86924	0.05222
3651.58347	0.05150
3650.29770	0.05121
3649.01193	0.05155
3647.72616	0.05236
3646.44039	0.05337
3645.15462	0.05457
3643.86886	0.05602
3642.58309	0.05748
3641.29732	0.05846
3640.01155	0.05862
3638.72578	0.05802
3637.44001	0.05718
3636.15424	0.05671
3634.86847	0.05699
3633.58270	0.05787
3632.29694	0.05883
3631.01117	0.05938
3629.72540	0.05931
3628.43963	0.05871
3627.15386	0.05804
3625.86809	0.05769
3624.58232	0.05773
3623.29655	0.05805
3622.01079	0.05879
3620.72502	0.05992
3619.43925	0.06104
3618.15348	0.06170
3616.86771	0.06198
3615.58194	0.06221
3614.29617	0.06239
3613.01040	0.06236
3611.72463	0.06218
3610.43887	0.06232
3609.15310	0.06291
3607.86733	0.06360
3606.58156	0.06400
3605.29579	0.06413
3604.01002	0.06428
3602.72425	0.06468
3601.43848	0.06530
3600.15272	0.06584
3598.86695	0.06595
3597.58118	0.06561
3596.29541	0.06545
3595.00964	0.06612
3593.72387	0.06768
3592.43810	0.06964
3591.15233	0.07127
3589.86656	0.07199
3588.58080	0.07181
3587.29503	0.07120
3586.00926	0.07073
3584.72349	0.07070
3583.43772	0.07115
3582.15195	0.07176
3580.86618	0.07204
3579.58041	0.07185
3578.29464	0.07135
3577.00888	0.07085
3575.72311	0.07073
3574.43734	0.07113
3573.15157	0.07204
3571.86580	0.07330
3570.58003	0.07457
3569.29426	0.07544
3568.00849	0.07568
3566.72273	0.07538
3565.43696	0.07493
3564.15119	0.07461
3562.86542	0.07448
3561.57965	0.07460
3560.29388	0.07515
3559.00811	0.07608
3557.72234	0.07708
3556.43657	0.07790
3555.15081	0.07866
3553.86504	0.07953
3552.57927	0.08036
3551.29350	0.08088
3550.00773	0.08109
3548.72196	0.08127
3547.43619	0.08157
3546.15042	0.08184
3544.86466	0.08198
3543.57889	0.08212
3542.29312	0.08237
3541.00735	0.08270
3539.72158	0.08299
3538.43581	0.08322
3537.15004	0.08348
3535.86427	0.08383
3534.57850	0.08423
3533.29274	0.08461
3532.00697	0.08488
3530.72120	0.08506
3529.43543	0.08524
3528.14966	0.08557
3526.86389	0.08608
3525.57812	0.08660
3524.29235	0.08688
3523.00659	0.08681
3521.72082	0.08661
3520.43505	0.08650
3519.14928	0.08652
3517.86351	0.08666
3516.57774	0.08695
3515.29197	0.08744
3514.00620	0.08794
3512.72043	0.08813
3511.43467	0.08789
3510.14890	0.08742
3508.86313	0.08709
3507.57736	0.08716
3506.29159	0.08767
3505.00582	0.08852
3503.72005	0.08958
3502.43428	0.09071
3501.14852	0.09165
3499.86275	0.09219
3498.57698	0.09233
3497.29121	0.09225
3496.00544	0.09216
3494.71967	0.09212
3493.43390	0.09201
3492.14813	0.09190
3490.86236	0.09217
3489.57660	0.09318
3488.29083	0.09482
3487.00506	0.09633
3485.71929	0.09687
3484.43352	0.09608
3483.14775	0.09428
3481.86198	0.09233
3480.57621	0.09116
3479.29045	0.09129
3478.00468	0.09243
3476.71891	0.09383
3475.43314	0.09486
3474.14737	0.09535
3472.86160	0.09548
3471.57583	0.09550
3470.29006	0.09561
3469.00429	0.09592
3467.71853	0.09644
3466.43276	0.09709
3465.14699	0.09785
3463.86122	0.09866
3462.57545	0.09936
3461.28968	0.09976
3460.00391	0.09975
3458.71814	0.09945
3457.43238	0.09907
3456.14661	0.09876
3454.86084	0.09861
3453.57507	0.09870
3452.28930	0.09898
3451.00353	0.09930
3449.71776	0.09955
3448.43199	0.09980
3447.14622	0.10024
3445.86046	0.10091
3444.57469	0.10157
3443.28892	0.10192
3442.00315	0.10180
3440.71738	0.10140
3439.43161	0.10107
3438.14584	0.10106
3436.86007	0.10143
3435.57431	0.10213
3434.28854	0.10299
3433.00277	0.10380
3431.71700	0.10433
3430.43123	0.10449
3429.14546	0.10436
3427.85969	0.10410
3426.57392	0.10386
3425.28815	0.10369
3424.00239	0.10355
3422.71662	0.10347
3421.43085	0.10354
3420.14508	0.10391
3418.85931	0.10458
3417.57354	0.10535
3416.28777	0.10592
3415.00200	0.10612
3413.71624	0.10605
3412.43047	0.10597
3411.14470	0.10609
3409.85893	0.10635
3408.57316	0.10654
3407.28739	0.10650
3406.00162	0.10630
3404.71585	0.10609
3403.43008	0.10589
3402.14432	0.10557
3400.85855	0.10508
3399.57278	0.10463
3398.28701	0.10452
3397.00124	0.10486
3395.71547	0.10548
3394.42970	0.10606
3393.14393	0.10643
3391.85817	0.10666
3390.57240	0.10697
3389.28663	0.10746
3388.00086	0.10788
3386.71509	0.10794
3385.42932	0.10768
3384.14355	0.10754
3382.85778	0.10783
3381.57201	0.10834
3380.28625	0.10855
3379.00048	0.10828
3377.71471	0.10786
3376.42894	0.10777
3375.14317	0.10802
3373.85740	0.10827
3372.57163	0.10820
3371.28586	0.10794
3370.00010	0.10781
3368.71433	0.10803
3367.42856	0.10851
3366.14279	0.10903
3364.85702	0.10945
3363.57125	0.10970
3362.28548	0.10974
3360.99971	0.10958
3359.71394	0.10931
3358.42818	0.10906
3357.14241	0.10890
3355.85664	0.10885
3354.57087	0.10886
3353.28510	0.10892
3351.99933	0.10901
3350.71356	0.10910
3349.42779	0.10915
3348.14202	0.10912
3346.85626	0.10898
3345.57049	0.10873
3344.28472	0.10845
3342.99895	0.10820
3341.71318	0.10806
3340.42741	0.10807
3339.14164	0.10824
3337.85587	0.10850
3336.57011	0.10875
3335.28434	0.10895
3333.99857	0.10910
3332.71280	0.10912
3331.42703	0.10875
3330.14126	0.10779
3328.85549	0.10645
3327.56972	0.10538
3326.28395	0.10520
3324.99819	0.10598
3323.71242	0.10711
3322.42665	0.10784
3321.14088	0.10780
3319.85511	0.10726
3318.56934	0.10670
3317.28357	0.10638
3315.99780	0.10626
3314.71204	0.10620
3313.42627	0.10618
3312.14050	0.10619
3310.85473	0.10617
3309.56896	0.10609
3308.28319	0.10606
3306.99742	0.10626
3305.71165	0.10675
3304.42588	0.10735
3303.14012	0.10770
3301.85435	0.10750
3300.56858	0.10678
3299.28281	0.10593
3297.99704	0.10540
3296.71127	0.10527
3295.42550	0.10527
3294.13973	0.10515
3292.85397	0.10498
3291.56820	0.10505
3290.28243	0.10551
3288.99666	0.10617
3287.71089	0.10665
3286.42512	0.10663
3285.13935	0.10604
3283.85358	0.10508
3282.56781	0.10417
3281.28205	0.10368
3279.99628	0.10374
3278.71051	0.10413
3277.42474	0.10445
3276.13897	0.10447
3274.85320	0.10417
3273.56743	0.10372
3272.28166	0.10342
3270.99590	0.10361
3269.71013	0.10443
3268.42436	0.10554
3267.13859	0.10628
3265.85282	0.10612
3264.56705	0.10511
3263.28128	0.10387
3261.99551	0.10300
3260.70974	0.10269
3259.42398	0.10278
3258.13821	0.10314
3256.85244	0.10377
3255.56667	0.10457
3254.28090	0.10514
3252.99513	0.10510
3251.70936	0.10448
3250.42359	0.10385
3249.13783	0.10374
3247.85206	0.10413
3246.56629	0.10461
3245.28052	0.10473
3243.99475	0.10438
3242.70898	0.10370
3241.42321	0.10300
3240.13744	0.10258
3238.85167	0.10257
3237.56591	0.10274
3236.28014	0.10266
3234.99437	0.10209
3233.70860	0.10129
3232.42283	0.10073
3231.13706	0.10063
3229.85129	0.10084
3228.56552	0.10103
3227.27976	0.10107
3225.99399	0.10101
3224.70822	0.10097
3223.42245	0.10110
3222.13668	0.10147
3220.85091	0.10197
3219.56514	0.10227
3218.27937	0.10204
3216.99360	0.10140
3215.70784	0.10085
3214.42207	0.10072
3213.13630	0.10087
3211.85053	0.10094
3210.56476	0.10077
3209.27899	0.10050
3207.99322	0.10032
3206.70745	0.10025
3205.42169	0.10019
3204.13592	0.10007
3202.85015	0.09987
3201.56438	0.09963
3200.27861	0.09935
3198.99284	0.09900
3197.70707	0.09854
3196.42130	0.09805
3195.13553	0.09767
3193.84977	0.09744
3192.56400	0.09729
3191.27823	0.09723
3189.99246	0.09733
3188.70669	0.09759
3187.42092	0.09790
3186.13515	0.09813
3184.84938	0.09824
3183.56362	0.09815
3182.27785	0.09777
3180.99208	0.09707
3179.70631	0.09623
3178.42054	0.09560
3177.13477	0.09536
3175.84900	0.09540
3174.56323	0.09544
3173.27746	0.09540
3171.99170	0.09534
3170.70593	0.09536
3169.42016	0.09535
3168.13439	0.09522
3166.84862	0.09501
3165.56285	0.09485
3164.27708	0.09479
3162.99131	0.09477
3161.70555	0.09477
3160.41978	0.09488
3159.13401	0.09513
3157.84824	0.09538
3156.56247	0.09546
3155.27670	0.09536
3153.99093	0.09514
3152.70516	0.09482
3151.41939	0.09439
3150.13363	0.09394
3148.84786	0.09361
3147.56209	0.09337
3146.27632	0.09302
3144.99055	0.09240
3143.70478	0.09156
3142.41901	0.09068
3141.13324	0.09000
3139.84748	0.08969
3138.56171	0.08979
3137.27594	0.09018
3135.99017	0.09063
3134.70440	0.09091
3133.41863	0.09099
3132.13286	0.09105
3130.84709	0.09124
3129.56132	0.09151
3128.27556	0.09164
3126.98979	0.09148
3125.70402	0.09104
3124.41825	0.09043
3123.13248	0.08980
3121.84671	0.08920
3120.56094	0.08871
3119.27517	0.08835
3117.98940	0.08808
3116.70364	0.08792
3115.41787	0.08798
3114.13210	0.08834
3112.84633	0.08888
3111.56056	0.08933
3110.27479	0.08951
3108.98902	0.08942
3107.70325	0.08906
3106.41749	0.08842
3105.13172	0.08769
3103.84595	0.08720
3102.56018	0.08704
3101.27441	0.08696
3099.98864	0.08670
3098.70287	0.08638
3097.41710	0.08629
3096.13133	0.08646
3094.84557	0.08659
3093.55980	0.08643
3092.27403	0.08604
3090.98826	0.08568
3089.70249	0.08549
3088.41672	0.08538
3087.13095	0.08523
3085.84518	0.08502
3084.55942	0.08479
3083.27365	0.08459
3081.98788	0.08446
3080.70211	0.08451
3079.41634	0.08470
3078.13057	0.08482
3076.84480	0.08473
3075.55903	0.08450
3074.27326	0.08427
3072.98750	0.08401
3071.70173	0.08362
3070.41596	0.08320
3069.13019	0.08298
3067.84442	0.08303
3066.55865	0.08310
3065.27288	0.08288
3063.98711	0.08234
3062.70135	0.08170
3061.41558	0.08128
3060.12981	0.08128
3058.84404	0.08166
3057.55827	0.08221
3056.27250	0.08257
3054.98673	0.08250
3053.70096	0.08197
3052.41519	0.08130
3051.12943	0.08090
3049.84366	0.08102
3048.55789	0.08155
3047.27212	0.08208
3045.98635	0.08224
3044.70058	0.08192
3043.41481	0.08132
3042.12904	0.08082
3040.84328	0.08066
3039.55751	0.08076
3038.27174	0.08090
3036.98597	0.08087
3035.70020	0.08065
3034.41443	0.08028
3033.12866	0.07980
3031.84289	0.07930
3030.55712	0.07886
3029.27136	0.07856
3027.98559	0.07838
3026.69982	0.07820
3025.41405	0.07794
3024.12828	0.07760
3022.84251	0.07728
3021.55674	0.07702
3020.27097	0.07678
3018.98521	0.07644
3017.69944	0.07601
3016.41367	0.07561
3015.12790	0.07539
3013.84213	0.07542
3012.55636	0.07565
3011.27059	0.07595
3009.98482	0.07619
3008.69905	0.07628
3007.41329	0.07616
3006.12752	0.07587
3004.84175	0.07545
3003.55598	0.07497
3002.27021	0.07454
3000.98444	0.07424
2999.69867	0.07405
2998.41290	0.07387
2997.12714	0.07367
2995.84137	0.07360
2994.55560	0.07380
2993.26983	0.07421
2991.98406	0.07455
2990.69829	0.07465
2989.41252	0.07460
2988.12675	0.07452
2986.84098	0.07449
2985.55522	0.07457
2984.26945	0.07489
2982.98368	0.07546
2981.69791	0.07603
2980.41214	0.07636
2979.12637	0.07644
2977.84060	0.07655
2976.55483	0.07687
2975.26907	0.07737
2973.98330	0.07792
2972.69753	0.07853
2971.41176	0.07931
2970.12599	0.08027
2968.84022	0.08121
2967.55445	0.08195
2966.26868	0.08254
2964.98291	0.08323
2963.69715	0.08420
2962.41138	0.08534
2961.12561	0.08642
2959.83984	0.08732
2958.55407	0.08805
2957.26830	0.08861
2955.98253	0.08888
2954.69676	0.08876
2953.41100	0.08833
2952.12523	0.08781
2950.83946	0.08736
2949.55369	0.08704
2948.26792	0.08691
2946.98215	0.08702
2945.69638	0.08734
2944.41061	0.08769
2943.12484	0.08786
2941.83908	0.08780
2940.55331	0.08765
2939.26754	0.08770
2937.98177	0.08818
2936.69600	0.08907
2935.41023	0.09004
2934.12446	0.09068
2932.83869	0.09087
2931.55293	0.09086
2930.26716	0.09101
2928.98139	0.09151
2927.69562	0.09225
2926.40985	0.09297
2925.12408	0.09343
2923.83831	0.09353
2922.55254	0.09329
2921.26677	0.09283
2919.98101	0.09226
2918.69524	0.09164
2917.40947	0.09089
2916.12370	0.09006
2914.83793	0.08932
2913.55216	0.08881
2912.26639	0.08843
2910.98062	0.08788
2909.69486	0.08697
2908.40909	0.08588
2907.12332	0.08501
2905.83755	0.08456
2904.55178	0.08432
2903.26601	0.08394
2901.98024	0.08326
2900.69447	0.08246
2899.40870	0.08175
2898.12294	0.08120
2896.83717	0.08072
2895.55140	0.08015
2894.26563	0.07947
2892.97986	0.07876
2891.69409	0.07808
2890.40832	0.07743
2889.12255	0.07682
2887.83678	0.07628
2886.55102	0.07578
2885.26525	0.07534
2883.97948	0.07501
2882.69371	0.07490
2881.40794	0.07500
2880.12217	0.07517
2878.83640	0.07529
2877.55063	0.07538
2876.26487	0.07554
2874.97910	0.07578
2873.69333	0.07603
2872.40756	0.07621
2871.12179	0.07627
2869.83602	0.07623
2868.55025	0.07608
2867.26448	0.07584
2865.97871	0.07561
2864.69295	0.07546
2863.40718	0.07538
2862.12141	0.07535
2860.83564	0.07545
2859.54987	0.07568
2858.26410	0.07588
2856.97833	0.07578
2855.69256	0.07529
2854.40680	0.07456
2853.12103	0.07387
2851.83526	0.07336
2850.54949	0.07297
2849.26372	0.07253
2847.97795	0.07193
2846.69218	0.07125
2845.40641	0.07064
2844.12064	0.07012
2842.83488	0.06955
2841.54911	0.06874
2840.26334	0.06765
2838.97757	0.06647
2837.69180	0.06544
2836.40603	0.06471
2835.12026	0.06420
2833.83449	0.06379
2832.54873	0.06336
2831.26296	0.06297
2829.97719	0.06267
2828.69142	0.06245
2827.40565	0.06225
2826.11988	0.06197
2824.83411	0.06157
2823.54834	0.06105
2822.26257	0.06051
2820.97681	0.06009
2819.69104	0.05982
2818.40527	0.05960
2817.11950	0.05929
2815.83373	0.05891
2814.54796	0.05858
2813.26219	0.05836
2811.97642	0.05824
2810.69066	0.05816
2809.40489	0.05808
2808.11912	0.05797
2806.83335	0.05785
2805.54758	0.05781
2804.26181	0.05785
2802.97604	0.05789
2801.69027	0.05785
2800.40450	0.05771
2799.11874	0.05752
2797.83297	0.05729
2796.54720	0.05704
2795.26143	0.05679
2793.97566	0.05654
2792.68989	0.05631
2791.40412	0.05615
2790.11835	0.05604
2788.83259	0.05590
2787.54682	0.05569
2786.26105	0.05551
2784.97528	0.05549
2783.68951	0.05561
2782.40374	0.05564
2781.11797	0.05546
2779.83220	0.05517
2778.54643	0.05493
2777.26067	0.05482
2775.97490	0.05469
2774.68913	0.05447
2773.40336	0.05418
2772.11759	0.05396
2770.83182	0.05385
2769.54605	0.05381
2768.26028	0.05383
2766.97452	0.05390
2765.68875	0.05398
2764.40298	0.05391
2763.11721	0.05361
2761.83144	0.05319
2760.54567	0.05292
2759.25990	0.05295
2757.97413	0.05322
2756.68836	0.05351
2755.40260	0.05370
2754.11683	0.05373
2752.83106	0.05365
2751.54529	0.05355
2750.25952	0.05349
2748.97375	0.05351
2747.68798	0.05355
2746.40221	0.05348
2745.11645	0.05324
2743.83068	0.05291
2742.54491	0.05267
2741.25914	0.05265
2739.97337	0.05278
2738.68760	0.05284
2737.40183	0.05270
2736.11606	0.05240
2734.83029	0.05215
2733.54453	0.05203
2732.25876	0.05191
2730.97299	0.05167
2729.68722	0.05139
2728.40145	0.05131
2727.11568	0.05146
2725.82991	0.05161
2724.54414	0.05151
2723.25838	0.05119
2721.97261	0.05083
2720.68684	0.05057
2719.40107	0.05044
2718.11530	0.05037
2716.82953	0.05026
2715.54376	0.05006
2714.25799	0.04986
2712.97222	0.04977
2711.68646	0.04984
2710.40069	0.04999
2709.11492	0.05009
2707.82915	0.05003
2706.54338	0.04976
2705.25761	0.04930
2703.97184	0.04877
2702.68607	0.04830
2701.40031	0.04801
2700.11454	0.04792
2698.82877	0.04797
2697.54300	0.04808
2696.25723	0.04819
2694.97146	0.04828
2693.68569	0.04838
2692.39992	0.04849
2691.11415	0.04858
2689.82839	0.04857
2688.54262	0.04840
2687.25685	0.04808
2685.97108	0.04774
2684.68531	0.04757
2683.39954	0.04762
2682.11377	0.04776
2680.82800	0.04782
2679.54224	0.04775
2678.25647	0.04757
2676.97070	0.04737
2675.68493	0.04720
2674.39916	0.04705
2673.11339	0.04692
2671.82762	0.04684
2670.54185	0.04685
2669.25608	0.04693
2667.97032	0.04706
2666.68455	0.04717
2665.39878	0.04724
2664.11301	0.04727
2662.82724	0.04721
2661.54147	0.04709
2660.25570	0.04694
2658.96993	0.04678
2657.68417	0.04661
2656.39840	0.04644
2655.11263	0.04626
2653.82686	0.04604
2652.54109	0.04574
2651.25532	0.04540
2649.96955	0.04513
2648.68378	0.04495
2647.39801	0.04480
2646.11225	0.04460
2644.82648	0.04441
2643.54071	0.04428
2642.25494	0.04420
2640.96917	0.04412
2639.68340	0.04397
2638.39763	0.04377
2637.11186	0.04357
2635.82609	0.04338
2634.54033	0.04315
2633.25456	0.04277
2631.96879	0.04228
2630.68302	0.04181
2629.39725	0.04148
2628.11148	0.04131
2626.82571	0.04128
2625.53994	0.04141
2624.25418	0.04169
2622.96841	0.04201
2621.68264	0.04220
2620.39687	0.04209
2619.11110	0.04170
2617.82533	0.04125
2616.53956	0.04098
2615.25379	0.04093
2613.96802	0.04090
2612.68226	0.04076
2611.39649	0.04056
2610.11072	0.04035
2608.82495	0.04006
2607.53918	0.03960
2606.25341	0.03899
2604.96764	0.03835
2603.68187	0.03781
2602.39611	0.03753
2601.11034	0.03759
2599.82457	0.03797
2598.53880	0.03851
2597.25303	0.03900
2595.96726	0.03925
2594.68149	0.03909
2593.39572	0.03849
2592.10995	0.03761
2590.82419	0.03677
2589.53842	0.03629
2588.25265	0.03629
2586.96688	0.03660
2585.68111	0.03691
2584.39534	0.03700
2583.10957	0.03698
2581.82380	0.03707
2580.53804	0.03733
2579.25227	0.03747
2577.96650	0.03723
2576.68073	0.03672
2575.39496	0.03634
2574.10919	0.03631
2572.82342	0.03632
2571.53765	0.03598
2570.25188	0.03534
2568.96612	0.03479
2567.68035	0.03458
2566.39458	0.03468
2565.10881	0.03490
2563.82304	0.03513
2562.53727	0.03522
2561.25150	0.03503
2559.96573	0.03450
2558.67997	0.03387
2557.39420	0.03360
2556.10843	0.03406
2554.82266	0.03512
2553.53689	0.03623
2552.25112	0.03685
2550.96535	0.03688
2549.67958	0.03663
2548.39381	0.03638
2547.10805	0.03624
2545.82228	0.03616
2544.53651	0.03600
2543.25074	0.03563
2541.96497	0.03507
2540.67920	0.03457
2539.39343	0.03442
2538.10766	0.03463
2536.82190	0.03497
2535.53613	0.03509
2534.25036	0.03486
2532.96459	0.03441
2531.67882	0.03408
2530.39305	0.03411
2529.10728	0.03443
2527.82151	0.03468
2526.53574	0.03459
2525.24998	0.03422
2523.96421	0.03385
2522.67844	0.03374
2521.39267	0.03391
2520.10690	0.03418
2518.82113	0.03433
2517.53536	0.03432
2516.24959	0.03416
2514.96383	0.03386
2513.67806	0.03334
2512.39229	0.03263
2511.10652	0.03195
2509.82075	0.03164
2508.53498	0.03184
2507.24921	0.03242
2505.96344	0.03306
2504.67767	0.03348
2503.39191	0.03362
2502.10614	0.03357
2500.82037	0.03337
2499.53460	0.03297
2498.24883	0.03243
2496.96306	0.03198
2495.67729	0.03186
2494.39152	0.03205
2493.10576	0.03234
2491.81999	0.03263
2490.53422	0.03294
2489.24845	0.03323
2487.96268	0.03335
2486.67691	0.03319
2485.39114	0.03286
2484.10537	0.03259
2482.81960	0.03256
2481.53384	0.03276
2480.24807	0.03298
2478.96230	0.03302
2477.67653	0.03284
2476.39076	0.03260
2475.10499	0.03247
2473.81922	0.03250
2472.53345	0.03264
2471.24769	0.03278
2469.96192	0.03274
2468.67615	0.03244
2467.39038	0.03202
2466.10461	0.03177
2464.81884	0.03187
2463.53307	0.03219
2462.24730	0.03247
2460.96153	0.03257
2459.67577	0.03259
2458.39000	0.03266
2457.10423	0.03279
2455.81846	0.03286
2454.53269	0.03277
2453.24692	0.03253
2451.96115	0.03217
2450.67538	0.03181
2449.38962	0.03165
2448.10385	0.03180
2446.81808	0.03214
2445.53231	0.03232
2444.24654	0.03206
2442.96077	0.03142
2441.67500	0.03069
2440.38923	0.03018
2439.10346	0.03004
2437.81770	0.03022
2436.53193	0.03050
2435.24616	0.03068
2433.96039	0.03068
2432.67462	0.03060
2431.38885	0.03054
2430.10308	0.03056
2428.81731	0.03056
2427.53155	0.03041
2426.24578	0.03017
2424.96001	0.03007
2423.67424	0.03024
2422.38847	0.03057
2421.10270	0.03084
2419.81693	0.03089
2418.53116	0.03071
2417.24539	0.03042
2415.95963	0.03011
2414.67386	0.02985
2413.38809	0.02963
2412.10232	0.02940
2410.81655	0.02913
2409.53078	0.02882
2408.24501	0.02858
2406.95924	0.02853
2405.67347	0.02877
2404.38771	0.02920
2403.10194	0.02971
2401.81617	0.03027
2400.53040	0.03086
2399.24463	0.03120
2397.95886	0.03111
2396.67309	0.03061
2395.38732	0.02997
2394.10156	0.02948
2392.81579	0.02921
2391.53002	0.02903
2390.24425	0.02886
2388.95848	0.02876
2387.67271	0.02890
2386.38694	0.02929
2385.10117	0.02984
2383.81540	0.03037
2382.52964	0.03075
2381.24387	0.03088
2379.95810	0.03074
2378.67233	0.03041
2377.38656	0.03011
2376.10079	0.02990
2374.81502	0.02973
2373.52925	0.02986
2372.24349	0.03018
2370.95772	0.03098
2369.67195	0.03143
2368.38618	0.03152
2367.10041	0.03163
2365.81464	0.03209
2364.52887	0.03194
2363.24310	0.03164
2361.95733	0.03174
2360.67157	0.03255
2359.38580	0.03269
2358.10003	0.03254
2356.81426	0.03239
2355.52849	0.03230
2354.24272	0.03241
2352.95695	0.03226
2351.67118	0.03247
2350.38542	0.03326
2349.09965	0.03339
2347.81388	0.03221
2346.52811	0.03182
2345.24234	0.03264
2343.95657	0.03328
2342.67080	0.03248
2341.38503	0.03224
2340.09926	0.03327
2338.81350	0.03302
2337.52773	0.03135
2336.24196	0.03107
2334.95619	0.03217
2333.67042	0.03202
2332.38465	0.03026
2331.09888	0.03140
2329.81311	0.03297
2328.52735	0.03114
2327.24158	0.03210
2325.95581	0.03444
2324.67004	0.03314
2323.38427	0.03257
2322.09850	0.03356
2320.81273	0.03145
2319.52696	0.03102
2318.24119	0.03180
2316.95543	0.03057
2315.66966	0.03044
2314.38389	0.03048
2313.09812	0.02949
2311.81235	0.02981
2310.52658	0.02978
2309.24081	0.02978
2307.95504	0.03016
2306.66928	0.02959
2305.38351	0.02926
2304.09774	0.02890
2302.81197	0.02848
2301.52620	0.02857
2300.24043	0.02870
2298.95466	0.02912
2297.66889	0.02936
2296.38312	0.02931
2295.09736	0.02904
2293.81159	0.02851
2292.52582	0.02798
2291.24005	0.02744
2289.95428	0.02711
2288.66851	0.02700
2287.38274	0.02706
2286.09697	0.02721
2284.81121	0.02726
2283.52544	0.02713
2282.23967	0.02686
2280.95390	0.02662
2279.66813	0.02651
2278.38236	0.02639
2277.09659	0.02599
2275.81082	0.02527
2274.52505	0.02449
2273.23929	0.02398
2271.95352	0.02386
2270.66775	0.02392
2269.38198	0.02387
2268.09621	0.02361
2266.81044	0.02336
2265.52467	0.02333
2264.23890	0.02351
2262.95314	0.02374
2261.66737	0.02387
2260.38160	0.02377
2259.09583	0.02346
2257.81006	0.02299
2256.52429	0.02236
2255.23852	0.02165
2253.95275	0.02118
2252.66698	0.02120
2251.38122	0.02161
2250.09545	0.02212
2248.80968	0.02239
2247.52391	0.02231
2246.23814	0.02171
2244.95237	0.02073
2243.66660	0.01977
2242.38083	0.01925
2241.09507	0.01932
2239.80930	0.01971
2238.52353	0.02004
2237.23776	0.02020
2235.95199	0.02030
2234.66622	0.02038
2233.38045	0.02040
2232.09468	0.02037
2230.80891	0.02032
2229.52315	0.02012
2228.23738	0.01956
2226.95161	0.01872
2225.66584	0.01798
2224.38007	0.01761
2223.09430	0.01764
2221.80853	0.01794
2220.52276	0.01821
2219.23700	0.01809
2217.95123	0.01732
2216.66546	0.01603
2215.37969	0.01476
2214.09392	0.01411
2212.80815	0.01433
2211.52238	0.01516
2210.23661	0.01601
2208.95084	0.01640
2207.66508	0.01624
2206.37931	0.01584
2205.09354	0.01554
2203.80777	0.01539
2202.52200	0.01520
2201.23623	0.01484
2199.95046	0.01456
2198.66469	0.01468
2197.37893	0.01518
2196.09316	0.01562
2194.80739	0.01555
2193.52162	0.01507
2192.23585	0.01482
2190.95008	0.01543
2189.66431	0.01686
2188.37854	0.01837
2187.09277	0.01906
2185.80701	0.01841
2184.52124	0.01655
2183.23547	0.01420
2181.94970	0.01227
2180.66393	0.01127
2179.37816	0.01108
2178.09239	0.01141
2176.80662	0.01214
2175.52085	0.01327
2174.23509	0.01446
2172.94932	0.01515
2171.66355	0.01498
2170.37778	0.01406
2169.09201	0.01294
2167.80624	0.01218
2166.52047	0.01211
2165.23470	0.01262
2163.94894	0.01308
2162.66317	0.01250
2161.37740	0.01042
2160.09163	0.00771
2158.80586	0.00619
2157.52009	0.00667
2156.23432	0.00806
2154.94855	0.00881
2153.66278	0.00856
2152.37702	0.00817
2151.09125	0.00858
2149.80548	0.00978
2148.51971	0.01087
2147.23394	0.01120
2145.94817	0.01114
2144.66240	0.01154
2143.37663	0.01248
2142.09087	0.01319
2140.80510	0.01323
2139.51933	0.01298
2138.23356	0.01300
2136.94779	0.01328
2135.66202	0.01342
2134.37625	0.01325
2133.09048	0.01303
2131.80471	0.01309
2130.51895	0.01351
2129.23318	0.01406
2127.94741	0.01445
2126.66164	0.01458
2125.37587	0.01455
2124.09010	0.01451
2122.80433	0.01454
2121.51856	0.01473
2120.23280	0.01507
2118.94703	0.01545
2117.66126	0.01577
2116.37549	0.01619
2115.08972	0.01685
2113.80395	0.01762
2112.51818	0.01813
2111.23241	0.01816
2109.94664	0.01780
2108.66088	0.01722
2107.37511	0.01651
2106.08934	0.01580
2104.80357	0.01522
2103.51780	0.01484
2102.23203	0.01463
2100.94626	0.01443
2099.66049	0.01393
2098.37473	0.01333
2097.08896	0.01278
2095.80319	0.01251
2094.51742	0.01265
2093.23165	0.01312
2091.94588	0.01368
2090.66011	0.01412
2089.37434	0.01438
2088.08857	0.01453
2086.80281	0.01467
2085.51704	0.01480
2084.23127	0.01480
2082.94550	0.01452
2081.65973	0.01398
2080.37396	0.01339
2079.08819	0.01299
2077.80242	0.01276
2076.51666	0.01247
2075.23089	0.01195
2073.94512	0.01132
2072.65935	0.01092
2071.37358	0.01107
2070.08781	0.01181
2068.80204	0.01283
2067.51627	0.01352
2066.23050	0.01342
2064.94474	0.01258
2063.65897	0.01158
2062.37320	0.01100
2061.08743	0.01103
2059.80166	0.01140
2058.51589	0.01170
2057.23012	0.01167
2055.94435	0.01131
2054.65859	0.01079
2053.37282	0.01028
2052.08705	0.00988
2050.80128	0.00969
2049.51551	0.00969
2048.22974	0.00973
2046.94397	0.00951
2045.65820	0.00892
2044.37243	0.00812
2043.08667	0.00733
2041.80090	0.00674
2040.51513	0.00661
2039.22936	0.00719
2037.94359	0.00839
2036.65782	0.00952
2035.37205	0.00971
2034.08628	0.00869
2032.80052	0.00700
2031.51475	0.00556
2030.22898	0.00480
2028.94321	0.00457
2027.65744	0.00451
2026.37167	0.00458
2025.08590	0.00486
2023.80013	0.00528
2022.51436	0.00549
2021.22860	0.00523
2019.94283	0.00454
2018.65706	0.00381
2017.37129	0.00359
2016.08552	0.00417
2014.79975	0.00528
2013.51398	0.00620
2012.22821	0.00640
2010.94245	0.00608
2009.65668	0.00583
2008.37091	0.00602
2007.08514	0.00647
2005.79937	0.00682
2004.51360	0.00696
2003.22783	0.00705
2001.94206	0.00715
2000.65629	0.00716
1999.37053	0.00697
1998.08476	0.00675
1996.79899	0.00673
1995.51322	0.00692
1994.22745	0.00713
1992.94168	0.00725
1991.65591	0.00748
1990.37014	0.00809
1989.08438	0.00904
1987.79861	0.00992
1986.51284	0.01036
1985.22707	0.01045
1983.94130	0.01050
1982.65553	0.01073
1981.36976	0.01109
1980.08399	0.01144
1978.79822	0.01160
1977.51246	0.01141
1976.22669	0.01083
1974.94092	0.01001
1973.65515	0.00914
1972.36938	0.00840
1971.08361	0.00802
1969.79784	0.00816
1968.51207	0.00880
1967.22631	0.00972
1965.94054	0.01066
1964.65477	0.01135
1963.36900	0.01161
1962.08323	0.01157
1960.79746	0.01167
1959.51169	0.01230
1958.22592	0.01331
1956.94015	0.01407
1955.65439	0.01409
1954.36862	0.01352
1953.08285	0.01301
1951.79708	0.01303
1950.51131	0.01352
1949.22554	0.01415
1947.93977	0.01466
1946.65400	0.01490
1945.36823	0.01477
1944.08247	0.01424
1942.79670	0.01355
1941.51093	0.01304
1940.22516	0.01287
1938.93939	0.01288
1937.65362	0.01278
1936.36785	0.01256
1935.08208	0.01247
1933.79632	0.01275
1932.51055	0.01328
1931.22478	0.01377
1929.93901	0.01405
1928.65324	0.01424
1927.36747	0.01446
1926.08170	0.01473
1924.79593	0.01496
1923.51016	0.01506
1922.22440	0.01506
1920.93863	0.01506
1919.65286	0.01510
1918.36709	0.01510
1917.08132	0.01499
1915.79555	0.01486
1914.50978	0.01488
1913.22401	0.01503
1911.93825	0.01515
1910.65248	0.01512
1909.36671	0.01497
1908.08094	0.01486
1906.79517	0.01492
1905.50940	0.01514
1904.22363	0.01536
1902.93786	0.01545
1901.65209	0.01546
1900.36633	0.01554
1899.08056	0.01570
1897.79479	0.01578
1896.50902	0.01561
1895.22325	0.01525
1893.93748	0.01494
1892.65171	0.01489
1891.36594	0.01508
1890.08018	0.01541
1888.79441	0.01577
1887.50864	0.01608
1886.22287	0.01626
1884.93710	0.01629
1883.65133	0.01624
1882.36556	0.01616
1881.07979	0.01605
1879.79402	0.01585
1878.50826	0.01560
1877.22249	0.01544
1875.93672	0.01544
1874.65095	0.01556
1873.36518	0.01572
1872.07941	0.01588
1870.79364	0.01601
1869.50787	0.01608
1868.22211	0.01614
1866.93634	0.01622
1865.65057	0.01632
1864.36480	0.01634
1863.07903	0.01621
1861.79326	0.01602
1860.50749	0.01592
1859.22172	0.01596
1857.93595	0.01610
1856.65019	0.01622
1855.36442	0.01624
1854.07865	0.01619
1852.79288	0.01614
1851.50711	0.01609
1850.22134	0.01603
1848.93557	0.01597
1847.64980	0.01599
1846.36404	0.01607
1845.07827	0.01610
1843.79250	0.01596
1842.50673	0.01582
1841.22096	0.01593
1839.93519	0.01630
1838.64942	0.01668
1837.36365	0.01688
1836.07788	0.01691
1834.79212	0.01689
1833.50635	0.01690
1832.22058	0.01694
1830.93481	0.01697
1829.64904	0.01692
1828.36327	0.01685
1827.07750	0.01690
1825.79173	0.01706
1824.50597	0.01720
1823.22020	0.01720
1821.93443	0.01706
1820.64866	0.01689
1819.36289	0.01673
1818.07712	0.01663
1816.79135	0.01659
1815.50558	0.01663
1814.21981	0.01677
1812.93405	0.01697
1811.64828	0.01718
1810.36251	0.01737
1809.07674	0.01751
1807.79097	0.01757
1806.50520	0.01753
1805.21943	0.01745
1803.93366	0.01745
1802.64790	0.01754
1801.36213	0.01764
1800.07636	0.01767
1798.79059	0.01759
1797.50482	0.01747
1796.21905	0.01739
1794.93328	0.01744
1793.64751	0.01761
1792.36174	0.01781
1791.07598	0.01794
1789.79021	0.01804
1788.50444	0.01818
1787.21867	0.01833
1785.93290	0.01843
1784.64713	0.01843
1783.36136	0.01838
1782.07559	0.01835
1780.78983	0.01834
1779.50406	0.01830
1778.21829	0.01827
1776.93252	0.01831
1775.64675	0.01847
1774.36098	0.01876
1773.07521	0.01903
1771.78944	0.01911
1770.50367	0.01909
1769.21791	0.01915
1767.93214	0.01930
1766.64637	0.01942
1765.36060	0.01950
1764.07483	0.01956
1762.78906	0.01964
1761.50329	0.01968
1760.21752	0.01971
1758.93176	0.01980
1757.64599	0.01998
1756.36022	0.02016
1755.07445	0.02029
1753.78868	0.02040
1752.50291	0.02048
1751.21714	0.02051
1749.93137	0.02047
1748.64560	0.02046
1747.35984	0.02055
1746.07407	0.02070
1744.78830	0.02088
1743.50253	0.02104
1742.21676	0.02120
1740.93099	0.02135
1739.64522	0.02145
1738.35945	0.02152
1737.07369	0.02172
1735.78792	0.02217
1734.50215	0.02262
1733.21638	0.02278
1731.93061	0.02273
1730.64484	0.02276
1729.35907	0.02296
1728.07330	0.02320
1726.78753	0.02340
1725.50177	0.02358
1724.21600	0.02377
1722.93023	0.02399
1721.64446	0.02426
1720.35869	0.02467
1719.07292	0.02522
1717.78715	0.02573
1716.50138	0.02607
1715.21561	0.02629
1713.92985	0.02652
1712.64408	0.02683
1711.35831	0.02720
1710.07254	0.02762
1708.78677	0.02811
1707.50100	0.02867
1706.21523	0.02924
1704.92946	0.02975
1703.64370	0.03025
1702.35793	0.03086
1701.07216	0.03145
1699.78639	0.03176
1698.50062	0.03189
1697.21485	0.03216
1695.92908	0.03256
1694.64331	0.03283
1693.35754	0.03304
1692.07178	0.03346
1690.78601	0.03408
1689.50024	0.03469
1688.21447	0.03523
1686.92870	0.03584
1685.64293	0.03652
1684.35716	0.03705
1683.07139	0.03730
1681.78563	0.03747
1680.49986	0.03774
1679.21409	0.03808
1677.92832	0.03850
1676.64255	0.03903
1675.35678	0.03959
1674.07101	0.04008
1672.78524	0.04053
1671.49947	0.04101
1670.21371	0.04146
1668.92794	0.04179
1667.64217	0.04205
1666.35640	0.04240
1665.07063	0.04293
1663.78486	0.04353
1662.49909	0.04401
1661.21332	0.04432
1659.92756	0.04453
1658.64179	0.04474
1657.35602	0.04499
1656.07025	0.04541
1654.78448	0.04602
1653.49871	0.04654
1652.21294	0.04665
1650.92717	0.04647
1649.64140	0.04646
1648.35564	0.04678
1647.06987	0.04718
1645.78410	0.04741
1644.49833	0.04747
1643.21256	0.04750
1641.92679	0.04759
1640.64102	0.04771
1639.35525	0.04786
1638.06949	0.04810
1636.78372	0.04842
1635.49795	0.04863
1634.21218	0.04865
1632.92641	0.04862
1631.64064	0.04869
1630.35487	0.04884
1629.06910	0.04897
1627.78333	0.04904
1626.49757	0.04914
1625.21180	0.04933
1623.92603	0.04960
1622.64026	0.04981
1621.35449	0.04994
1620.06872	0.05010
1618.78295	0.05039
1617.49718	0.05075
1616.21142	0.05100
1614.92565	0.05116
1613.63988	0.05137
1612.35411	0.05168
1611.06834	0.05199
1609.78257	0.05222
1608.49680	0.05242
1607.21103	0.05265
1605.92526	0.05294
1604.63950	0.05330
1603.35373	0.05368
1602.06796	0.05403
1600.78219	0.05430
1599.49642	0.05454
1598.21065	0.05478
1596.92488	0.05505
1595.63911	0.05536
1594.35335	0.05569
1593.06758	0.05602
1591.78181	0.05633
1590.49604	0.05661
1589.21027	0.05686
1587.92450	0.05708
1586.63873	0.05731
1585.35296	0.05755
1584.06719	0.05782
1582.78143	0.05815
1581.49566	0.05848
1580.20989	0.05875
1578.92412	0.05902
1577.63835	0.05939
1576.35258	0.05977
1575.06681	0.06005
1573.78104	0.06028
1572.49528	0.06064
1571.20951	0.06109
1569.92374	0.06145
1568.63797	0.06164
1567.35220	0.06175
1566.06643	0.06190
1564.78066	0.06208
1563.49489	0.06223
1562.20912	0.06248
1560.92336	0.06290
1559.63759	0.06331
1558.35182	0.06346
1557.06605	0.06341
1555.78028	0.06344
1554.49451	0.06363
1553.20874	0.06385
1551.92297	0.06402
1550.63721	0.06415
1549.35144	0.06420
1548.06567	0.06418
1546.77990	0.06413
1545.49413	0.06404
1544.20836	0.06389
1542.92259	0.06369
1541.63682	0.06353
1540.35105	0.06335
1539.06529	0.06302
1537.77952	0.06256
1536.49375	0.06223
1535.20798	0.06218
1533.92221	0.06225
1532.63644	0.06227
1531.35067	0.06227
1530.06490	0.06241
1528.77914	0.06277
1527.49337	0.06329
1526.20760	0.06385
1524.92183	0.06444
1523.63606	0.06514
1522.35029	0.06598
1521.06452	0.06683
1519.77875	0.06768
1518.49298	0.06870
1517.20722	0.06997
1515.92145	0.07135
1514.63568	0.07275
1513.34991	0.07418
1512.06414	0.07565
1510.77837	0.07720
1509.49260	0.07890
1508.20683	0.08077
1506.92107	0.08262
1505.63530	0.08422
1504.34953	0.08559
1503.06376	0.08692
1501.77799	0.08829
1500.49222	0.08960
1499.20645	0.09084
1497.92068	0.09204
1496.63491	0.09317
1495.34915	0.09415
1494.06338	0.09502
1492.77761	0.09590
1491.49184	0.09687
1490.20607	0.09790
1488.92030	0.09898
1487.63453	0.10018
1486.34876	0.10152
1485.06299	0.10300
1483.77723	0.10458
1482.49146	0.10619
1481.20569	0.10776
1479.91992	0.10930
1478.63415	0.11086
1477.34838	0.11244
1476.06261	0.11401
1474.77684	0.11545
1473.49108	0.11668
1472.20531	0.11761
1470.91954	0.11826
1469.63377	0.11876
1468.34800	0.11923
1467.06223	0.11971
1465.77646	0.12013
1464.49069	0.12045
1463.20492	0.12072
1461.91916	0.12101
1460.63339	0.12146
1459.34762	0.12211
1458.06185	0.12294
1456.77608	0.12374
1455.49031	0.12441
1454.20454	0.12503
1452.91877	0.12570
1451.63301	0.12633
1450.34724	0.12683
1449.06147	0.12718
1447.77570	0.12737
1446.48993	0.12737
1445.20416	0.12720
1443.91839	0.12688
1442.63262	0.12648
1441.34685	0.12600
1440.06109	0.12551
1438.77532	0.12507
1437.48955	0.12478
1436.20378	0.12465
1434.91801	0.12477
1433.63224	0.12527
1432.34647	0.12621
1431.06070	0.12747
1429.77494	0.12893
1428.48917	0.13055
1427.20340	0.13236
1425.91763	0.13439
1424.63186	0.13656
1423.34609	0.13875
1422.06032	0.14087
1420.77455	0.14289
1419.48878	0.14470
1418.20302	0.14617
1416.91725	0.14735
1415.63148	0.14833
1414.34571	0.14910
1413.05994	0.14959
1411.77417	0.14971
1410.48840	0.14944
1409.20263	0.14881
1407.91687	0.14787
1406.63110	0.14666
1405.34533	0.14516
1404.05956	0.14332
1402.77379	0.14120
1401.48802	0.13887
1400.20225	0.13635
1398.91648	0.13362
1397.63071	0.13069
1396.34495	0.12765
1395.05918	0.12459
1393.77341	0.12153
1392.48764	0.11851
1391.20187	0.11557
1389.91610	0.11273
1388.63033	0.10996
1387.34456	0.10724
1386.05880	0.10452
1384.77303	0.10182
1383.48726	0.09913
1382.20149	0.09646
1380.91572	0.09377
1379.62995	0.09106
1378.34418	0.08831
1377.05841	0.08549
1375.77264	0.08260
1374.48688	0.07970
1373.20111	0.07682
1371.91534	0.07403
1370.62957	0.07137
1369.34380	0.06885
1368.05803	0.06648
1366.77226	0.06428
1365.48649	0.06227
1364.20073	0.06041
1362.91496	0.05862
1361.62919	0.05687
1360.34342	0.05518
1359.05765	0.05359
1357.77188	0.05212
1356.48611	0.05078
1355.20034	0.04953
1353.91457	0.04835
1352.62881	0.04725
1351.34304	0.04622
1350.05727	0.04524
1348.77150	0.04432
1347.48573	0.04346
1346.19996	0.04266
1344.91419	0.04190
1343.62842	0.04116
1342.34266	0.04045
1341.05689	0.03978
1339.77112	0.03917
1338.48535	0.03861
1337.19958	0.03809
1335.91381	0.03761
1334.62804	0.03715
1333.34227	0.03669
1332.05650	0.03621
1330.77074	0.03572
1329.48497	0.03525
1328.19920	0.03483
1326.91343	0.03448
1325.62766	0.03420
1324.34189	0.03398
1323.05612	0.03374
1321.77035	0.03346
1320.48459	0.03318
1319.19882	0.03291
1317.91305	0.03266
1316.62728	0.03239
1315.34151	0.03208
1314.05574	0.03178
1312.76997	0.03150
1311.48420	0.03126
1310.19843	0.03106
1308.91267	0.03085
1307.62690	0.03063
1306.34113	0.03040
1305.05536	0.03014
1303.76959	0.02989
1302.48382	0.02967
1301.19805	0.02949
1299.91228	0.02934
1298.62652	0.02917
1297.34075	0.02898
1296.05498	0.02879
1294.76921	0.02864
1293.48344	0.02853
1292.19767	0.02846
1290.91190	0.02836
1289.62613	0.02822
1288.34036	0.02801
1287.05460	0.02776
1285.76883	0.02753
1284.48306	0.02734
1283.19729	0.02718
1281.91152	0.02704
1280.62575	0.02691
1279.33998	0.02679
1278.05421	0.02671
1276.76845	0.02664
1275.48268	0.02656
1274.19691	0.02644
1272.91114	0.02628
1271.62537	0.02609
1270.33960	0.02590
1269.05383	0.02573
1267.76806	0.02558
1266.48229	0.02548
1265.19653	0.02543
1263.91076	0.02542
1262.62499	0.02542
1261.33922	0.02537
1260.05345	0.02527
1258.76768	0.02512
1257.48191	0.02500
1256.19614	0.02491
1254.91037	0.02484
1253.62461	0.02475
1252.33884	0.02461
1251.05307	0.02446
1249.76730	0.02433
1248.48153	0.02423
1247.19576	0.02414
1245.90999	0.02403
1244.62422	0.02390
1243.33846	0.02378
1242.05269	0.02369
1240.76692	0.02361
1239.48115	0.02356
1238.19538	0.02352
1236.90961	0.02351
1235.62384	0.02349
1234.33807	0.02344
1233.05230	0.02334
1231.76654	0.02321
1230.48077	0.02309
1229.19500	0.02301
1227.90923	0.02297
1226.62346	0.02291
1225.33769	0.02282
1224.05192	0.02270
1222.76615	0.02261
1221.48039	0.02255
1220.19462	0.02252
1218.90885	0.02251
1217.62308	0.02252
1216.33731	0.02252
1215.05154	0.02251
1213.76577	0.02248
1212.48000	0.02240
1211.19423	0.02230
1209.90847	0.02218
1208.62270	0.02207
1207.33693	0.02201
1206.05116	0.02203
1204.76539	0.02210
1203.47962	0.02218
1202.19385	0.02221
1200.90808	0.02218
1199.62232	0.02214
1198.33655	0.02211
1197.05078	0.02213
1195.76501	0.02216
1194.47924	0.02213
1193.19347	0.02207
1191.90770	0.02201
1190.62193	0.02202
1189.33616	0.02210
1188.05040	0.02221
1186.76463	0.02230
1185.47886	0.02234
1184.19309	0.02235
1182.90732	0.02238
1181.62155	0.02248
1180.33578	0.02260
1179.05001	0.02269
1177.76425	0.02272
1176.47848	0.02273
1175.19271	0.02277
1173.90694	0.02287
1172.62117	0.02302
1171.33540	0.02323
1170.04963	0.02347
1168.76386	0.02372
1167.47809	0.02398
1166.19233	0.02425
1164.90656	0.02452
1163.62079	0.02475
1162.33502	0.02493
1161.04925	0.02511
1159.76348	0.02536
1158.47771	0.02571
1157.19194	0.02610
1155.90618	0.02648
1154.62041	0.02686
1153.33464	0.02731
1152.04887	0.02792
1150.76310	0.02870
1149.47733	0.02957
1148.19156	0.03044
1146.90579	0.03129
1145.62002	0.03218
1144.33426	0.03315
1143.04849	0.03420
1141.76272	0.03533
1140.47695	0.03656
1139.19118	0.03797
1137.90541	0.03958
1136.61964	0.04139
1135.33387	0.04339
1134.04811	0.04554
1132.76234	0.04785
1131.47657	0.05036
1130.19080	0.05315
1128.90503	0.05627
1127.61926	0.05970
1126.33349	0.06340
1125.04772	0.06732
1123.76195	0.07147
1122.47619	0.07585
1121.19042	0.08041
1119.90465	0.08505
1118.61888	0.08968
1117.33311	0.09427
1116.04734	0.09885
1114.76157	0.10344
1113.47580	0.10803
1112.19004	0.11262
1110.90427	0.11718
1109.61850	0.12166
1108.33273	0.12605
1107.04696	0.13037
1105.76119	0.13465
1104.47542	0.13891
1103.18965	0.14316
1101.90388	0.14735
1100.61812	0.15142
1099.33235	0.15532
1098.04658	0.15899
1096.76081	0.16240
1095.47504	0.16560
1094.18927	0.16868
1092.90350	0.17169
1091.61773	0.17462
1090.33197	0.17738
1089.04620	0.17998
1087.76043	0.18250
1086.47466	0.18506
1085.18889	0.18772
1083.90312	0.19050
1082.61735	0.19339
1081.33158	0.19644
1080.04581	0.19966
1078.76005	0.20306
1077.47428	0.20666
1076.18851	0.21049
1074.90274	0.21456
1073.61697	0.21882
1072.33120	0.22323
1071.04543	0.22775
1069.75966	0.23240
1068.47390	0.23723
1067.18813	0.24227
1065.90236	0.24746
1064.61659	0.25271
1063.33082	0.25796
1062.04505	0.26318
1060.75928	0.26841
1059.47351	0.27369
1058.18774	0.27910
1056.90198	0.28457
1055.61621	0.28997
1054.33044	0.29520
1053.04467	0.30033
1051.75890	0.30551
1050.47313	0.31084
1049.18736	0.31635
1047.90159	0.32200
1046.61583	0.32782
1045.33006	0.33386
1044.04429	0.34016
1042.75852	0.34671
1041.47275	0.35343
1040.18698	0.36026
1038.90121	0.36716
1037.61544	0.37409
1036.32967	0.38105
1035.04391	0.38803
1033.75814	0.39499
1032.47237	0.40182
1031.18660	0.40838
1029.90083	0.41451
1028.61506	0.42011
1027.32929	0.42517
1026.04352	0.42972
1024.75775	0.43378
1023.47199	0.43729
1022.18622	0.44019
1020.90045	0.44239
1019.61468	0.44382
1018.32891	0.44440
1017.04314	0.44408
1015.75737	0.44281
1014.47160	0.44060
1013.18584	0.43744
1011.90007	0.43329
1010.61430	0.42808
1009.32853	0.42179
1008.04276	0.41445
1006.75699	0.40615
1005.47122	0.39698
1004.18545	0.38702
1002.89968	0.37632
1001.61392	0.36491
1000.32815	0.35287
999.04238	0.34035
997.75661	0.32754
996.47084	0.31460
995.18507	0.30157
993.89930	0.28848
992.61353	0.27541
991.32777	0.26261
990.04200	0.25033
988.75623	0.23872
987.47046	0.22770
986.18469	0.21711
984.89892	0.20692
983.61315	0.19719
982.32738	0.18803
981.04161	0.17949
979.75585	0.17154
978.47008	0.16424
977.18431	0.15769
975.89854	0.15196
974.61277	0.14708
973.32700	0.14309
972.04123	0.14003
970.75546	0.13799
969.46970	0.13702
968.18393	0.13699
966.89816	0.13771
965.61239	0.13898
964.32662	0.14058
963.04085	0.14218
961.75508	0.14338
960.46931	0.14375
959.18354	0.14296
957.89778	0.14093
956.61201	0.13785
955.32624	0.13405
954.04047	0.12989
952.75470	0.12559
951.46893	0.12133
950.18316	0.11719
948.89739	0.11323
947.61163	0.10943
946.32586	0.10572
945.04009	0.10209
943.75432	0.09856
942.46855	0.09516
941.18278	0.09195
939.89701	0.08897
938.61124	0.08626
937.32547	0.08381
936.03971	0.08153
934.75394	0.07937
933.46817	0.07735
932.18240	0.07549
930.89663	0.07382
929.61086	0.07232
928.32509	0.07095
927.03932	0.06969
925.75356	0.06849
924.46779	0.06734
923.18202	0.06627
921.89625	0.06532
920.61048	0.06449
919.32471	0.06370
918.03894	0.06287
916.75317	0.06203
915.46740	0.06124
914.18164	0.06056
912.89587	0.05996
911.61010	0.05938
910.32433	0.05879
909.03856	0.05820
907.75279	0.05760
906.46702	0.05702
905.18125	0.05648
903.89549	0.05596
902.60972	0.05546
901.32395	0.05500
900.03818	0.05464
898.75241	0.05443
897.46664	0.05434
896.18087	0.05435
894.89510	0.05436
893.60933	0.05428
892.32357	0.05412
891.03780	0.05397
889.75203	0.05404
888.46626	0.05454
887.18049	0.05566
885.89472	0.05758
884.60895	0.06047
883.32318	0.06432
882.03742	0.06878
880.75165	0.07314
879.46588	0.07670
878.18011	0.07924
876.89434	0.08120
875.60857	0.08318
874.32280	0.08533
873.03703	0.08715
871.75126	0.08801
870.46550	0.08757
869.17973	0.08594
867.89396	0.08338
866.60819	0.08017
865.32242	0.07660
864.03665	0.07298
862.75088	0.06959
861.46511	0.06653
860.17935	0.06384
858.89358	0.06152
857.60781	0.05957
856.32204	0.05796
855.03627	0.05662
853.75050	0.05547
852.46473	0.05446
851.17896	0.05360
849.89319	0.05289
848.60743	0.05233
847.32166	0.05188
846.03589	0.05150
844.75012	0.05116
843.46435	0.05085
842.17858	0.05056
840.89281	0.05027
839.60704	0.04998
838.32128	0.04964
837.03551	0.04926
835.74974	0.04886
834.46397	0.04849
833.17820	0.04822
831.89243	0.04807
830.60666	0.04800
829.32089	0.04794
828.03512	0.04783
826.74936	0.04768
825.46359	0.04753
824.17782	0.04736
822.89205	0.04715
821.60628	0.04695
820.32051	0.04686
819.03474	0.04690
817.74897	0.04696
816.46321	0.04694
815.17744	0.04683
813.89167	0.04674
812.60590	0.04673
811.32013	0.04680
810.03436	0.04688
808.74859	0.04691
807.46282	0.04689
806.17705	0.04686
804.89129	0.04682
803.60552	0.04676
802.31975	0.04668
801.03398	0.04658
799.74821	0.04647
798.46244	0.04634
797.17667	0.04624
795.89090	0.04618
794.60513	0.04618
793.31937	0.04620
792.03360	0.04617
790.74783	0.04609
789.46206	0.04596
788.17629	0.04584
786.89052	0.04578
785.60475	0.04576
784.31898	0.04573
783.03322	0.04568
781.74745	0.04562
780.46168	0.04557
779.17591	0.04555
777.89014	0.04555
776.60437	0.04556
775.31860	0.04555
774.03283	0.04550
772.74706	0.04542
771.46130	0.04537
770.17553	0.04539
768.88976	0.04549
767.60399	0.04561
766.31822	0.04572
765.03245	0.04583
763.74668	0.04597
762.46091	0.04617
761.17515	0.04638
759.88938	0.04655
758.60361	0.04664
757.31784	0.04664
756.03207	0.04656
754.74630	0.04643
753.46053	0.04631
752.17476	0.04619
750.88899	0.04608
749.60323	0.04598
748.31746	0.04590
747.03169	0.04586
745.74592	0.04579
744.46015	0.04565
743.17438	0.04542
741.88861	0.04516
740.60284	0.04500
739.31708	0.04498
738.03131	0.04502
736.74554	0.04500
735.45977	0.04488
734.17400	0.04470
732.88823	0.04454
731.60246	0.04442
730.31669	0.04439
729.03092	0.04445
727.74516	0.04460
726.45939	0.04479
725.17362	0.04493
723.88785	0.04504
722.60208	0.04509
721.31631	0.04514
720.03054	0.04524
718.74477	0.04537
717.45901	0.04542
716.17324	0.04541
714.88747	0.04539
713.60170	0.04536
712.31593	0.04534
711.03016	0.04531
709.74439	0.04526
708.45862	0.04517
707.17285	0.04506
705.88709	0.04497
704.60132	0.04490
703.31555	0.04486
702.02978	0.04484
700.74401	0.04483
699.45824	0.04484
698.17247	0.04484
696.88670	0.04485
695.60094	0.04487
694.31517	0.04489
693.02940	0.04490
691.74363	0.04488
690.45786	0.04488
689.17209	0.04491
687.88632	0.04492
686.60055	0.04485
685.31478	0.04468
684.02902	0.04450
682.74325	0.04438
681.45748	0.04434
680.17171	0.04433
678.88594	0.04429
677.60017	0.04423
676.31440	0.04420
675.02863	0.04420
673.74287	0.04423
672.45710	0.04441
671.17133	0.04500
669.88556	0.04561
668.59979	0.04482
667.31402	0.04470
666.02825	0.04596
664.74248	0.04531
663.45671	0.04450
662.17095	0.04411
660.88518	0.04385
659.59941	0.04363
658.31364	0.04350
657.02787	0.04347
655.74210	0.04347
654.45633	0.04347
653.17056	0.04343
651.88480	0.04340
650.59903	0.04342
649.31326	0.04345
648.02749	0.04352
646.74172	0.04356
645.45595	0.04362
644.17018	0.04379
642.88441	0.04408
641.59864	0.04442
640.31288	0.04473
639.02711	0.04497
637.74134	0.04523
636.45557	0.04563
635.16980	0.04616
633.88403	0.04676
632.59826	0.04735
631.31249	0.04790
630.02673	0.04837
628.74096	0.04888
627.45519	0.04981
626.16942	0.05054
624.88365	0.05115
623.59788	0.05210
622.31211	0.05413
621.02634	0.05797
619.74057	0.06346
618.45481	0.06923
617.16904	0.07369
615.88327	0.07628
614.59750	0.07786
613.31173	0.08014
612.02596	0.08464
610.74019	0.09195
609.45442	0.10167
608.16866	0.11259
606.88289	0.12313
605.59712	0.13183
604.31135	0.13794
603.02558	0.14150
601.73981	0.14289
600.45404	0.14242
599.16827	0.14042
597.88250	0.13735
596.59674	0.13374
595.31097	0.13000
594.02520	0.12640
592.73943	0.12317
591.45366	0.12050
590.16789	0.11865
588.88212	0.11788
587.59635	0.11823
586.31059	0.11950
585.02482	0.12139
583.73905	0.12380
582.45328	0.12677
581.16751	0.13031
579.88174	0.13423
578.59597	0.13827
577.31020	0.14230
576.02443	0.14632
574.73867	0.15032
573.45290	0.15432
572.16713	0.15836
570.88136	0.16264
569.59559	0.16746
568.30982	0.17312
567.02405	0.17959
565.73828	0.18645
564.45251	0.19289
563.16675	0.19797
561.88098	0.20091
560.59521	0.20126
559.30944	0.19891
558.02367	0.19395
556.73790	0.18669
555.45213	0.17767
554.16636	0.16763
552.88060	0.15741
551.59483	0.14770
550.30906	0.13880
549.02329	0.13066
547.73752	0.12312
546.45175	0.11619
545.16598	0.10999
543.88021	0.10456
542.59444	0.09980
541.30868	0.09555
540.02291	0.09175
538.73714	0.08832
537.45137	0.08514
536.16560	0.08214
534.87983	0.07930
533.59406	0.07665
532.30829	0.07413
531.02253	0.07175
529.73676	0.06956
528.45099	0.06763
527.16522	0.06593
525.87945	0.06441
524.59368	0.06302
523.30791	0.06173
522.02214	0.06046
520.73637	0.05912
519.45061	0.05770
518.16484	0.05628
516.87907	0.05495
515.59330	0.05371
514.30753	0.05256
513.02176	0.05149
511.73599	0.05053
510.45022	0.04973
509.16446	0.04905
507.87869	0.04846
506.59292	0.04788
505.30715	0.04727
504.02138	0.04663
502.73561	0.04602
501.44984	0.04548
500.16407	0.04507
498.87830	0.04474
497.59254	0.04439
496.30677	0.04392
495.02100	0.04332
493.73523	0.04270
492.44946	0.04215
491.16369	0.04171
489.87792	0.04137
488.59215	0.04110
487.30639	0.04088
486.02062	0.04071
484.73485	0.04062
483.44908	0.04066
482.16331	0.04080
480.87754	0.04102
479.59177	0.04126
478.30600	0.04151
477.02023	0.04178
475.73447	0.04210
474.44870	0.04245
473.16293	0.04277
471.87716	0.04297
470.59139	0.04302
469.30562	0.04293
468.01985	0.04271
466.73408	0.04237
465.44832	0.04195
464.16255	0.04148
462.87678	0.04101
461.59101	0.04057
460.30524	0.04015
459.01947	0.03976
457.73370	0.03938
456.44793	0.03900
455.16216	0.03862
453.87640	0.03822
452.59063	0.03778
451.30486	0.03735
450.01909	0.03700
448.73332	0.03676
447.44755	0.03657
446.16178	0.03634
444.87601	0.03604
443.59025	0.03572
442.30448	0.03547
441.01871	0.03530
439.73294	0.03521
438.44717	0.03512
437.16140	0.03503
435.87563	0.03492
434.58986	0.03484
433.30409	0.03480
432.01833	0.03480
430.73256	0.03476
429.44679	0.03461
428.16102	0.03436
426.87525	0.03411
425.58948	0.03393
424.30371	0.03380
423.01794	0.03368
421.73218	0.03353
420.44641	0.03335
419.16064	0.03315
417.87487	0.03294
416.58910	0.03273
415.30333	0.03259
414.01756	0.03250
412.73179	0.03244
411.44602	0.03235
410.16026	0.03224
408.87449	0.03217
407.58872	0.03220
406.30295	0.03232
405.01718	0.03242
403.73141	0.03244
402.44564	0.03242
401.15987	0.03248
399.87411	0.03264
