3997.45528 0.01815
3996.16951 0.01741
3994.88374 0.01689
3993.59798 0.01647
3992.31221 0.01621
3991.02644 0.01628
3989.74067 0.01678
3988.45490 0.01772
3987.16913 0.01884
3985.88336 0.01961
3984.59759 0.01945
3983.31183 0.01831
3982.02606 0.01679
3980.74029 0.01560
3979.45452 0.01491
3978.16875 0.01449
3976.88298 0.01428
3975.59721 0.01454
3974.31144 0.01528
3973.02567 0.01610
3971.73991 0.01660
3970.45414 0.01678
3969.16837 0.01682
3967.88260 0.01671
3966.59683 0.01635
3965.31106 0.01578
3964.02529 0.01532
3962.73952 0.01525
3961.45376 0.01572
3960.16799 0.01672
3958.88222 0.01814
3957.59645 0.01969
3956.31068 0.02084
3955.02491 0.02100
3953.73914 0.02003
3952.45337 0.01852
3951.16760 0.01738
3949.88184 0.01711
3948.59607 0.01747
3947.31030 0.01780
3946.02453 0.01771
3944.73876 0.01722
3943.45299 0.01664
3942.16722 0.01621
3940.88145 0.01596
3939.59569 0.01589
3938.30992 0.01612
3937.02415 0.01663
3935.73838 0.01715
3934.45261 0.01742
3933.16684 0.01751
3931.88107 0.01783
3930.59530 0.01853
3929.30953 0.01930
3928.02377 0.01963
3926.73800 0.01930
3925.45223 0.01868
3924.16646 0.01841
3922.88069 0.01882
3921.59492 0.01977
3920.30915 0.02087
3919.02338 0.02179
3917.73762 0.02227
3916.45185 0.02213
3915.16608 0.02130
3913.88031 0.02010
3912.59454 0.01917
3911.30877 0.01893
3910.02300 0.01925
3908.73723 0.01968
3907.45146 0.01992
3906.16570 0.01996
3904.87993 0.01987
3903.59416 0.01951
3902.30839 0.01872
3901.02262 0.01775
3899.73685 0.01726
3898.45108 0.01757
3897.16531 0.01825
3895.87955 0.01853
3894.59378 0.01820
3893.30801 0.01762
3892.02224 0.01722
3890.73647 0.01706
3889.45070 0.01692
3888.16493 0.01668
3886.87916 0.01661
3885.59339 0.01700
3884.30763 0.01756
3883.02186 0.01774
3881.73609 0.01747
3880.45032 0.01738
3879.16455 0.01792
3877.87878 0.01878
3876.59301 0.01927
3875.30724 0.01907
3874.02148 0.01832
3872.73571 0.01727
3871.44994 0.01617
3870.16417 0.01548
3868.87840 0.01548
3867.59263 0.01585
3866.30686 0.01607
3865.02109 0.01600
3863.73532 0.01579
3862.44956 0.01560
3861.16379 0.01570
3859.87802 0.01632
3858.59225 0.01740
3857.30648 0.01849
3856.02071 0.01908
3854.73494 0.01912
3853.44917 0.01904
3852.16341 0.01913
3850.87764 0.01918
3849.59187 0.01896
3848.30610 0.01855
3847.02033 0.01810
3845.73456 0.01760
3844.44879 0.01701
3843.16302 0.01645
3841.87725 0.01615
3840.59149 0.01620
3839.30572 0.01643
3838.01995 0.01663
3836.73418 0.01667
3835.44841 0.01653
3834.16264 0.01636
3832.87687 0.01641
3831.59110 0.01672
3830.30534 0.01703
3829.01957 0.01707
3827.73380 0.01681
3826.44803 0.01648
3825.16226 0.01638
3823.87649 0.01655
3822.59072 0.01692
3821.30495 0.01745
3820.01918 0.01793
3818.73342 0.01794
3817.44765 0.01736
3816.16188 0.01671
3814.87611 0.01639
3813.59034 0.01620
3812.30457 0.01590
3811.01880 0.01570
3809.73303 0.01572
3808.44726 0.01577
3807.16150 0.01577
3805.87573 0.01585
3804.58996 0.01604
3803.30419 0.01626
3802.01842 0.01659
3800.73265 0.01700
3799.44688 0.01702
3798.16111 0.01632
3796.87535 0.01532
3795.58958 0.01467
3794.30381 0.01453
3793.01804 0.01473
3791.73227 0.01524
3790.44650 0.01607
3789.16073 0.01711
3787.87496 0.01815
3786.58919 0.01899
3785.30343 0.01940
3784.01766 0.01920
3782.73189 0.01850
3781.44612 0.01774
3780.16035 0.01743
3778.87458 0.01779
3777.58881 0.01859
3776.30304 0.01929
3775.01728 0.01953
3773.73151 0.01934
3772.44574 0.01895
3771.15997 0.01862
3769.87420 0.01842
3768.58843 0.01814
3767.30266 0.01765
3766.01689 0.01728
3764.73112 0.01755
3763.44536 0.01833
3762.15959 0.01881
3760.87382 0.01838
3759.58805 0.01729
3758.30228 0.01632
3757.01651 0.01615
3755.73074 0.01671
3754.44497 0.01740
3753.15921 0.01772
3751.87344 0.01774
3750.58767 0.01784
3749.30190 0.01834
3748.01613 0.01908
3746.73036 0.01930
3745.44459 0.01875
3744.15882 0.01812
3742.87305 0.01802
3741.58729 0.01828
3740.30152 0.01863
3739.01575 0.01896
3737.72998 0.01906
3736.44421 0.01879
3735.15844 0.01815
3733.87267 0.01726
3732.58690 0.01637
3731.30114 0.01586
3730.01537 0.01570
3728.72960 0.01561
3727.44383 0.01555
3726.15806 0.01572
3724.87229 0.01611
3723.58652 0.01644
3722.30075 0.01650
3721.01498 0.01636
3719.72922 0.01618
3718.44345 0.01614
3717.15768 0.01627
3715.87191 0.01641
3714.58614 0.01635
3713.30037 0.01607
3712.01460 0.01596
3710.72883 0.01651
3709.44307 0.01785
3708.15730 0.01964
3706.87153 0.02120
3705.58576 0.02184
3704.29999 0.02125
3703.01422 0.01981
3701.72845 0.01841
3700.44268 0.01769
3699.15691 0.01745
3697.87115 0.01720
3696.58538 0.01688
3695.29961 0.01684
3694.01384 0.01727
3692.72807 0.01795
3691.44230 0.01838
3690.15653 0.01810
3688.87076 0.01714
3687.58500 0.01599
3686.29923 0.01511
3685.01346 0.01476
3683.72769 0.01499
3682.44192 0.01548
3681.15615 0.01591
3679.87038 0.01632
3678.58461 0.01686
3677.29884 0.01732
3676.01308 0.01751
3674.72731 0.01755
3673.44154 0.01763
3672.15577 0.01771
3670.87000 0.01782
3669.58423 0.01792
3668.29846 0.01780
3667.01269 0.01743
3665.72693 0.01707
3664.44116 0.01692
3663.15539 0.01690
3661.86962 0.01701
3660.58385 0.01732
3659.29808 0.01766
3658.01231 0.01761
3656.72654 0.01707
3655.44077 0.01652
3654.15501 0.01641
3652.86924 0.01666
3651.58347 0.01687
3650.29770 0.01668
3649.01193 0.01601
3647.72616 0.01505
3646.44039 0.01423
3645.15462 0.01392
3643.86886 0.01417
3642.58309 0.01469
3641.29732 0.01513
3640.01155 0.01546
3638.72578 0.01591
3637.44001 0.01662
3636.15424 0.01739
3634.86847 0.01795
3633.58270 0.01836
3632.29694 0.01884
3631.01117 0.01929
3629.72540 0.01945
3628.43963 0.01911
3627.15386 0.01826
3625.86809 0.01710
3624.58232 0.01607
3623.29655 0.01555
3622.01079 0.01555
3620.72502 0.01595
3619.43925 0.01670
3618.15348 0.01764
3616.86771 0.01849
3615.58194 0.01897
3614.29617 0.01911
3613.01040 0.01911
3611.72463 0.01903
3610.43887 0.01885
3609.15310 0.01862
3607.86733 0.01860
3606.58156 0.01891
3605.29579 0.01945
3604.01002 0.01987
3602.72425 0.01983
3601.43848 0.01934
3600.15272 0.01877
3598.86695 0.01857
3597.58118 0.01894
3596.29541 0.01965
3595.00964 0.02021
3593.72387 0.02024
3592.43810 0.01986
3591.15233 0.01956
3589.86656 0.01971
3588.58080 0.02026
3587.29503 0.02079
3586.00926 0.02089
3584.72349 0.02042
3583.43772 0.01956
3582.15195 0.01861
3580.86618 0.01787
3579.58041 0.01759
3578.29464 0.01782
3577.00888 0.01834
3575.72311 0.01878
3574.43734 0.01898
3573.15157 0.01908
3571.86580 0.01931
3570.58003 0.01965
3569.29426 0.01989
3568.00849 0.02002
3566.72273 0.02025
3565.43696 0.02067
3564.15119 0.02105
3562.86542 0.02107
3561.57965 0.02074
3560.29388 0.02041
3559.00811 0.02049
3557.72234 0.02109
3556.43657 0.02201
3555.15081 0.02290
3553.86504 0.02344
3552.57927 0.02352
3551.29350 0.02319
3550.00773 0.02255
3548.72196 0.02182
3547.43619 0.02122
3546.15042 0.02097
3544.86466 0.02114
3543.57889 0.02170
3542.29312 0.02241
3541.00735 0.02297
3539.72158 0.02314
3538.43581 0.02287
3537.15004 0.02227
3535.86427 0.02144
3534.57850 0.02051
3533.29274 0.01974
3532.00697 0.01956
3530.72120 0.02021
3529.43543 0.02144
3528.14966 0.02261
3526.86389 0.02331
3525.57812 0.02358
3524.29235 0.02373
3523.00659 0.02392
3521.72082 0.02403
3520.43505 0.02391
3519.14928 0.02362
3517.86351 0.02341
3516.57774 0.02344
3515.29197 0.02367
3514.00620 0.02396
3512.72043 0.02421
3511.43467 0.02443
3510.14890 0.02459
3508.86313 0.02459
3507.57736 0.02427
3506.29159 0.02364
3505.00582 0.02294
3503.72005 0.02241
3502.43428 0.02212
3501.14852 0.02195
3499.86275 0.02196
3498.57698 0.02242
3497.29121 0.02346
3496.00544 0.02478
3494.71967 0.02575
3493.43390 0.02596
3492.14813 0.02552
3490.86236 0.02494
3489.57660 0.02465
3488.29083 0.02474
3487.00506 0.02512
3485.71929 0.02569
3484.43352 0.02633
3483.14775 0.02681
3481.86198 0.02692
3480.57621 0.02668
3479.29045 0.02626
3478.00468 0.02573
3476.71891 0.02511
3475.43314 0.02458
3474.14737 0.02455
3472.86160 0.02519
3471.57583 0.02616
3470.29006 0.02686
3469.00429 0.02697
3467.71853 0.02662
3466.43276 0.02621
3465.14699 0.02604
3463.86122 0.02614
3462.57545 0.02637
3461.28968 0.02651
3460.00391 0.02643
3458.71814 0.02616
3457.43238 0.02590
3456.14661 0.02585
3454.86084 0.02602
3453.57507 0.02631
3452.28930 0.02660
3451.00353 0.02689
3449.71776 0.02711
3448.43199 0.02713
3447.14622 0.02689
3445.86046 0.02649
3444.57469 0.02619
3443.28892 0.02628
3442.00315 0.02693
3440.71738 0.02798
3439.43161 0.02897
3438.14584 0.02940
3436.86007 0.02906
3435.57431 0.02813
3434.28854 0.02707
3433.00277 0.02637
3431.71700 0.02634
3430.43123 0.02688
3429.14546 0.02760
3427.85969 0.02805
3426.57392 0.02800
3425.28815 0.02757
3424.00239 0.02707
3422.71662 0.02682
3421.43085 0.02696
3420.14508 0.02736
3418.85931 0.02781
3417.57354 0.02820
3416.28777 0.02858
3415.00200 0.02897
3413.71624 0.02925
3412.43047 0.02919
3411.14470 0.02869
3409.85893 0.02784
3408.57316 0.02694
3407.28739 0.02637
3406.00162 0.02644
3404.71585 0.02714
3403.43008 0.02814
3402.14432 0.02919
3400.85855 0.03016
3399.57278 0.03057
3398.28701 0.03042
3397.00124 0.03031
3395.71547 0.03019
3394.42970 0.02991
3393.14393 0.02950
3391.85817 0.02908
3390.57240 0.02883
3389.28663 0.02890
3388.00086 0.02932
3386.71509 0.02998
3385.42932 0.03076
3384.14355 0.03147
3382.85778 0.03188
3381.57201 0.03183
3380.28625 0.03141
3379.00048 0.03093
3377.71471 0.03066
3376.42894 0.03065
3375.14317 0.03076
3373.85740 0.03087
3372.57163 0.03097
3371.28586 0.03102
3370.00010 0.03099
3368.71433 0.03086
3367.42856 0.03069
3366.14279 0.03053
3364.85702 0.03036
3363.57125 0.03020
3362.28548 0.03012
3360.99971 0.03021
3359.71394 0.03045
3358.42818 0.03080
3357.14241 0.03118
3355.85664 0.03158
3354.57087 0.03196
3353.28510 0.03227
3351.99933 0.03246
3350.71356 0.03247
3349.42779 0.03220
3348.14202 0.03158
3346.85626 0.03073
3345.57049 0.03003
3344.28472 0.02992
3342.99895 0.03048
3341.71318 0.03132
3340.42741 0.03197
3339.14164 0.03219
3337.85587 0.03209
3336.57011 0.03191
3335.28434 0.03190
3333.99857 0.03225
3332.71280 0.03291
3331.42703 0.03362
3330.14126 0.03403
3328.85549 0.03393
3327.56972 0.03336
3326.28395 0.03258
3324.99819 0.03194
3323.71242 0.03166
3322.42665 0.03175
3321.14088 0.03212
3319.85511 0.03263
3318.56934 0.03312
3317.28357 0.03341
3315.99780 0.03355
3314.71204 0.03381
3313.42627 0.03440
3312.14050 0.03519
3310.85473 0.03578
3309.56896 0.03599
3308.28319 0.03600
3306.99742 0.03605
3305.71165 0.03608
3304.42588 0.03588
3303.14012 0.03543
3301.85435 0.03503
3300.56858 0.03494
3299.28281 0.03506
3297.99704 0.03502
3296.71127 0.03458
3295.42550 0.03382
3294.13973 0.03315
3292.85397 0.03296
3291.56820 0.03332
3290.28243 0.03404
3288.99666 0.03477
3287.71089 0.03526
3286.42512 0.03543
3285.13935 0.03538
3283.85358 0.03534
3282.56781 0.03544
3281.28205 0.03566
3279.99628 0.03579
3278.71051 0.03568
3277.42474 0.03534
3276.13897 0.03493
3274.85320 0.03453
3273.56743 0.03417
3272.28166 0.03390
3270.99590 0.03386
3269.71013 0.03422
3268.42436 0.03503
3267.13859 0.03610
3265.85282 0.03707
3264.56705 0.03765
3263.28128 0.03776
3261.99551 0.03755
3260.70974 0.03713
3259.42398 0.03654
3258.13821 0.03581
3256.85244 0.03522
3255.56667 0.03507
3254.28090 0.03544
3252.99513 0.03610
3251.70936 0.03678
3250.42359 0.03731
3249.13783 0.03756
3247.85206 0.03732
3246.56629 0.03651
3245.28052 0.03542
3243.99475 0.03450
3242.70898 0.03406
3241.42321 0.03409
3240.13744 0.03438
3238.85167 0.03469
3237.56591 0.03487
3236.28014 0.03490
3234.99437 0.03479
3233.70860 0.03454
3232.42283 0.03425
3231.13706 0.03420
3229.85129 0.03458
3228.56552 0.03520
3227.27976 0.03549
3225.99399 0.03506
3224.70822 0.03416
3223.42245 0.03349
3222.13668 0.03355
3220.85091 0.03424
3219.56514 0.03506
3218.27937 0.03555
3216.99360 0.03559
3215.70784 0.03535
3214.42207 0.03513
3213.13630 0.03505
3211.85053 0.03503
3210.56476 0.03494
3209.27899 0.03477
3207.99322 0.03466
3206.70745 0.03466
3205.42169 0.03466
3204.13592 0.03460
3202.85015 0.03463
3201.56438 0.03486
3200.27861 0.03518
3198.99284 0.03532
3197.70707 0.03522
3196.42130 0.03508
3195.13553 0.03509
3193.84977 0.03523
3192.56400 0.03532
3191.27823 0.03530
3189.99246 0.03519
3188.70669 0.03502
3187.42092 0.03477
3186.13515 0.03448
3184.84938 0.03423
3183.56362 0.03411
3182.27785 0.03416
3180.99208 0.03434
3179.70631 0.03452
3178.42054 0.03457
3177.13477 0.03441
3175.84900 0.03411
3174.56323 0.03375
3173.27746 0.03335
3171.99170 0.03282
3170.70593 0.03212
3169.42016 0.03145
3168.13439 0.03114
3166.84862 0.03134
3165.56285 0.03192
3164.27708 0.03254
3162.99131 0.03294
3161.70555 0.03308
3160.41978 0.03301
3159.13401 0.03283
3157.84824 0.03263
3156.56247 0.03248
3155.27670 0.03232
3153.99093 0.03204
3152.70516 0.03156
3151.41939 0.03102
3150.13363 0.03066
3148.84786 0.03074
3147.56209 0.03136
3146.27632 0.03240
3144.99055 0.03347
3143.70478 0.03417
3142.41901 0.03433
3141.13324 0.03410
3139.84748 0.03375
3138.56171 0.03342
3137.27594 0.03313
3135.99017 0.03287
3134.70440 0.03270
3133.41863 0.03277
3132.13286 0.03312
3130.84709 0.03355
3129.56132 0.03366
3128.27556 0.03327
3126.98979 0.03257
3125.70402 0.03198
3124.41825 0.03171
3123.13248 0.03169
3121.84671 0.03182
3120.56094 0.03205
3119.27517 0.03235
3117.98940 0.03261
3116.70364 0.03266
3115.41787 0.03243
3114.13210 0.03205
3112.84633 0.03184
3111.56056 0.03198
3110.27479 0.03233
3108.98902 0.03261
3107.70325 0.03264
3106.41749 0.03241
3105.13172 0.03208
3103.84595 0.03184
3102.56018 0.03186
3101.27441 0.03209
3099.98864 0.03226
3098.70287 0.03214
3097.41710 0.03175
3096.13133 0.03141
3094.84557 0.03142
3093.55980 0.03181
3092.27403 0.03231
3090.98826 0.03265
3089.70249 0.03273
3088.41672 0.03261
3087.13095 0.03240
3085.84518 0.03217
3084.55942 0.03203
3083.27365 0.03211
3081.98788 0.03243
3080.70211 0.03276
3079.41634 0.03282
3078.13057 0.03255
3076.84480 0.03219
3075.55903 0.03199
3074.27326 0.03202
3072.98750 0.03216
3071.70173 0.03235
3070.41596 0.03257
3069.13019 0.03278
3067.84442 0.03284
3066.55865 0.03267
3065.27288 0.03239
3063.98711 0.03219
3062.70135 0.03208
3061.41558 0.03197
3060.12981 0.03175
3058.84404 0.03142
3057.55827 0.03101
3056.27250 0.03063
3054.98673 0.03041
3053.70096 0.03044
3052.41519 0.03071
3051.12943 0.03106
3049.84366 0.03129
3048.55789 0.03131
3047.27212 0.03115
3045.98635 0.03094
3044.70058 0.03082
3043.41481 0.03088
3042.12904 0.03111
3040.84328 0.03137
3039.55751 0.03147
3038.27174 0.03136
3036.98597 0.03116
3035.70020 0.03107
3034.41443 0.03105
3033.12866 0.03093
3031.84289 0.03061
3030.55712 0.03028
3029.27136 0.03019
3027.98559 0.03037
3026.69982 0.03061
3025.41405 0.03065
3024.12828 0.03049
3022.84251 0.03030
3021.55674 0.03029
3020.27097 0.03055
3018.98521 0.03093
3017.69944 0.03117
3016.41367 0.03105
3015.12790 0.03062
3013.84213 0.03013
3012.55636 0.02985
3011.27059 0.02986
3009.98482 0.03001
3008.69905 0.03014
3007.41329 0.03018
3006.12752 0.03013
3004.84175 0.02999
3003.55598 0.02978
3002.27021 0.02968
3000.98444 0.02969
2999.69867 0.02933
2998.41290 0.02948
2997.12714 0.02977
2995.84137 0.03015
2994.55560 0.03061
2993.26983 0.03104
2991.98406 0.03128
2990.69829 0.03117
2989.41252 0.03071
2988.12675 0.03006
2986.84098 0.02943
2985.55522 0.02907
2984.26945 0.02911
2982.98368 0.02952
2981.69791 0.03008
2980.41214 0.03057
2979.12637 0.03086
2977.84060 0.03088
2976.55483 0.03066
2975.26907 0.03037
2973.98330 0.03033
2972.69753 0.03072
2971.41176 0.03147
2970.12599 0.03232
2968.84022 0.03292
2967.55445 0.03317
2966.26868 0.03324
2964.98291 0.03342
2963.69715 0.03380
2962.41138 0.03420
2961.12561 0.03445
2959.83984 0.03461
2958.55407 0.03488
2957.26830 0.03534
2955.98253 0.03595
2954.69676 0.03656
2953.41100 0.03700
2952.12523 0.03721
2950.83946 0.03728
2949.55369 0.03729
2948.26792 0.03725
2946.98215 0.03706
2945.69638 0.03669
2944.41061 0.03621
2943.12484 0.03574
2941.83908 0.03546
2940.55331 0.03549
2939.26754 0.03576
2937.98177 0.03607
2936.69600 0.03630
2935.41023 0.03652
2934.12446 0.03695
2932.83869 0.03759
2931.55293 0.03819
2930.26716 0.03855
2928.98139 0.03871
2927.69562 0.03886
2926.40985 0.03907
2925.12408 0.03917
2923.83831 0.03902
2922.55254 0.03873
2921.26677 0.03859
2919.98101 0.03872
2918.69524 0.03890
2917.40947 0.03891
2916.12370 0.03870
2914.83793 0.03837
2913.55216 0.03802
2912.26639 0.03772
2910.98062 0.03756
2909.69486 0.03751
2908.40909 0.03737
2907.12332 0.03699
2905.83755 0.03649
2904.55178 0.03617
2903.26601 0.03617
2901.98024 0.03633
2900.69447 0.03641
2899.40870 0.03631
2898.12294 0.03607
2896.83717 0.03575
2895.55140 0.03533
2894.26563 0.03483
2892.97986 0.03434
2891.69409 0.03395
2890.40832 0.03365
2889.12255 0.03335
2887.83678 0.03311
2886.55102 0.03307
2885.26525 0.03328
2883.97948 0.03360
2882.69371 0.03384
2881.40794 0.03401
2880.12217 0.03410
2878.83640 0.03405
2877.55063 0.03382
2876.26487 0.03365
2874.97910 0.03377
2873.69333 0.03408
2872.40756 0.03430
2871.12179 0.03430
2869.83602 0.03429
2868.55025 0.03441
2867.26448 0.03451
2865.97871 0.03435
2864.69295 0.03390
2863.40718 0.03338
2862.12141 0.03306
2860.83564 0.03302
2859.54987 0.03318
2858.26410 0.03339
2856.97833 0.03355
2855.69256 0.03367
2854.40680 0.03381
2853.12103 0.03396
2851.83526 0.03402
2850.54949 0.03388
2849.26372 0.03359
2847.97795 0.03322
2846.69218 0.03278
2845.40641 0.03227
2844.12064 0.03177
2842.83488 0.03143
2841.54911 0.03121
2840.26334 0.03092
2838.97757 0.03047
2837.69180 0.03003
2836.40603 0.02979
2835.12026 0.02969
2833.83449 0.02958
2832.54873 0.02941
2831.26296 0.02929
2829.97719 0.02920
2828.69142 0.02901
2827.40565 0.02868
2826.11988 0.02837
2824.83411 0.02823
2823.54834 0.02823
2822.26257 0.02823
2820.97681 0.02816
2819.69104 0.02806
2818.40527 0.02801
2817.11950 0.02804
2815.83373 0.02809
2814.54796 0.02804
2813.26219 0.02782
2811.97642 0.02754
2810.69066 0.02733
2809.40489 0.02732
2808.11912 0.02751
2806.83335 0.02776
2805.54758 0.02784
2804.26181 0.02762
2802.97604 0.02725
2801.69027 0.02702
2800.40450 0.02703
2799.11874 0.02718
2797.83297 0.02728
2796.54720 0.02724
2795.26143 0.02712
2793.97566 0.02699
2792.68989 0.02691
2791.40412 0.02696
2790.11835 0.02716
2788.83259 0.02740
2787.54682 0.02744
2786.26105 0.02719
2784.97528 0.02679
2783.68951 0.02648
2782.40374 0.02638
2781.11797 0.02648
2779.83220 0.02667
2778.54643 0.02680
2777.26067 0.02676
2775.97490 0.02654
2774.68913 0.02631
2773.40336 0.02617
2772.11759 0.02614
2770.83182 0.02620
2769.54605 0.02637
2768.26028 0.02659
2766.97452 0.02673
2765.68875 0.02666
2764.40298 0.02642
2763.11721 0.02616
2761.83144 0.02599
2760.54567 0.02586
2759.25990 0.02574
2757.97413 0.02563
2756.68836 0.02558
2755.40260 0.02562
2754.11683 0.02571
2752.83106 0.02576
2751.54529 0.02571
2750.25952 0.02560
2748.97375 0.02554
2747.68798 0.02555
2746.40221 0.02551
2745.11645 0.02531
2743.83068 0.02503
2742.54491 0.02487
2741.25914 0.02493
2739.97337 0.02512
2738.68760 0.02537
2737.40183 0.02560
2736.11606 0.02572
2734.83029 0.02562
2733.54453 0.02538
2732.25876 0.02525
2730.97299 0.02537
2729.68722 0.02562
2728.40145 0.02576
2727.11568 0.02568
2725.82991 0.02545
2724.54414 0.02521
2723.25838 0.02507
2721.97261 0.02505
2720.68684 0.02510
2719.40107 0.02512
2718.11530 0.02507
2716.82953 0.02493
2715.54376 0.02476
2714.25799 0.02467
2712.97222 0.02467
2711.68646 0.02468
2710.40069 0.02454
2709.11492 0.02428
2707.82915 0.02406
2706.54338 0.02403
2705.25761 0.02416
2703.97184 0.02435
2702.68607 0.02458
2701.40031 0.02481
2700.11454 0.02491
2698.82877 0.02476
2697.54300 0.02441
2696.25723 0.02412
2694.97146 0.02408
2693.68569 0.02419
2692.39992 0.02418
2691.11415 0.02397
2689.82839 0.02373
2688.54262 0.02372
2687.25685 0.02397
2685.97108 0.02423
2684.68531 0.02428
2683.39954 0.02411
2682.11377 0.02386
2680.82800 0.02368
2679.54224 0.02363
2678.25647 0.02367
2676.97070 0.02375
2675.68493 0.02380
2674.39916 0.02380
2673.11339 0.02382
2671.82762 0.02389
2670.54185 0.02404
2669.25608 0.02418
2667.97032 0.02418
2666.68455 0.02400
2665.39878 0.02375
2664.11301 0.02364
2662.82724 0.02374
2661.54147 0.02393
2660.25570 0.02410
2658.96993 0.02423
2657.68417 0.02439
2656.39840 0.02459
2655.11263 0.02481
2653.82686 0.02504
2652.54109 0.02521
2651.25532 0.02518
2649.96955 0.02484
2648.68378 0.02424
2647.39801 0.02356
2646.11225 0.02301
2644.82648 0.02277
2643.54071 0.02285
2642.25494 0.02313
2640.96917 0.02338
2639.68340 0.02351
2638.39763 0.02353
2637.11186 0.02346
2635.82609 0.02321
2634.54033 0.02278
2633.25456 0.02233
2631.96879 0.02212
2630.68302 0.02223
2629.39725 0.02260
2628.11148 0.02303
2626.82571 0.02331
2625.53994 0.02329
2624.25418 0.02295
2622.96841 0.02247
2621.68264 0.02207
2620.39687 0.02188
2619.11110 0.02180
2617.82533 0.02164
2616.53956 0.02134
2615.25379 0.02110
2613.96802 0.02121
2612.68226 0.02162
2611.39649 0.02196
2610.11072 0.02191
2608.82495 0.02155
2607.53918 0.02125
2606.25341 0.02129
2604.96764 0.02163
2603.68187 0.02203
2602.39611 0.02224
2601.11034 0.02221
2599.82457 0.02204
2598.53880 0.02180
2597.25303 0.02150
2595.96726 0.02108
2594.68149 0.02055
2593.39572 0.01998
2592.10995 0.01947
2590.82419 0.01908
2589.53842 0.01887
2588.25265 0.01891
2586.96688 0.01922
2585.68111 0.01972
2584.39534 0.02022
2583.10957 0.02056
2581.82380 0.02068
2580.53804 0.02066
2579.25227 0.02064
2577.96650 0.02067
2576.68073 0.02070
2575.39496 0.02065
2574.10919 0.02043
2572.82342 0.02005
2571.53765 0.01971
2570.25188 0.01966
2568.96612 0.02001
2567.68035 0.02052
2566.39458 0.02077
2565.10881 0.02047
2563.82304 0.01973
2562.53727 0.01896
2561.25150 0.01850
2559.96573 0.01840
2558.67997 0.01843
2557.39420 0.01841
2556.10843 0.01839
2554.82266 0.01851
2553.53689 0.01873
2552.25112 0.01882
2550.96535 0.01867
2549.67958 0.01839
2548.39381 0.01817
2547.10805 0.01804
2545.82228 0.01796
2544.53651 0.01789
2543.25074 0.01792
2541.96497 0.01812
2540.67920 0.01847
2539.39343 0.01876
2538.10766 0.01877
2536.82190 0.01851
2535.53613 0.01823
2534.25036 0.01823
2532.96459 0.01852
2531.67882 0.01884
2530.39305 0.01894
2529.10728 0.01884
2527.82151 0.01870
2526.53574 0.01856
2525.24998 0.01845
2523.96421 0.01845
2522.67844 0.01862
2521.39267 0.01885
2520.10690 0.01894
2518.82113 0.01879
2517.53536 0.01850
2516.24959 0.01827
2514.96383 0.01821
2513.67806 0.01830
2512.39229 0.01847
2511.10652 0.01871
2509.82075 0.01890
2508.53498 0.01880
2507.24921 0.01822
2505.96344 0.01739
2504.67767 0.01680
2503.39191 0.01670
2502.10614 0.01687
2500.82037 0.01700
2499.53460 0.01709
2498.24883 0.01738
2496.96306 0.01797
2495.67729 0.01869
2494.39152 0.01918
2493.10576 0.01929
2491.81999 0.01910
2490.53422 0.01881
2489.24845 0.01854
2487.96268 0.01834
2486.67691 0.01820
2485.39114 0.01816
2484.10537 0.01825
2482.81960 0.01847
2481.53384 0.01868
2480.24807 0.01867
2478.96230 0.01840
2477.67653 0.01805
2476.39076 0.01780
2475.10499 0.01766
2473.81922 0.01753
2472.53345 0.01739
2471.24769 0.01727
2469.96192 0.01721
2468.67615 0.01721
2467.39038 0.01730
2466.10461 0.01754
2464.81884 0.01787
2463.53307 0.01818
2462.24730 0.01833
2460.96153 0.01829
2459.67577 0.01818
2458.39000 0.01815
2457.10423 0.01821
2455.81846 0.01826
2454.53269 0.01820
2453.24692 0.01808
2451.96115 0.01804
2450.67538 0.01817
2449.38962 0.01841
2448.10385 0.01867
2446.81808 0.01889
2445.53231 0.01906
2444.24654 0.01911
2442.96077 0.01898
2441.67500 0.01870
2440.38923 0.01835
2439.10346 0.01807
2437.81770 0.01789
2436.53193 0.01779
2435.24616 0.01765
2433.96039 0.01745
2432.67462 0.01735
2431.38885 0.01752
2430.10308 0.01790
2428.81731 0.01816
2427.53155 0.01804
2426.24578 0.01764
2424.96001 0.01731
2423.67424 0.01717
2422.38847 0.01707
2421.10270 0.01683
2419.81693 0.01656
2418.53116 0.01649
2417.24539 0.01660
2415.95963 0.01670
2414.67386 0.01671
2413.38809 0.01672
2412.10232 0.01688
2410.81655 0.01712
2409.53078 0.01729
2408.24501 0.01728
2406.95924 0.01710
2405.67347 0.01679
2404.38771 0.01641
2403.10194 0.01605
2401.81617 0.01584
2400.53040 0.01594
2399.24463 0.01709
2397.95886 0.01681
2396.67309 0.01657
2395.38732 0.01665
2394.10156 0.01678
2392.81579 0.01688
2391.53002 0.01692
2390.24425 0.01682
2388.95848 0.01658
2387.67271 0.01628
2386.38694 0.01601
2385.10117 0.01587
2383.81540 0.01588
2382.52964 0.01601
2381.24387 0.01615
2379.95810 0.01622
2378.67233 0.01622
2377.38656 0.01617
2376.10079 0.01613
2374.81502 0.01622
2373.52925 0.01660
2372.24349 0.01709
2370.95772 0.01736
2369.67195 0.01733
2368.38618 0.01722
2367.10041 0.01731
2365.81464 0.01756
2364.52887 0.01782
2363.24310 0.01796
2361.95733 0.01800
2360.67157 0.01811
2359.38580 0.01821
2358.10003 0.01816
2356.81426 0.01800
2355.52849 0.01778
2354.24272 0.01750
2352.95695 0.01726
2351.67118 0.01727
2350.38542 0.01745
2349.09965 0.01757
2347.81388 0.01768
2346.52811 0.01796
2345.24234 0.01818
2343.95657 0.01799
2342.67080 0.01755
2341.38503 0.01775
2340.09926 0.01844
2338.81350 0.01844
2337.52773 0.01779
2336.24196 0.01778
2334.95619 0.01821
2333.67042 0.01799
2332.38465 0.01743
2331.09888 0.01775
2329.81311 0.01797
2328.52735 0.01765
2327.24158 0.01811
2325.95581 0.01913
2324.67004 0.01976
2323.38427 0.02012
2322.09850 0.02042
2320.81273 0.02017
2319.52696 0.01993
2318.24119 0.01985
2316.95543 0.01968
2315.66966 0.01962
2314.38389 0.01949
2313.09812 0.01910
2311.81235 0.01859
2310.52658 0.01788
2309.24081 0.01715
2307.95504 0.01671
2306.66928 0.01653
2305.38351 0.01656
2304.09774 0.01657
2302.81197 0.01644
2301.52620 0.01627
2300.24043 0.01612
2298.95466 0.01605
2297.66889 0.01601
2296.38312 0.01602
2295.09736 0.01613
2293.81159 0.01630
2292.52582 0.01643
2291.24005 0.01647
2289.95428 0.01657
2288.66851 0.01685
2287.38274 0.01720
2286.09697 0.01739
2284.81121 0.01732
2283.52544 0.01712
2282.23967 0.01699
2280.95390 0.01701
2279.66813 0.01704
2278.38236 0.01689
2277.09659 0.01642
2275.81082 0.01577
2274.52505 0.01528
2273.23929 0.01519
2271.95352 0.01540
2270.66775 0.01547
2269.38198 0.01507
2268.09621 0.01433
2266.81044 0.01369
2265.52467 0.01356
2264.23890 0.01391
2262.95314 0.01429
2261.66737 0.01423
2260.38160 0.01362
2259.09583 0.01282
2257.81006 0.01227
2256.52429 0.01207
2255.23852 0.01211
2253.95275 0.01228
2252.66698 0.01249
2251.38122 0.01244
2250.09545 0.01243
2248.80968 0.01380
2247.52391 0.01390
2246.23814 0.01377
2244.95237 0.01356
2243.66660 0.01342
2242.38083 0.01340
2241.09507 0.01347
2239.80930 0.01357
2238.52353 0.01370
2237.23776 0.01386
2235.95199 0.01406
2234.66622 0.01427
2233.38045 0.01450
2232.09468 0.01479
2230.80891 0.01508
2229.52315 0.01509
2228.23738 0.01456
2226.95161 0.01347
2225.66584 0.01210
2224.38007 0.01093
2223.09430 0.01039
2221.80853 0.01072
2220.52276 0.01183
2219.23700 0.01337
2217.95123 0.01483
2216.66546 0.01555
2215.37969 0.01514
2214.09392 0.01384
2212.80815 0.01254
2211.52238 0.01197
2210.23661 0.01212
2208.95084 0.01249
2207.66508 0.01258
2206.37931 0.01224
2205.09354 0.01173
2203.80777 0.01146
2202.52200 0.01148
2201.23623 0.01132
2199.95046 0.01071
2198.66469 0.01000
2197.37893 0.00979
2196.09316 0.01001
2194.80739 0.01005
2193.52162 0.00960
2192.23585 0.00916
2190.95008 0.00928
2189.66431 0.00977
2188.37854 0.00985
2187.09277 0.00901
2185.80701 0.00763
2184.52124 0.00655
2183.23547 0.00629
2181.94970 0.00682
2180.66393 0.00777
2179.37816 0.00865
2178.09239 0.00893
2176.80662 0.00833
2175.52085 0.00708
2174.23509 0.00573
2172.94932 0.00478
2171.66355 0.00457
2170.37778 0.00535
2169.09201 0.00711
2167.80624 0.00932
2166.52047 0.01113
2165.23470 0.01184
2163.94894 0.01125
2162.66317 0.00960
2161.37740 0.00739
2160.09163 0.00521
2158.80586 0.00362
2157.52009 0.00308
2156.23432 0.00360
2154.94855 0.00445
2153.66278 0.00470
2152.37702 0.00428
2151.09125 0.00411
2149.80548 0.00490
2148.51971 0.00628
2147.23394 0.00733
2145.94817 0.00768
2144.66240 0.00767
2143.37663 0.00757
2142.09087 0.00733
2140.80510 0.00686
2139.51933 0.00626
2138.23356 0.00584
2136.94779 0.00579
2135.66202 0.00602
2134.37625 0.00630
2133.09048 0.00652
2131.80471 0.00676
2130.51895 0.00704
2129.23318 0.00726
2127.94741 0.00733
2126.66164 0.00736
2125.37587 0.00756
2124.09010 0.00795
2122.80433 0.00837
2121.51856 0.00865
2120.23280 0.00882
2118.94703 0.00906
2117.66126 0.00943
2116.37549 0.00975
2115.08972 0.00974
2113.80395 0.00940
2112.51818 0.00916
2111.23241 0.00947
2109.94664 0.01032
2108.66088 0.01119
2107.37511 0.01154
2106.08934 0.01126
2104.80357 0.01066
2103.51780 0.01015
2102.23203 0.00985
2100.94626 0.00969
2099.66049 0.01099
2098.37473 0.01176
2097.08896 0.01151
2095.80319 0.01080
2094.51742 0.00998
2093.23165 0.00925
2091.94588 0.00879
2090.66011 0.00858
2089.37434 0.00842
2088.08857 0.00820
2086.80281 0.00802
2085.51704 0.00809
2084.23127 0.00855
2082.94550 0.00930
2081.65973 0.01013
2080.37396 0.01084
2079.08819 0.01140
2077.80242 0.01177
2076.51666 0.01185
2075.23089 0.01150
2073.94512 0.01082
2072.65935 0.01018
2071.37358 0.00990
2070.08781 0.01001
2068.80204 0.01023
2067.51627 0.01028
2066.23050 0.01005
2064.94474 0.00965
2063.65897 0.00921
2062.37320 0.00872
2061.08743 0.00802
2059.80166 0.00710
2058.51589 0.00617
2057.23012 0.00551
2055.94435 0.00524
2054.65859 0.00551
2053.37282 0.00650
2052.08705 0.00815
2050.80128 0.00980
2049.51551 0.01058
2048.22974 0.01008
2046.94397 0.00882
2045.65820 0.00766
2044.37243 0.00721
2043.08667 0.00755
2041.80090 0.00849
2040.51513 0.00973
2039.22936 0.01092
2037.94359 0.01178
2036.65782 0.01217
2035.37205 0.01204
2034.08628 0.01134
2032.80052 0.01012
2031.51475 0.00859
2030.22898 0.00722
2028.94321 0.00640
2027.65744 0.00616
2026.37167 0.00610
2025.08590 0.00587
2023.80013 0.00550
2022.51436 0.00529
2021.22860 0.00525
2019.94283 0.00519
2018.65706 0.00505
2017.37129 0.00513
2016.08552 0.00561
2014.79975 0.00632
2013.51398 0.00694
2012.22821 0.00731
2010.94245 0.00744
2009.65668 0.00742
2008.37091 0.00741
2007.08514 0.00752
2005.79937 0.00760
2004.51360 0.00737
2003.22783 0.00675
2001.94206 0.00607
2000.65629 0.00577
1999.37053 0.00589
1998.08476 0.00612
1996.79899 0.00620
1995.51322 0.00624
1994.22745 0.00651
1992.94168 0.00704
1991.65591 0.00764
1990.37014 0.00806
1989.08438 0.00822
1987.79861 0.00826
1986.51284 0.00838
1985.22707 0.00868
1983.94130 0.00916
1982.65553 0.00974
1981.36976 0.01038
1980.08399 0.01110
1978.79822 0.01193
1977.51246 0.01272
1976.22669 0.01315
1974.94092 0.01302
1973.65515 0.01255
1972.36938 0.01224
1971.08361 0.01233
1969.79784 0.01266
1968.51207 0.01286
1967.22631 0.01266
1965.94054 0.01208
1964.65477 0.01134
1963.36900 0.01077
1962.08323 0.01049
1960.79746 0.01038
1959.51169 0.01025
1958.22592 0.01005
1956.94015 0.00985
1955.65439 0.00960
1954.36862 0.00918
1953.08285 0.00862
1951.79708 0.00821
1950.51131 0.00822
1949.22554 0.00863
1947.93977 0.00920
1946.65400 0.00968
1945.36823 0.01005
1944.08247 0.01041
1942.79670 0.01080
1941.51093 0.01115
1940.22516 0.01139
1938.93939 0.01152
1937.65362 0.01152
1936.36785 0.01133
1935.08208 0.01092
1933.79632 0.01042
1932.51055 0.01005
1931.22478 0.00991
1929.93901 0.01005
1928.65324 0.01042
1927.36747 0.01089
1926.08170 0.01118
1924.79593 0.01110
1923.51016 0.01083
1922.22440 0.01072
1920.93863 0.01093
1919.65286 0.01130
1918.36709 0.01155
1917.08132 0.01157
1915.79555 0.01145
1914.50978 0.01131
1913.22401 0.01127
1911.93825 0.01130
1910.65248 0.01129
1909.36671 0.01116
1908.08094 0.01091
1906.79517 0.01060
1905.50940 0.01033
1904.22363 0.01024
1902.93786 0.01038
1901.65209 0.01072
1900.36633 0.01111
1899.08056 0.01142
1897.79479 0.01160
1896.50902 0.01170
1895.22325 0.01181
1893.93748 0.01200
1892.65171 0.01220
1891.36594 0.01229
1890.08018 0.01214
1888.79441 0.01174
1887.50864 0.01124
1886.22287 0.01081
1884.93710 0.01057
1883.65133 0.01046
1882.36556 0.01039
1881.07979 0.01034
1879.79402 0.01038
1878.50826 0.01049
1877.22249 0.01062
1875.93672 0.01070
1874.65095 0.01076
1873.36518 0.01090
1872.07941 0.01115
1870.79364 0.01139
1869.50787 0.01147
1868.22211 0.01132
1866.93634 0.01105
1865.65057 0.01084
1864.36480 0.01077
1863.07903 0.01084
1861.79326 0.01094
1860.50749 0.01098
1859.22172 0.01090
1857.93595 0.01077
1856.65019 0.01074
1855.36442 0.01088
1854.07865 0.01112
1852.79288 0.01127
1851.50711 0.01122
1850.22134 0.01108
1848.93557 0.01103
1847.64980 0.01118
1846.36404 0.01143
1845.07827 0.01159
1843.79250 0.01160
1842.50673 0.01149
1841.22096 0.01135
1839.93519 0.01127
1838.64942 0.01133
1837.36365 0.01146
1836.07788 0.01157
1834.79212 0.01163
1833.50635 0.01166
1832.22058 0.01164
1830.93481 0.01158
1829.64904 0.01157
1828.36327 0.01166
1827.07750 0.01184
1825.79173 0.01207
1824.50597 0.01238
1823.22020 0.01272
1821.93443 0.01294
1820.64866 0.01289
1819.36289 0.01251
1818.07712 0.01186
1816.79135 0.01115
1815.50558 0.01055
1814.21981 0.01015
1812.93405 0.00995
1811.64828 0.00990
1810.36251 0.00995
1809.07674 0.01003
1807.79097 0.01013
1806.50520 0.01028
1805.21943 0.01055
1803.93366 0.01089
1802.64790 0.01114
1801.36213 0.01119
1800.07636 0.01107
1798.79059 0.01093
1797.50482 0.01091
1796.21905 0.01102
1794.93328 0.01121
1793.64751 0.01138
1792.36174 0.01155
1791.07598 0.01174
1789.79021 0.01190
1788.50444 0.01195
1787.21867 0.01189
1785.93290 0.01178
1784.64713 0.01171
1783.36136 0.01167
1782.07559 0.01163
1780.78983 0.01158
1779.50406 0.01154
1778.21829 0.01156
1776.93252 0.01160
1775.64675 0.01159
1774.36098 0.01145
1773.07521 0.01125
1771.78944 0.01115
1770.50367 0.01117
1769.21791 0.01119
1767.93214 0.01118
1766.64637 0.01121
1765.36060 0.01129
1764.07483 0.01140
1762.78906 0.01151
1761.50329 0.01159
1760.21752 0.01157
1758.93176 0.01140
1757.64599 0.01117
1756.36022 0.01109
1755.07445 0.01117
1753.78868 0.01129
1752.50291 0.01132
1751.21714 0.01132
1749.93137 0.01132
1748.64560 0.01130
1747.35984 0.01122
1746.07407 0.01111
1744.78830 0.01102
1743.50253 0.01096
1742.21676 0.01090
1740.93099 0.01084
1739.64522 0.01088
1738.35945 0.01110
1737.07369 0.01141
1735.78792 0.01160
1734.50215 0.01161
1733.21638 0.01156
1731.93061 0.01145
1730.64484 0.01125
1729.35907 0.01104
1728.07330 0.01094
1726.78753 0.01094
1725.50177 0.01097
1724.21600 0.01103
1722.93023 0.01118
1721.64446 0.01147
1720.35869 0.01182
1719.07292 0.01211
1717.78715 0.01233
1716.50138 0.01249
1715.21561 0.01258
1713.92985 0.01260
1712.64408 0.01265
1711.35831 0.01283
1710.07254 0.01318
1708.78677 0.01366
1707.50100 0.01418
1706.21523 0.01473
1704.92946 0.01536
1703.64370 0.01606
1702.35793 0.01668
1701.07216 0.01725
1699.78639 0.01796
1698.50062 0.01875
1697.21485 0.01934
1695.92908 0.01975
1694.64331 0.02021
1693.35754 0.02070
1692.07178 0.02114
1690.78601 0.02161
1689.50024 0.02231
1688.21447 0.02320
1686.92870 0.02405
1685.64293 0.02471
1684.35716 0.02526
1683.07139 0.02582
1681.78563 0.02637
1680.49986 0.02693
1679.21409 0.02760
1677.92832 0.02834
1676.64255 0.02904
1675.35678 0.02972
1674.07101 0.03049
1672.78524 0.03129
1671.49947 0.03202
1670.21371 0.03266
1668.92794 0.03329
1667.64217 0.03394
1666.35640 0.03458
1665.07063 0.03521
1663.78486 0.03585
1662.49909 0.03654
1661.21332 0.03721
1659.92756 0.03783
1658.64179 0.03849
1657.35602 0.03932
1656.07025 0.04024
1654.78448 0.04099
1653.49871 0.04152
1652.21294 0.04196
1650.92717 0.04228
1649.64140 0.04235
1648.35564 0.04224
1647.06987 0.04218
1645.78410 0.04226
1644.49833 0.04236
1643.21256 0.04233
1641.92679 0.04220
1640.64102 0.04209
1639.35525 0.04206
1638.06949 0.04202
1636.78372 0.04185
1635.49795 0.04154
1634.21218 0.04111
1632.92641 0.04056
1631.64064 0.03992
1630.35487 0.03929
1629.06910 0.03874
1627.78333 0.03825
1626.49757 0.03775
1625.21180 0.03714
1623.92603 0.03642
1622.64026 0.03571
1621.35449 0.03513
1620.06872 0.03467
1618.78295 0.03420
1617.49718 0.03368
1616.21142 0.03317
1614.92565 0.03269
1613.63988 0.03217
1612.35411 0.03164
1611.06834 0.03120
1609.78257 0.03088
1608.49680 0.03061
1607.21103 0.03034
1605.92526 0.03010
1604.63950 0.02990
1603.35373 0.02976
1602.06796 0.02965
1600.78219 0.02955
1599.49642 0.02946
1598.21065 0.02942
1596.92488 0.02945
1595.63911 0.02954
1594.35335 0.02968
1593.06758 0.02982
1591.78181 0.02998
1590.49604 0.03017
1589.21027 0.03036
1587.92450 0.03057
1586.63873 0.03076
1585.35296 0.03097
1584.06719 0.03120
1582.78143 0.03150
1581.49566 0.03192
1580.20989 0.03250
1578.92412 0.03315
1577.63835 0.03371
1576.35258 0.03417
1575.06681 0.03460
1573.78104 0.03503
1572.49528 0.03540
1571.20951 0.03575
1569.92374 0.03615
1568.63797 0.03661
1567.35220 0.03704
1566.06643 0.03743
1564.78066 0.03788
1563.49489 0.03849
1562.20912 0.03913
1560.92336 0.03962
1559.63759 0.03995
1558.35182 0.04025
1557.06605 0.04052
1555.78028 0.04062
1554.49451 0.04059
1553.20874 0.04059
1551.92297 0.04064
1550.63721 0.04070
1549.35144 0.04080
1548.06567 0.04097
1546.77990 0.04114
1545.49413 0.04130
1544.20836 0.04148
1542.92259 0.04165
1541.63682 0.04168
1540.35105 0.04150
1539.06529 0.04121
1537.77952 0.04090
1536.49375 0.04056
1535.20798 0.04019
1533.92221 0.03992
1532.63644 0.03984
1531.35067 0.03988
1530.06490 0.03993
1528.77914 0.03997
1527.49337 0.04006
1526.20760 0.04023
1524.92183 0.04050
1523.63606 0.04074
1522.35029 0.04089
1521.06452 0.04104
1519.77875 0.04123
1518.49298 0.04138
1517.20722 0.04148
1515.92145 0.04164
1514.63568 0.04191
1513.34991 0.04230
1512.06414 0.04283
1510.77837 0.04350
1509.49260 0.04418
1508.20683 0.04472
1506.92107 0.04511
1505.63530 0.04544
1504.34953 0.04575
1503.06376 0.04599
1501.77799 0.04622
1500.49222 0.04653
1499.20645 0.04688
1497.92068 0.04712
1496.63491 0.04722
1495.34915 0.04728
1494.06338 0.04739
1492.77761 0.04755
1491.49184 0.04779
1490.20607 0.04812
1488.92030 0.04851
1487.63453 0.04889
1486.34876 0.04923
1485.06299 0.04959
1483.77723 0.04999
1482.49146 0.05050
1481.20569 0.05110
1479.91992 0.05178
1478.63415 0.05249
1477.34838 0.05321
1476.06261 0.05396
1474.77684 0.05464
1473.49108 0.05520
1472.20531 0.05567
1470.91954 0.05610
1469.63377 0.05647
1468.34800 0.05678
1467.06223 0.05707
1465.77646 0.05740
1464.49069 0.05778
1463.20492 0.05822
1461.91916 0.05876
1460.63339 0.05940
1459.34762 0.06007
1458.06185 0.06072
1456.77608 0.06136
1455.49031 0.06196
1454.20454 0.06242
1452.91877 0.06270
1451.63301 0.06290
1450.34724 0.06309
1449.06147 0.06326
1447.77570 0.06335
1446.48993 0.06337
1445.20416 0.06333
1443.91839 0.06324
1442.63262 0.06314
1441.34685 0.06310
1440.06109 0.06307
1438.77532 0.06301
1437.48955 0.06289
1436.20378 0.06282
1434.91801 0.06282
1433.63224 0.06288
1432.34647 0.06300
1431.06070 0.06323
1429.77494 0.06361
1428.48917 0.06413
1427.20340 0.06473
1425.91763 0.06539
1424.63186 0.06618
1423.34609 0.06709
1422.06032 0.06802
1420.77455 0.06882
1419.48878 0.06948
1418.20302 0.07008
1416.91725 0.07061
1415.63148 0.07106
1414.34571 0.07143
1413.05994 0.07174
1411.77417 0.07197
1410.48840 0.07211
1409.20263 0.07215
1407.91687 0.07206
1406.63110 0.07182
1405.34533 0.07140
1404.05956 0.07085
1402.77379 0.07021
1401.48802 0.06950
1400.20225 0.06874
1398.91648 0.06793
1397.63071 0.06707
1396.34495 0.06609
1395.05918 0.06502
1393.77341 0.06388
1392.48764 0.06272
1391.20187 0.06156
1389.91610 0.06040
1388.63033 0.05928
1387.34456 0.05818
1386.05880 0.05709
1384.77303 0.05598
1383.48726 0.05484
1382.20149 0.05369
1380.91572 0.05256
1379.62995 0.05145
1378.34418 0.05035
1377.05841 0.04922
1375.77264 0.04800
1374.48688 0.04671
1373.20111 0.04540
1371.91534 0.04415
1370.62957 0.04296
1369.34380 0.04181
1368.05803 0.04069
1366.77226 0.03963
1365.48649 0.03860
1364.20073 0.03762
1362.91496 0.03667
1361.62919 0.03575
1360.34342 0.03490
1359.05765 0.03413
1357.77188 0.03347
1356.48611 0.03287
1355.20034 0.03229
1353.91457 0.03170
1352.62881 0.03118
1351.34304 0.03077
1350.05727 0.03050
1348.77150 0.03029
1347.48573 0.03004
1346.19996 0.02974
1344.91419 0.02941
1343.62842 0.02912
1342.34266 0.02888
1341.05689 0.02865
1339.77112 0.02841
1338.48535 0.02819
1337.19958 0.02797
1335.91381 0.02773
1334.62804 0.02747
1333.34227 0.02720
1332.05650 0.02695
1330.77074 0.02671
1329.48497 0.02647
1328.19920 0.02621
1326.91343 0.02593
1325.62766 0.02565
1324.34189 0.02537
1323.05612 0.02510
1321.77035 0.02488
1320.48459 0.02471
1319.19882 0.02456
1317.91305 0.02440
1316.62728 0.02419
1315.34151 0.02396
1314.05574 0.02373
1312.76997 0.02352
1311.48420 0.02332
1310.19843 0.02313
1308.91267 0.02296
1307.62690 0.02281
1306.34113 0.02267
1305.05536 0.02250
1303.76959 0.02230
1302.48382 0.02207
1301.19805 0.02183
1299.91228 0.02159
1298.62652 0.02138
1297.34075 0.02119
1296.05498 0.02101
1294.76921 0.02083
1293.48344 0.02068
1292.19767 0.02058
1290.91190 0.02053
1289.62613 0.02048
1288.34036 0.02039
1287.05460 0.02029
1285.76883 0.02020
1284.48306 0.02016
1283.19729 0.02014
1281.91152 0.02013
1280.62575 0.02009
1279.33998 0.02002
1278.05421 0.01991
1276.76845 0.01977
1275.48268 0.01962
1274.19691 0.01950
1272.91114 0.01941
1271.62537 0.01934
1270.33960 0.01927
1269.05383 0.01922
1267.76806 0.01919
1266.48229 0.01920
1265.19653 0.01924
1263.91076 0.01929
1262.62499 0.01931
1261.33922 0.01929
1260.05345 0.01926
1258.76768 0.01924
1257.48191 0.01924
1256.19614 0.01923
1254.91037 0.01921
1253.62461 0.01919
1252.33884 0.01919
1251.05307 0.01920
1249.76730 0.01918
1248.48153 0.01913
1247.19576 0.01905
1245.90999 0.01900
1244.62422 0.01898
1243.33846 0.01899
1242.05269 0.01901
1240.76692 0.01901
1239.48115 0.01901
1238.19538 0.01899
1236.90961 0.01896
1235.62384 0.01889
1234.33807 0.01877
1233.05230 0.01862
1231.76654 0.01849
1230.48077 0.01836
1229.19500 0.01819
1227.90923 0.01796
1226.62346 0.01771
1225.33769 0.01748
1224.05192 0.01729
1222.76615 0.01710
1221.48039 0.01689
1220.19462 0.01665
1218.90885 0.01640
1217.62308 0.01616
1216.33731 0.01591
1215.05154 0.01569
1213.76577 0.01553
1212.48000 0.01543
1211.19423 0.01540
1209.90847 0.01541
1208.62270 0.01543
1207.33693 0.01547
1206.05116 0.01550
1204.76539 0.01553
1203.47962 0.01555
1202.19385 0.01548
1200.90808 0.01525
1199.62232 0.01509
1198.33655 0.01499
1197.05078 0.01488
1195.76501 0.01476
1194.47924 0.01463
1193.19347 0.01443
1191.90770 0.01420
1190.62193 0.01396
1189.33616 0.01375
1188.05040 0.01361
1186.76463 0.01352
1185.47886 0.01344
1184.19309 0.01335
1182.90732 0.01324
1181.62155 0.01319
1180.33578 0.01321
1179.05001 0.01324
1177.76425 0.01322
1176.47848 0.01317
1175.19271 0.01313
1173.90694 0.01313
1172.62117 0.01313
1171.33540 0.01311
1170.04963 0.01306
1168.76386 0.01301
1167.47809 0.01298
1166.19233 0.01298
1164.90656 0.01301
1163.62079 0.01305
1162.33502 0.01307
1161.04925 0.01306
1159.76348 0.01304
1158.47771 0.01305
1157.19194 0.01313
1155.90618 0.01328
1154.62041 0.01344
1153.33464 0.01357
1152.04887 0.01365
1150.76310 0.01371
1149.47733 0.01375
1148.19156 0.01378
1146.90579 0.01383
1145.62002 0.01397
1144.33426 0.01423
1143.04849 0.01459
1141.76272 0.01501
1140.47695 0.01550
1139.19118 0.01601
1137.90541 0.01659
1136.61964 0.01729
1135.33387 0.01814
1134.04811 0.01910
1132.76234 0.02007
1131.47657 0.02104
1130.19080 0.02208
1128.90503 0.02331
1127.61926 0.02478
1126.33349 0.02644
1125.04772 0.02825
1123.76195 0.03021
1122.47619 0.03229
1121.19042 0.03444
1119.90465 0.03657
1118.61888 0.03868
1117.33311 0.04082
1116.04734 0.04302
1114.76157 0.04526
1113.47580 0.04744
1112.19004 0.04951
1110.90427 0.05146
1109.61850 0.05332
1108.33273 0.05513
1107.04696 0.05691
1105.76119 0.05865
1104.47542 0.06033
1103.18965 0.06196
1101.90388 0.06347
1100.61812 0.06487
1099.33235 0.06621
1098.04658 0.06756
1096.76081 0.06897
1095.47504 0.07037
1094.18927 0.07167
1092.90350 0.07279
1091.61773 0.07374
1090.33197 0.07462
1089.04620 0.07552
1087.76043 0.07646
1086.47466 0.07744
1085.18889 0.07844
1083.90312 0.07945
1082.61735 0.08049
1081.33158 0.08160
1080.04581 0.08280
1078.76005 0.08407
1077.47428 0.08545
1076.18851 0.08696
1074.90274 0.08858
1073.61697 0.09027
1072.33120 0.09192
1071.04543 0.09352
1069.75966 0.09510
1068.47390 0.09675
1067.18813 0.09851
1065.90236 0.10036
1064.61659 0.10223
1063.33082 0.10407
1062.04505 0.10590
1060.75928 0.10780
1059.47351 0.10974
1058.18774 0.11164
1056.90198 0.11339
1055.61621 0.11501
1054.33044 0.11659
1053.04467 0.11823
1051.75890 0.11994
1050.47313 0.12169
1049.18736 0.12348
1047.90159 0.12531
1046.61583 0.12717
1045.33006 0.12906
1044.04429 0.13098
1042.75852 0.13291
1041.47275 0.13485
1040.18698 0.13677
1038.90121 0.13872
1037.61544 0.14068
1036.32967 0.14265
1035.04391 0.14459
1033.75814 0.14647
1032.47237 0.14827
1031.18660 0.14998
1029.90083 0.15162
1028.61506 0.15317
1027.32929 0.15455
1026.04352 0.15569
1024.75775 0.15661
1023.47199 0.15740
1022.18622 0.15813
1020.90045 0.15875
1019.61468 0.15915
1018.32891 0.15923
1017.04314 0.15901
1015.75737 0.15859
1014.47160 0.15807
1013.18584 0.15742
1011.90007 0.15654
1010.61430 0.15536
1009.32853 0.15392
1008.04276 0.15226
1006.75699 0.15042
1005.47122 0.14836
1004.18545 0.14605
1002.89968 0.14349
1001.61392 0.14068
1000.32815 0.13769
999.04238 0.13457
997.75661 0.13138
996.47084 0.12813
995.18507 0.12475
993.89930 0.12121
992.61353 0.11754
991.32777 0.11387
990.04200 0.11028
988.75623 0.10680
987.47046 0.10338
986.18469 0.10001
984.89892 0.09676
983.61315 0.09367
982.32738 0.09071
981.04161 0.08784
979.75585 0.08506
978.47008 0.08243
977.18431 0.08000
975.89854 0.07783
974.61277 0.07591
973.32700 0.07426
972.04123 0.07285
970.75546 0.07170
969.46970 0.07090
968.18393 0.07051
966.89816 0.07051
965.61239 0.07076
964.32662 0.07112
963.04085 0.07149
961.75508 0.07179
960.46931 0.07190
959.18354 0.07164
957.89778 0.07097
956.61201 0.06998
955.32624 0.06882
954.04047 0.06760
952.75470 0.06629
951.46893 0.06484
950.18316 0.06325
948.89739 0.06161
947.61163 0.06005
946.32586 0.05864
945.04009 0.05739
943.75432 0.05625
942.46855 0.05510
941.18278 0.05387
939.89701 0.05253
938.61124 0.05116
937.32547 0.04985
936.03971 0.04867
934.75394 0.04769
933.46817 0.04689
932.18240 0.04622
930.89663 0.04559
929.61086 0.04494
928.32509 0.04427
927.03932 0.04361
925.75356 0.04298
924.46779 0.04236
923.18202 0.04177
921.89625 0.04119
920.61048 0.04058
919.32471 0.03991
918.03894 0.03917
916.75317 0.03848
915.46740 0.03793
914.18164 0.03755
912.89587 0.03728
911.61010 0.03700
910.32433 0.03666
909.03856 0.03623
907.75279 0.03580
906.46702 0.03544
905.18125 0.03519
903.89549 0.03497
902.60972 0.03470
901.32395 0.03437
900.03818 0.03400
898.75241 0.03364
897.46664 0.03333
896.18087 0.03302
894.89510 0.03270
893.60933 0.03236
892.32357 0.03207
891.03780 0.03185
889.75203 0.03178
888.46626 0.03188
887.18049 0.03219
885.89472 0.03275
884.60895 0.03368
883.32318 0.03509
882.03742 0.03695
880.75165 0.03893
879.46588 0.04062
878.18011 0.04186
876.89434 0.04282
875.60857 0.04380
874.32280 0.04494
873.03703 0.04608
871.75126 0.04692
870.46550 0.04727
869.17973 0.04706
867.89396 0.04631
866.60819 0.04510
865.32242 0.04355
864.03665 0.04189
862.75088 0.04030
861.46511 0.03887
860.17935 0.03758
858.89358 0.03642
857.60781 0.03541
856.32204 0.03458
855.03627 0.03388
853.75050 0.03327
852.46473 0.03271
851.17896 0.03222
849.89319 0.03184
848.60743 0.03153
847.32166 0.03124
846.03589 0.03091
844.75012 0.03055
843.46435 0.03023
842.17858 0.02997
840.89281 0.02981
839.60704 0.02972
838.32128 0.02965
837.03551 0.02954
835.74974 0.02932
834.46397 0.02902
833.17820 0.02871
831.89243 0.02846
830.60666 0.02833
829.32089 0.02827
828.03512 0.02825
826.74936 0.02822
825.46359 0.02818
824.17782 0.02816
822.89205 0.02817
821.60628 0.02818
820.32051 0.02810
819.03474 0.02790
817.74897 0.02765
816.46321 0.02742
815.17744 0.02728
813.89167 0.02721
812.60590 0.02719
811.32013 0.02714
810.03436 0.02704
808.74859 0.02685
807.46282 0.02661
806.17705 0.02638
804.89129 0.02625
803.60552 0.02628
802.31975 0.02646
801.03398 0.02667
799.74821 0.02680
798.46244 0.02681
797.17667 0.02675
795.89090 0.02669
794.60513 0.02666
793.31937 0.02662
792.03360 0.02653
790.74783 0.02642
789.46206 0.02635
788.17629 0.02636
786.89052 0.02639
785.60475 0.02641
784.31898 0.02638
783.03322 0.02630
781.74745 0.02616
780.46168 0.02600
779.17591 0.02585
777.89014 0.02577
776.60437 0.02581
775.31860 0.02593
774.03283 0.02609
772.74706 0.02625
771.46130 0.02635
770.17553 0.02639
768.88976 0.02638
767.60399 0.02631
766.31822 0.02622
765.03245 0.02616
763.74668 0.02614
762.46091 0.02616
761.17515 0.02619
759.88938 0.02621
758.60361 0.02623
757.31784 0.02625
756.03207 0.02626
754.74630 0.02632
753.46053 0.02646
752.17476 0.02665
750.88899 0.02676
749.60323 0.02666
748.31746 0.02639
747.03169 0.02613
745.74592 0.02602
744.46015 0.02609
743.17438 0.02625
741.88861 0.02638
740.60284 0.02641
739.31708 0.02633
738.03131 0.02620
736.74554 0.02608
735.45977 0.02599
734.17400 0.02598
732.88823 0.02603
731.60246 0.02611
730.31669 0.02618
729.03092 0.02619
727.74516 0.02610
726.45939 0.02593
725.17362 0.02578
723.88785 0.02600
722.60208 0.02606
721.31631 0.02626
720.03054 0.02646
718.74477 0.02650
717.45901 0.02641
716.17324 0.02627
714.88747 0.02616
713.60170 0.02612
712.31593 0.02617
711.03016 0.02628
709.74439 0.02639
708.45862 0.02644
707.17285 0.02643
705.88709 0.02641
704.60132 0.02642
703.31555 0.02648
702.02978 0.02657
700.74401 0.02663
699.45824 0.02666
698.17247 0.02667
696.88670 0.02668
695.60094 0.02671
694.31517 0.02673
693.02940 0.02674
691.74363 0.02674
690.45786 0.02673
689.17209 0.02672
687.88632 0.02667
686.60055 0.02657
685.31478 0.02643
684.02902 0.02627
682.74325 0.02611
681.45748 0.02597
680.17171 0.02587
678.88594 0.02582
677.60017 0.02584
676.31440 0.02593
675.02863 0.02610
673.74287 0.02631
672.45710 0.02651
671.17133 0.02666
669.88556 0.02676
668.59979 0.02680
667.31402 0.02674
666.02825 0.02663
664.74248 0.02648
663.45671 0.02633
662.17095 0.02620
660.88518 0.02610
659.59941 0.02604
658.31364 0.02599
657.02787 0.02592
655.74210 0.02579
654.45633 0.02559
653.17056 0.02538
651.88480 0.02519
650.59903 0.02504
649.31326 0.02493
648.02749 0.02485
646.74172 0.02479
645.45595 0.02474
644.17018 0.02469
642.88441 0.02463
641.59864 0.02452
640.31288 0.02439
639.02711 0.02428
637.74134 0.02424
636.45557 0.02429
635.16980 0.02443
633.88403 0.02466
632.59826 0.02482
631.31249 0.02445
630.02673 0.02418
628.74096 0.02644
627.45519 0.02784
626.16942 0.03194
624.88365 0.03776
623.59788 0.04286
622.31211 0.04600
621.02634 0.04723
619.74057 0.04753
618.45481 0.04762
617.16904 0.04732
615.88327 0.04641
614.59750 0.04564
613.31173 0.04651
612.02596 0.04996
610.74019 0.05551
609.45442 0.06171
608.16866 0.06721
606.88289 0.07122
605.59712 0.07357
604.31135 0.07461
603.02558 0.07494
601.73981 0.07489
600.45404 0.07434
599.16827 0.07307
597.88250 0.07114
596.59674 0.06889
595.31097 0.06665
594.02520 0.06457
592.73943 0.06274
591.45366 0.06126
590.16789 0.06025
588.88212 0.05977
587.59635 0.05976
586.31059 0.06019
585.02482 0.06101
583.73905 0.06223
582.45328 0.06378
581.16751 0.06553
579.88174 0.06731
578.59597 0.06896
577.31020 0.07045
576.02443 0.07188
574.73867 0.07340
573.45290 0.07510
572.16713 0.07703
570.88136 0.07914
569.59559 0.08139
568.30982 0.08380
567.02405 0.08638
565.73828 0.08899
564.45251 0.09135
563.16675 0.09308
561.88098 0.09390
560.59521 0.09370
559.30944 0.09252
558.02367 0.09052
556.73790 0.08784
555.45213 0.08464
554.16636 0.08102
552.88060 0.07711
551.59483 0.07309
550.30906 0.06922
549.02329 0.06572
547.73752 0.06275
546.45175 0.06031
545.16598 0.05827
543.88021 0.05645
542.59444 0.05475
541.30868 0.05311
540.02291 0.05146
538.73714 0.04979
537.45137 0.04815
536.16560 0.04664
534.87983 0.04534
533.59406 0.04425
532.30829 0.04333
531.02253 0.04247
529.73676 0.04155
528.45099 0.04057
527.16522 0.03959
525.87945 0.03873
524.59368 0.03805
523.30791 0.03749
522.02214 0.03696
520.73637 0.03638
519.45061 0.03573
518.16484 0.03505
516.87907 0.03439
515.59330 0.03378
514.30753 0.03325
513.02176 0.03277
511.73599 0.03234
510.45022 0.03193
509.16446 0.03151
507.87869 0.03105
506.59292 0.03057
505.30715 0.03013
504.02138 0.02977
502.73561 0.02947
501.44984 0.02919
500.16407 0.02887
498.87830 0.02852
497.59254 0.02813
496.30677 0.02768
495.02100 0.02718
493.73523 0.02675
492.44946 0.02650
491.16369 0.02646
489.87792 0.02648
488.59215 0.02641
487.30639 0.02621
486.02062 0.02594
484.73485 0.02569
483.44908 0.02548
482.16331 0.02528
480.87754 0.02508
479.59177 0.02491
478.30600 0.02484
477.02023 0.02491
475.73447 0.02511
474.44870 0.02537
473.16293 0.02562
471.87716 0.02580
470.59139 0.02587
469.30562 0.02582
468.01985 0.02565
466.73408 0.02541
465.44832 0.02512
464.16255 0.02479
462.87678 0.02444
461.59101 0.02409
460.30524 0.02374
459.01947 0.02340
457.73370 0.02309
456.44793 0.02281
455.16216 0.02250
453.87640 0.02213
452.59063 0.02175
451.30486 0.02144
450.01909 0.02122
448.73332 0.02104
447.44755 0.02085
446.16178 0.02065
444.87601 0.02049
443.59025 0.02037
442.30448 0.02025
441.01871 0.02013
439.73294 0.01999
438.44717 0.01984
437.16140 0.01970
435.87563 0.01953
434.58986 0.01936
433.30409 0.01918
432.01833 0.01903
430.73256 0.01889
429.44679 0.01874
428.16102 0.01859
426.87525 0.01845
425.58948 0.01832
424.30371 0.01822
423.01794 0.01815
421.73218 0.01810
420.44641 0.01807
419.16064 0.01805
417.87487 0.01799
416.58910 0.01784
415.30333 0.01762
414.01756 0.01738
412.73179 0.01718
411.44602 0.01704
410.16026 0.01695
408.87449 0.01691
407.58872 0.01689
406.30295 0.01687
405.01718 0.01690
403.73141 0.01699
402.44564 0.01714
401.15987 0.01730
399.87411 0.01741
