3997.45528	0.04248
3996.16951	0.04334
3994.88374	0.04382
3993.59798	0.04378
3992.31221	0.04330
3991.02644	0.04268
3989.74067	0.04213
3988.45490	0.04176
3987.16913	0.04160
3985.88336	0.04165
3984.59759	0.04182
3983.31183	0.04190
3982.02606	0.04180
3980.74029	0.04177
3979.45452	0.04222
3978.16875	0.04326
3976.88298	0.04441
3975.59721	0.04491
3974.31144	0.04443
3973.02567	0.04329
3971.73991	0.04216
3970.45414	0.04155
3969.16837	0.04153
3967.88260	0.04177
3966.59683	0.04199
3965.31106	0.04216
3964.02529	0.04238
3962.73952	0.04254
3961.45376	0.04233
3960.16799	0.04169
3958.88222	0.04117
3957.59645	0.04140
3956.31068	0.04243
3955.02491	0.04360
3953.73914	0.04429
3952.45337	0.04445
3951.16760	0.04444
3949.88184	0.04450
3948.59607	0.04448
3947.31030	0.04417
3946.02453	0.04354
3944.73876	0.04276
3943.45299	0.04204
3942.16722	0.04157
3940.88145	0.04149
3939.59569	0.04172
3938.30992	0.04205
3937.02415	0.04229
3935.73838	0.04235
3934.45261	0.04224
3933.16684	0.04194
3931.88107	0.04156
3930.59530	0.04140
3929.30953	0.04164
3928.02377	0.04207
3926.73800	0.04221
3925.45223	0.04182
3924.16646	0.04113
3922.88069	0.04057
3921.59492	0.04044
3920.30915	0.04077
3919.02338	0.04144
3917.73762	0.04214
3916.45185	0.04250
3915.16608	0.04230
3913.88031	0.04175
3912.59454	0.04125
3911.30877	0.04106
3910.02300	0.04107
3908.73723	0.04108
3907.45146	0.04103
3906.16570	0.04100
3904.87993	0.04094
3903.59416	0.04069
3902.30839	0.04033
3901.02262	0.04027
3899.73685	0.04077
3898.45108	0.04160
3897.16531	0.04223
3895.87955	0.04241
3894.59378	0.04242
3893.30801	0.04261
3892.02224	0.04296
3890.73647	0.04309
3889.45070	0.04285
3888.16493	0.04259
3886.87916	0.04258
3885.59339	0.04252
3884.30763	0.04195
3883.02186	0.04085
3881.73609	0.03974
3880.45032	0.03900
3879.16455	0.03858
3877.87878	0.03826
3876.59301	0.03802
3875.30724	0.03800
3874.02148	0.03823
3872.73571	0.03868
3871.44994	0.03933
3870.16417	0.03990
3868.87840	0.04010
3867.59263	0.03992
3866.30686	0.03968
3865.02109	0.03956
3863.73532	0.03957
3862.44956	0.03963
3861.16379	0.03960
3859.87802	0.03930
3858.59225	0.03873
3857.30648	0.03827
3856.02071	0.03842
3854.73494	0.03919
3853.44917	0.03985
3852.16341	0.03966
3850.87764	0.03873
3849.59187	0.03781
3848.30610	0.03762
3847.02033	0.03838
3845.73456	0.03970
3844.44879	0.04090
3843.16302	0.04135
3841.87725	0.04089
3840.59149	0.03997
3839.30572	0.03921
3838.01995	0.03889
3836.73418	0.03889
3835.44841	0.03907
3834.16264	0.03943
3832.87687	0.03983
3831.59110	0.04006
3830.30534	0.04006
3829.01957	0.03994
3827.73380	0.03987
3826.44803	0.03980
3825.16226	0.03964
3823.87649	0.03947
3822.59072	0.03940
3821.30495	0.03935
3820.01918	0.03924
3818.73342	0.03922
3817.44765	0.03939
3816.16188	0.03950
3814.87611	0.03934
3813.59034	0.03912
3812.30457	0.03908
3811.01880	0.03915
3809.73303	0.03917
3808.44726	0.03911
3807.16150	0.03898
3805.87573	0.03880
3804.58996	0.03884
3803.30419	0.03930
3802.01842	0.03986
3800.73265	0.03995
3799.44688	0.03948
3798.16111	0.03886
3796.87535	0.03839
3795.58958	0.03811
3794.30381	0.03802
3793.01804	0.03821
3791.73227	0.03862
3790.44650	0.03908
3789.16073	0.03939
3787.87496	0.03949
3786.58919	0.03939
3785.30343	0.03914
3784.01766	0.03883
3782.73189	0.03869
3781.44612	0.03898
3780.16035	0.03964
3778.87458	0.04017
3777.58881	0.04006
3776.30304	0.03919
3775.01728	0.03790
3773.73151	0.03667
3772.44574	0.03590
3771.15997	0.03579
3769.87420	0.03628
3768.58843	0.03705
3767.30266	0.03770
3766.01689	0.03800
3764.73112	0.03794
3763.44536	0.03778
3762.15959	0.03773
3760.87382	0.03769
3759.58805	0.03740
3758.30228	0.03676
3757.01651	0.03603
3755.73074	0.03558
3754.44497	0.03565
3753.15921	0.03607
3751.87344	0.03645
3750.58767	0.03650
3749.30190	0.03609
3748.01613	0.03542
3746.73036	0.03500
3745.44459	0.03514
3744.15882	0.03551
3742.87305	0.03578
3741.58729	0.03608
3740.30152	0.03646
3739.01575	0.03669
3737.72998	0.03656
3736.44421	0.03620
3735.15844	0.03606
3733.87267	0.03651
3732.58690	0.03734
3731.30114	0.03787
3730.01537	0.03766
3728.72960	0.03696
3727.44383	0.03623
3726.15806	0.03581
3724.87229	0.03575
3723.58652	0.03586
3722.30075	0.03580
3721.01498	0.03545
3719.72922	0.03504
3718.44345	0.03509
3717.15768	0.03584
3715.87191	0.03707
3714.58614	0.03820
3713.30037	0.03867
3712.01460	0.03837
3710.72883	0.03764
3709.44307	0.03699
3708.15730	0.03672
3706.87153	0.03671
3705.58576	0.03677
3704.29999	0.03684
3703.01422	0.03698
3701.72845	0.03717
3700.44268	0.03726
3699.15691	0.03720
3697.87115	0.03724
3696.58538	0.03753
3695.29961	0.03779
3694.01384	0.03756
3692.72807	0.03692
3691.44230	0.03631
3690.15653	0.03625
3688.87076	0.03692
3687.58500	0.03780
3686.29923	0.03815
3685.01346	0.03778
3683.72769	0.03704
3682.44192	0.03652
3681.15615	0.03663
3679.87038	0.03731
3678.58461	0.03823
3677.29884	0.03910
3676.01308	0.03935
3674.72731	0.03851
3673.44154	0.03699
3672.15577	0.03580
3670.87000	0.03556
3669.58423	0.03602
3668.29846	0.03664
3667.01269	0.03718
3665.72693	0.03763
3664.44116	0.03811
3663.15539	0.03861
3661.86962	0.03899
3660.58385	0.03906
3659.29808	0.03878
3658.01231	0.03837
3656.72654	0.03815
3655.44077	0.03828
3654.15501	0.03872
3652.86924	0.03926
3651.58347	0.03970
3650.29770	0.03994
3649.01193	0.03999
3647.72616	0.03992
3646.44039	0.03976
3645.15462	0.03965
3643.86886	0.03978
3642.58309	0.04021
3641.29732	0.04077
3640.01155	0.04119
3638.72578	0.04132
3637.44001	0.04126
3636.15424	0.04125
3634.86847	0.04137
3633.58270	0.04143
3632.29694	0.04127
3631.01117	0.04104
3629.72540	0.04111
3628.43963	0.04173
3627.15386	0.04285
3625.86809	0.04412
3624.58232	0.04507
3623.29655	0.04544
3622.01079	0.04542
3620.72502	0.04533
3619.43925	0.04532
3618.15348	0.04531
3616.86771	0.04537
3615.58194	0.04559
3614.29617	0.04588
3613.01040	0.04606
3611.72463	0.04607
3610.43887	0.04612
3609.15310	0.04633
3607.86733	0.04655
3606.58156	0.04659
3605.29579	0.04649
3604.01002	0.04649
3602.72425	0.04676
3601.43848	0.04731
3600.15272	0.04796
3598.86695	0.04856
3597.58118	0.04912
3596.29541	0.04977
3595.00964	0.05052
3593.72387	0.05125
3592.43810	0.05192
3591.15233	0.05254
3589.86656	0.05303
3588.58080	0.05330
3587.29503	0.05325
3586.00926	0.05290
3584.72349	0.05242
3583.43772	0.05215
3582.15195	0.05223
3580.86618	0.05249
3579.58041	0.05264
3578.29464	0.05257
3577.00888	0.05239
3575.72311	0.05234
3574.43734	0.05248
3573.15157	0.05275
3571.86580	0.05313
3570.58003	0.05374
3569.29426	0.05466
3568.00849	0.05567
3566.72273	0.05640
3565.43696	0.05664
3564.15119	0.05649
3562.86542	0.05619
3561.57965	0.05593
3560.29388	0.05582
3559.00811	0.05595
3557.72234	0.05632
3556.43657	0.05682
3555.15081	0.05728
3553.86504	0.05763
3552.57927	0.05786
3551.29350	0.05799
3550.00773	0.05809
3548.72196	0.05834
3547.43619	0.05886
3546.15042	0.05949
3544.86466	0.05991
3543.57889	0.06004
3542.29312	0.06011
3541.00735	0.06036
3539.72158	0.06078
3538.43581	0.06112
3537.15004	0.06130
3535.86427	0.06140
3534.57850	0.06154
3533.29274	0.06170
3532.00697	0.06179
3530.72120	0.06179
3529.43543	0.06179
3528.14966	0.06187
3526.86389	0.06208
3525.57812	0.06239
3524.29235	0.06291
3523.00659	0.06377
3521.72082	0.06493
3520.43505	0.06604
3519.14928	0.06658
3517.86351	0.06642
3516.57774	0.06587
3515.29197	0.06539
3514.00620	0.06513
3512.72043	0.06500
3511.43467	0.06500
3510.14890	0.06518
3508.86313	0.06554
3507.57736	0.06593
3506.29159	0.06613
3505.00582	0.06607
3503.72005	0.06586
3502.43428	0.06572
3501.14852	0.06580
3499.86275	0.06611
3498.57698	0.06647
3497.29121	0.06669
3496.00544	0.06672
3494.71967	0.06670
3493.43390	0.06690
3492.14813	0.06744
3490.86236	0.06819
3489.57660	0.06887
3488.29083	0.06927
3487.00506	0.06943
3485.71929	0.06951
3484.43352	0.06971
3483.14775	0.07010
3481.86198	0.07055
3480.57621	0.07085
3479.29045	0.07096
3478.00468	0.07109
3476.71891	0.07138
3475.43314	0.07172
3474.14737	0.07196
3472.86160	0.07211
3471.57583	0.07235
3470.29006	0.07275
3469.00429	0.07318
3467.71853	0.07345
3466.43276	0.07349
3465.14699	0.07336
3463.86122	0.07321
3462.57545	0.07318
3461.28968	0.07329
3460.00391	0.07336
3458.71814	0.07320
3457.43238	0.07290
3456.14661	0.07285
3454.86084	0.07333
3453.57507	0.07422
3452.28930	0.07512
3451.00353	0.07572
3449.71776	0.07595
3448.43199	0.07590
3447.14622	0.07567
3445.86046	0.07540
3444.57469	0.07518
3443.28892	0.07507
3442.00315	0.07498
3440.71738	0.07481
3439.43161	0.07468
3438.14584	0.07488
3436.86007	0.07555
3435.57431	0.07647
3434.28854	0.07717
3433.00277	0.07739
3431.71700	0.07722
3430.43123	0.07709
3429.14546	0.07728
3427.85969	0.07775
3426.57392	0.07824
3425.28815	0.07854
3424.00239	0.07866
3422.71662	0.07868
3421.43085	0.07866
3420.14508	0.07855
3418.85931	0.07837
3417.57354	0.07820
3416.28777	0.07815
3415.00200	0.07825
3413.71624	0.07834
3412.43047	0.07822
3411.14470	0.07787
3409.85893	0.07757
3408.57316	0.07768
3407.28739	0.07824
3406.00162	0.07898
3404.71585	0.07961
3403.43008	0.08008
3402.14432	0.08052
3400.85855	0.08101
3399.57278	0.08157
3398.28701	0.08183
3397.00124	0.08152
3395.71547	0.08096
3394.42970	0.08065
3393.14393	0.08077
3391.85817	0.08108
3390.57240	0.08116
3389.28663	0.08087
3388.00086	0.08040
3386.71509	0.08007
3385.42932	0.07995
3384.14355	0.07995
3382.85778	0.08001
3381.57201	0.08023
3380.28625	0.08063
3379.00048	0.08107
3377.71471	0.08140
3376.42894	0.08159
3375.14317	0.08172
3373.85740	0.08178
3372.57163	0.08173
3371.28586	0.08166
3370.00010	0.08178
3368.71433	0.08223
3367.42856	0.08287
3366.14279	0.08330
3364.85702	0.08319
3363.57125	0.08255
3362.28548	0.08173
3360.99971	0.08113
3359.71394	0.08090
3358.42818	0.08092
3357.14241	0.08100
3355.85664	0.08109
3354.57087	0.08129
3353.28510	0.08164
3351.99933	0.08204
3350.71356	0.08236
3349.42779	0.08262
3348.14202	0.08283
3346.85626	0.08290
3345.57049	0.08266
3344.28472	0.08212
3342.99895	0.08154
3341.71318	0.08121
3340.42741	0.08116
3339.14164	0.08122
3337.85587	0.08123
3336.57011	0.08118
3335.28434	0.08111
3333.99857	0.08099
3332.71280	0.08078
3331.42703	0.08052
3330.14126	0.08038
3328.85549	0.08044
3327.56972	0.08064
3326.28395	0.08083
3324.99819	0.08098
3323.71242	0.08120
3322.42665	0.08150
3321.14088	0.08169
3319.85511	0.08148
3318.56934	0.08082
3317.28357	0.08005
3315.99780	0.07963
3314.71204	0.07985
3313.42627	0.08061
3312.14050	0.08145
3310.85473	0.08190
3309.56896	0.08180
3308.28319	0.08128
3306.99742	0.08066
3305.71165	0.08019
3304.42588	0.07997
3303.14012	0.08001
3301.85435	0.08023
3300.56858	0.08048
3299.28281	0.08061
3297.99704	0.08050
3296.71127	0.08013
3295.42550	0.07972
3294.13973	0.07952
3292.85397	0.07961
3291.56820	0.07977
3290.28243	0.07978
3288.99666	0.07966
3287.71089	0.07966
3286.42512	0.07988
3285.13935	0.08016
3283.85358	0.08033
3282.56781	0.08036
3281.28205	0.08039
3279.99628	0.08049
3278.71051	0.08072
3277.42474	0.08101
3276.13897	0.08118
3274.85320	0.08098
3273.56743	0.08034
3272.28166	0.07960
3270.99590	0.07918
3269.71013	0.07921
3268.42436	0.07942
3267.13859	0.07951
3265.85282	0.07949
3264.56705	0.07964
3263.28128	0.08010
3261.99551	0.08061
3260.70974	0.08079
3259.42398	0.08053
3258.13821	0.08003
3256.85244	0.07953
3255.56667	0.07909
3254.28090	0.07871
3252.99513	0.07846
3251.70936	0.07834
3250.42359	0.07829
3249.13783	0.07829
3247.85206	0.07843
3246.56629	0.07877
3245.28052	0.07916
3243.99475	0.07934
3242.70898	0.07925
3241.42321	0.07905
3240.13744	0.07893
3238.85167	0.07891
3237.56591	0.07894
3236.28014	0.07896
3234.99437	0.07887
3233.70860	0.07864
3232.42283	0.07828
3231.13706	0.07795
3229.85129	0.07782
3228.56552	0.07793
3227.27976	0.07816
3225.99399	0.07830
3224.70822	0.07828
3223.42245	0.07814
3222.13668	0.07798
3220.85091	0.07786
3219.56514	0.07772
3218.27937	0.07749
3216.99360	0.07719
3215.70784	0.07691
3214.42207	0.07675
3213.13630	0.07670
3211.85053	0.07670
3210.56476	0.07664
3209.27899	0.07652
3207.99322	0.07642
3206.70745	0.07641
3205.42169	0.07639
3204.13592	0.07616
3202.85015	0.07563
3201.56438	0.07501
3200.27861	0.07463
3198.99284	0.07466
3197.70707	0.07507
3196.42130	0.07572
3195.13553	0.07640
3193.84977	0.07690
3192.56400	0.07702
3191.27823	0.07674
3189.99246	0.07623
3188.70669	0.07573
3187.42092	0.07540
3186.13515	0.07525
3184.84938	0.07517
3183.56362	0.07506
3182.27785	0.07495
3180.99208	0.07491
3179.70631	0.07491
3178.42054	0.07484
3177.13477	0.07461
3175.84900	0.07428
3174.56323	0.07392
3173.27746	0.07357
3171.99170	0.07329
3170.70593	0.07317
3169.42016	0.07326
3168.13439	0.07339
3166.84862	0.07333
3165.56285	0.07307
3164.27708	0.07283
3162.99131	0.07285
3161.70555	0.07306
3160.41978	0.07316
3159.13401	0.07294
3157.84824	0.07251
3156.56247	0.07219
3155.27670	0.07216
3153.99093	0.07230
3152.70516	0.07233
3151.41939	0.07212
3150.13363	0.07187
3148.84786	0.07194
3147.56209	0.07239
3146.27632	0.07301
3144.99055	0.07341
3143.70478	0.07337
3142.41901	0.07293
3141.13324	0.07226
3139.84748	0.07159
3138.56171	0.07103
3137.27594	0.07060
3135.99017	0.07029
3134.70440	0.07020
3133.41863	0.07037
3132.13286	0.07074
3130.84709	0.07110
3129.56132	0.07126
3128.27556	0.07117
3126.98979	0.07094
3125.70402	0.07071
3124.41825	0.07047
3123.13248	0.07017
3121.84671	0.06984
3120.56094	0.06954
3119.27517	0.06927
3117.98940	0.06892
3116.70364	0.06852
3115.41787	0.06820
3114.13210	0.06809
3112.84633	0.06818
3111.56056	0.06833
3110.27479	0.06845
3108.98902	0.06850
3107.70325	0.06842
3106.41749	0.06815
3105.13172	0.06771
3103.84595	0.06727
3102.56018	0.06704
3101.27441	0.06712
3099.98864	0.06744
3098.70287	0.06781
3097.41710	0.06806
3096.13133	0.06817
3094.84557	0.06818
3093.55980	0.06815
3092.27403	0.06807
3090.98826	0.06787
3089.70249	0.06759
3088.41672	0.06735
3087.13095	0.06722
3085.84518	0.06708
3084.55942	0.06676
3083.27365	0.06630
3081.98788	0.06595
3080.70211	0.06594
3079.41634	0.06622
3078.13057	0.06651
3076.84480	0.06657
3075.55903	0.06636
3074.27326	0.06597
3072.98750	0.06555
3071.70173	0.06524
3070.41596	0.06509
3069.13019	0.06505
3067.84442	0.06505
3066.55865	0.06508
3065.27288	0.06518
3063.98711	0.06533
3062.70135	0.06545
3061.41558	0.06544
3060.12981	0.06522
3058.84404	0.06485
3057.55827	0.06448
3056.27250	0.06428
3054.98673	0.06422
3053.70096	0.06418
3052.41519	0.06398
3051.12943	0.06356
3049.84366	0.06297
3048.55789	0.06237
3047.27212	0.06203
3045.98635	0.06208
3044.70058	0.06248
3043.41481	0.06300
3042.12904	0.06333
3040.84328	0.06332
3039.55751	0.06308
3038.27174	0.06292
3036.98597	0.06300
3035.70020	0.06318
3034.41443	0.06317
3033.12866	0.06286
3031.84289	0.06240
3030.55712	0.06199
3029.27136	0.06172
3027.98559	0.06155
3026.69982	0.06148
3025.41405	0.06148
3024.12828	0.06147
3022.84251	0.06132
3021.55674	0.06100
3020.27097	0.06060
3018.98521	0.06027
3017.69944	0.06001
3016.41367	0.05979
3015.12790	0.05956
3013.84213	0.05936
3012.55636	0.05924
3011.27059	0.05922
3009.98482	0.05921
3008.69905	0.05909
3007.41329	0.05891
3006.12752	0.05884
3004.84175	0.05896
3003.55598	0.05914
3002.27021	0.05919
3000.98444	0.05912
2999.69867	0.05919
2998.41290	0.05919
2997.12714	0.05917
2995.84137	0.05910
2994.55560	0.05894
2993.26983	0.05871
2991.98406	0.05844
2990.69829	0.05827
2989.41252	0.05831
2988.12675	0.05859
2986.84098	0.05899
2985.55522	0.05929
2984.26945	0.05927
2982.98368	0.05894
2981.69791	0.05857
2980.41214	0.05853
2979.12637	0.05898
2977.84060	0.05964
2976.55483	0.06014
2975.26907	0.06041
2973.98330	0.06066
2972.69753	0.06112
2971.41176	0.06182
2970.12599	0.06264
2968.84022	0.06345
2967.55445	0.06418
2966.26868	0.06492
2964.98291	0.06574
2963.69715	0.06654
2962.41138	0.06719
2961.12561	0.06770
2959.83984	0.06822
2958.55407	0.06882
2957.26830	0.06940
2955.98253	0.06998
2954.69676	0.07061
2953.41100	0.07122
2952.12523	0.07160
2950.83946	0.07168
2949.55369	0.07156
2948.26792	0.07140
2946.98215	0.07123
2945.69638	0.07101
2944.41061	0.07074
2943.12484	0.07050
2941.83908	0.07033
2940.55331	0.07019
2939.26754	0.07009
2937.98177	0.07010
2936.69600	0.07033
2935.41023	0.07071
2934.12446	0.07108
2932.83869	0.07133
2931.55293	0.07139
2930.26716	0.07128
2928.98139	0.07102
2927.69562	0.07070
2926.40985	0.07032
2925.12408	0.06978
2923.83831	0.06891
2922.55254	0.06765
2921.26677	0.06611
2919.98101	0.06456
2918.69524	0.06331
2917.40947	0.06264
2916.12370	0.06262
2914.83793	0.06316
2913.55216	0.06404
2912.26639	0.06502
2910.98062	0.06591
2909.69486	0.06657
2908.40909	0.06696
2907.12332	0.06708
2905.83755	0.06700
2904.55178	0.06676
2903.26601	0.06642
2901.98024	0.06609
2900.69447	0.06585
2899.40870	0.06566
2898.12294	0.06542
2896.83717	0.06505
2895.55140	0.06459
2894.26563	0.06413
2892.97986	0.06370
2891.69409	0.06326
2890.40832	0.06278
2889.12255	0.06230
2887.83678	0.06189
2886.55102	0.06155
2885.26525	0.06123
2883.97948	0.06095
2882.69371	0.06080
2881.40794	0.06083
2880.12217	0.06095
2878.83640	0.06105
2877.55063	0.06111
2876.26487	0.06125
2874.97910	0.06158
2873.69333	0.06207
2872.40756	0.06255
2871.12179	0.06287
2869.83602	0.06300
2868.55025	0.06299
2867.26448	0.06290
2865.97871	0.06273
2864.69295	0.06246
2863.40718	0.06206
2862.12141	0.06160
2860.83564	0.06114
2859.54987	0.06075
2858.26410	0.06032
2856.97833	0.05970
2855.69256	0.05873
2854.40680	0.05746
2853.12103	0.05606
2851.83526	0.05474
2850.54949	0.05372
2849.26372	0.05318
2847.97795	0.05321
2846.69218	0.05374
2845.40641	0.05446
2844.12064	0.05505
2842.83488	0.05534
2841.54911	0.05535
2840.26334	0.05516
2838.97757	0.05483
2837.69180	0.05439
2836.40603	0.05390
2835.12026	0.05338
2833.83449	0.05283
2832.54873	0.05226
2831.26296	0.05174
2829.97719	0.05136
2828.69142	0.05116
2827.40565	0.05104
2826.11988	0.05084
2824.83411	0.05051
2823.54834	0.05014
2822.26257	0.04980
2820.97681	0.04949
2819.69104	0.04917
2818.40527	0.04884
2817.11950	0.04850
2815.83373	0.04817
2814.54796	0.04792
2813.26219	0.04778
2811.97642	0.04778
2810.69066	0.04789
2809.40489	0.04803
2808.11912	0.04805
2806.83335	0.04790
2805.54758	0.04762
2804.26181	0.04730
2802.97604	0.04699
2801.69027	0.04672
2800.40450	0.04650
2799.11874	0.04634
2797.83297	0.04617
2796.54720	0.04599
2795.26143	0.04586
2793.97566	0.04583
2792.68989	0.04591
2791.40412	0.04604
2790.11835	0.04616
2788.83259	0.04623
2787.54682	0.04615
2786.26105	0.04587
2784.97528	0.04540
2783.68951	0.04492
2782.40374	0.04460
2781.11797	0.04451
2779.83220	0.04459
2778.54643	0.04475
2777.26067	0.04496
2775.97490	0.04516
2774.68913	0.04523
2773.40336	0.04509
2772.11759	0.04479
2770.83182	0.04442
2769.54605	0.04404
2768.26028	0.04369
2766.97452	0.04343
2765.68875	0.04337
2764.40298	0.04349
2763.11721	0.04368
2761.83144	0.04382
2760.54567	0.04386
2759.25990	0.04377
2757.97413	0.04356
2756.68836	0.04331
2755.40260	0.04314
2754.11683	0.04316
2752.83106	0.04327
2751.54529	0.04329
2750.25952	0.04309
2748.97375	0.04277
2747.68798	0.04249
2746.40221	0.04238
2745.11645	0.04242
2743.83068	0.04247
2742.54491	0.04244
2741.25914	0.04228
2739.97337	0.04199
2738.68760	0.04168
2737.40183	0.04149
2736.11606	0.04151
2734.83029	0.04166
2733.54453	0.04180
2732.25876	0.04189
2730.97299	0.04191
2729.68722	0.04191
2728.40145	0.04188
2727.11568	0.04188
2725.82991	0.04190
2724.54414	0.04187
2723.25838	0.04168
2721.97261	0.04136
2720.68684	0.04101
2719.40107	0.04077
2718.11530	0.04068
2716.82953	0.04068
2715.54376	0.04070
2714.25799	0.04070
2712.97222	0.04071
2711.68646	0.04075
2710.40069	0.04081
2709.11492	0.04076
2707.82915	0.04049
2706.54338	0.04009
2705.25761	0.03981
2703.97184	0.03982
2702.68607	0.04005
2701.40031	0.04027
2700.11454	0.04031
2698.82877	0.04019
2697.54300	0.03998
2696.25723	0.03977
2694.97146	0.03962
2693.68569	0.03957
2692.39992	0.03963
2691.11415	0.03971
2689.82839	0.03972
2688.54262	0.03965
2687.25685	0.03952
2685.97108	0.03934
2684.68531	0.03911
2683.39954	0.03885
2682.11377	0.03862
2680.82800	0.03847
2679.54224	0.03837
2678.25647	0.03830
2676.97070	0.03829
2675.68493	0.03839
2674.39916	0.03859
2673.11339	0.03877
2671.82762	0.03882
2670.54185	0.03876
2669.25608	0.03868
2667.97032	0.03859
2666.68455	0.03845
2665.39878	0.03823
2664.11301	0.03801
2662.82724	0.03781
2661.54147	0.03759
2660.25570	0.03737
2658.96993	0.03723
2657.68417	0.03722
2656.39840	0.03724
2655.11263	0.03721
2653.82686	0.03707
2652.54109	0.03681
2651.25532	0.03643
2649.96955	0.03603
2648.68378	0.03573
2647.39801	0.03557
2646.11225	0.03550
2644.82648	0.03549
2643.54071	0.03555
2642.25494	0.03555
2640.96917	0.03534
2639.68340	0.03494
2638.39763	0.03458
2637.11186	0.03443
2635.82609	0.03443
2634.54033	0.03442
2633.25456	0.03437
2631.96879	0.03427
2630.68302	0.03413
2629.39725	0.03393
2628.11148	0.03370
2626.82571	0.03352
2625.53994	0.03342
2624.25418	0.03338
2622.96841	0.03337
2621.68264	0.03334
2620.39687	0.03323
2619.11110	0.03298
2617.82533	0.03261
2616.53956	0.03221
2615.25379	0.03192
2613.96802	0.03177
2612.68226	0.03165
2611.39649	0.03148
2610.11072	0.03126
2608.82495	0.03113
2607.53918	0.03123
2606.25341	0.03159
2604.96764	0.03206
2603.68187	0.03243
2602.39611	0.03255
2601.11034	0.03245
2599.82457	0.03225
2598.53880	0.03207
2597.25303	0.03198
2595.96726	0.03189
2594.68149	0.03168
2593.39572	0.03132
2592.10995	0.03100
2590.82419	0.03093
2589.53842	0.03103
2588.25265	0.03094
2586.96688	0.03054
2585.68111	0.03006
2584.39534	0.02987
2583.10957	0.03001
2581.82380	0.03025
2580.53804	0.03033
2579.25227	0.03025
2577.96650	0.03018
2576.68073	0.03028
2575.39496	0.03053
2574.10919	0.03075
2572.82342	0.03084
2571.53765	0.03085
2570.25188	0.03085
2568.96612	0.03079
2567.68035	0.03061
2566.39458	0.03031
2565.10881	0.02994
2563.82304	0.02954
2562.53727	0.02914
2561.25150	0.02885
2559.96573	0.02876
2558.67997	0.02891
2557.39420	0.02923
2556.10843	0.02960
2554.82266	0.02991
2553.53689	0.03007
2552.25112	0.03005
2550.96535	0.02982
2549.67958	0.02941
2548.39381	0.02898
2547.10805	0.02879
2545.82228	0.02895
2544.53651	0.02925
2543.25074	0.02941
2541.96497	0.02934
2540.67920	0.02928
2539.39343	0.02941
2538.10766	0.02964
2536.82190	0.02980
2535.53613	0.02983
2534.25036	0.02980
2532.96459	0.02982
2531.67882	0.02984
2530.39305	0.02981
2529.10728	0.02970
2527.82151	0.02956
2526.53574	0.02939
2525.24998	0.02909
2523.96421	0.02865
2522.67844	0.02825
2521.39267	0.02812
2520.10690	0.02831
2518.82113	0.02865
2517.53536	0.02883
2516.24959	0.02873
2514.96383	0.02849
2513.67806	0.02829
2512.39229	0.02819
2511.10652	0.02809
2509.82075	0.02798
2508.53498	0.02795
2507.24921	0.02801
2505.96344	0.02798
2504.67767	0.02771
2503.39191	0.02733
2502.10614	0.02712
2500.82037	0.02723
2499.53460	0.02754
2498.24883	0.02777
2496.96306	0.02781
2495.67729	0.02776
2494.39152	0.02778
2493.10576	0.02793
2491.81999	0.02811
2490.53422	0.02816
2489.24845	0.02797
2487.96268	0.02762
2486.67691	0.02727
2485.39114	0.02708
2484.10537	0.02707
2482.81960	0.02714
2481.53384	0.02719
2480.24807	0.02715
2478.96230	0.02704
2477.67653	0.02696
2476.39076	0.02695
2475.10499	0.02698
2473.81922	0.02701
2472.53345	0.02703
2471.24769	0.02709
2469.96192	0.02716
2468.67615	0.02724
2467.39038	0.02741
2466.10461	0.02765
2464.81884	0.02779
2463.53307	0.02767
2462.24730	0.02730
2460.96153	0.02686
2459.67577	0.02653
2458.39000	0.02632
2457.10423	0.02625
2455.81846	0.02635
2454.53269	0.02652
2453.24692	0.02654
2451.96115	0.02632
2450.67538	0.02611
2449.38962	0.02613
2448.10385	0.02634
2446.81808	0.02649
2445.53231	0.02654
2444.24654	0.02661
2442.96077	0.02671
2441.67500	0.02667
2440.38923	0.02637
2439.10346	0.02596
2437.81770	0.02572
2436.53193	0.02575
2435.24616	0.02597
2433.96039	0.02617
2432.67462	0.02623
2431.38885	0.02617
2430.10308	0.02608
2428.81731	0.02604
2427.53155	0.02612
2426.24578	0.02635
2424.96001	0.02665
2423.67424	0.02686
2422.38847	0.02692
2421.10270	0.02688
2419.81693	0.02682
2418.53116	0.02669
2417.24539	0.02642
2415.95963	0.02604
2414.67386	0.02567
2413.38809	0.02538
2412.10232	0.02517
2410.81655	0.02499
2409.53078	0.02481
2408.24501	0.02470
2406.95924	0.02475
2405.67347	0.02501
2404.38771	0.02542
2403.10194	0.02580
2401.81617	0.02601
2400.53040	0.02602
2399.24463	0.02569
2397.95886	0.02578
2396.67309	0.02578
2395.38732	0.02557
2394.10156	0.02536
2392.81579	0.02532
2391.53002	0.02551
2390.24425	0.02582
2388.95848	0.02607
2387.67271	0.02615
2386.38694	0.02603
2385.10117	0.02582
2383.81540	0.02563
2382.52964	0.02549
2381.24387	0.02539
2379.95810	0.02530
2378.67233	0.02516
2377.38656	0.02492
2376.10079	0.02450
2374.81502	0.02386
2373.52925	0.02327
2372.24349	0.02288
2370.95772	0.02294
2369.67195	0.02316
2368.38618	0.02340
2367.10041	0.02360
2365.81464	0.02382
2364.52887	0.02370
2363.24310	0.02352
2361.95733	0.02357
2360.67157	0.02403
2359.38580	0.02436
2358.10003	0.02466
2356.81426	0.02500
2355.52849	0.02530
2354.24272	0.02553
2352.95695	0.02545
2351.67118	0.02534
2350.38542	0.02534
2349.09965	0.02502
2347.81388	0.02415
2346.52811	0.02365
2345.24234	0.02377
2343.95657	0.02396
2342.67080	0.02368
2341.38503	0.02372
2340.09926	0.02439
2338.81350	0.02461
2337.52773	0.02426
2336.24196	0.02450
2334.95619	0.02512
2333.67042	0.02480
2332.38465	0.02366
2331.09888	0.02390
2329.81311	0.02444
2328.52735	0.02357
2327.24158	0.02407
2325.95581	0.02528
2324.67004	0.02493
2323.38427	0.02493
2322.09850	0.02556
2320.81273	0.02473
2319.52696	0.02462
2318.24119	0.02504
2316.95543	0.02456
2315.66966	0.02448
2314.38389	0.02438
2313.09812	0.02374
2311.81235	0.02371
2310.52658	0.02369
2309.24081	0.02387
2307.95504	0.02435
2306.66928	0.02436
2305.38351	0.02429
2304.09774	0.02400
2302.81197	0.02360
2301.52620	0.02343
2300.24043	0.02332
2298.95466	0.02336
2297.66889	0.02339
2296.38312	0.02338
2295.09736	0.02337
2293.81159	0.02331
2292.52582	0.02331
2291.24005	0.02332
2289.95428	0.02326
2288.66851	0.02302
2287.38274	0.02268
2286.09697	0.02243
2284.81121	0.02239
2283.52544	0.02246
2282.23967	0.02239
2280.95390	0.02204
2279.66813	0.02140
2278.38236	0.02057
2277.09659	0.01973
2275.81082	0.01914
2274.52505	0.01900
2273.23929	0.01930
2271.95352	0.01979
2270.66775	0.02024
2269.38198	0.02047
2268.09621	0.02034
2266.81044	0.01987
2265.52467	0.01934
2264.23890	0.01916
2262.95314	0.01955
2261.66737	0.02024
2260.38160	0.02068
2259.09583	0.02056
2257.81006	0.02000
2256.52429	0.01924
2255.23852	0.01846
2253.95275	0.01783
2252.66698	0.01749
2251.38122	0.01753
2250.09545	0.01781
2248.80968	0.01773
2247.52391	0.01786
2246.23814	0.01781
2244.95237	0.01760
2243.66660	0.01739
2242.38083	0.01728
2241.09507	0.01712
2239.80930	0.01677
2238.52353	0.01638
2237.23776	0.01632
2235.95199	0.01669
2234.66622	0.01716
2233.38045	0.01732
2232.09468	0.01687
2230.80891	0.01586
2229.52315	0.01460
2228.23738	0.01369
2226.95161	0.01352
2225.66584	0.01383
2224.38007	0.01392
2223.09430	0.01340
2221.80853	0.01261
2220.52276	0.01214
2219.23700	0.01234
2217.95123	0.01321
2216.66546	0.01456
2215.37969	0.01597
2214.09392	0.01688
2212.80815	0.01691
2211.52238	0.01634
2210.23661	0.01585
2208.95084	0.01578
2207.66508	0.01581
2206.37931	0.01533
2205.09354	0.01421
2203.80777	0.01308
2202.52200	0.01272
2201.23623	0.01321
2199.95046	0.01386
2198.66469	0.01399
2197.37893	0.01359
2196.09316	0.01320
2194.80739	0.01318
2193.52162	0.01332
2192.23585	0.01330
2190.95008	0.01315
2189.66431	0.01327
2188.37854	0.01388
2187.09277	0.01470
2185.80701	0.01514
2184.52124	0.01482
2183.23547	0.01393
2181.94970	0.01301
2180.66393	0.01240
2179.37816	0.01201
2178.09239	0.01158
2176.80662	0.01111
2175.52085	0.01091
2174.23509	0.01120
2172.94932	0.01186
2171.66355	0.01246
2170.37778	0.01256
2169.09201	0.01194
2167.80624	0.01069
2166.52047	0.00930
2165.23470	0.00835
2163.94894	0.00804
2162.66317	0.00801
2161.37740	0.00789
2160.09163	0.00781
2158.80586	0.00806
2157.52009	0.00853
2156.23432	0.00878
2154.94855	0.00876
2153.66278	0.00873
2152.37702	0.00893
2151.09125	0.00936
2149.80548	0.00984
2148.51971	0.01020
2147.23394	0.01047
2145.94817	0.01096
2144.66240	0.01184
2143.37663	0.01274
2142.09087	0.01301
2140.80510	0.01252
2139.51933	0.01185
2138.23356	0.01159
2136.94779	0.01182
2135.66202	0.01227
2134.37625	0.01278
2133.09048	0.01333
2131.80471	0.01382
2130.51895	0.01407
2129.23318	0.01398
2127.94741	0.01363
2126.66164	0.01325
2125.37587	0.01307
2124.09010	0.01314
2122.80433	0.01328
2121.51856	0.01327
2120.23280	0.01309
2118.94703	0.01292
2117.66126	0.01297
2116.37549	0.01321
2115.08972	0.01348
2113.80395	0.01360
2112.51818	0.01351
2111.23241	0.01335
2109.94664	0.01329
2108.66088	0.01346
2107.37511	0.01382
2106.08934	0.01418
2104.80357	0.01438
2103.51780	0.01433
2102.23203	0.01400
2100.94626	0.01347
2099.66049	0.01319
2098.37473	0.01264
2097.08896	0.01214
2095.80319	0.01177
2094.51742	0.01150
2093.23165	0.01137
2091.94588	0.01143
2090.66011	0.01160
2089.37434	0.01171
2088.08857	0.01173
2086.80281	0.01179
2085.51704	0.01202
2084.23127	0.01235
2082.94550	0.01251
2081.65973	0.01231
2080.37396	0.01180
2079.08819	0.01122
2077.80242	0.01080
2076.51666	0.01061
2075.23089	0.01057
2073.94512	0.01057
2072.65935	0.01052
2071.37358	0.01040
2070.08781	0.01030
2068.80204	0.01035
2067.51627	0.01067
2066.23050	0.01121
2064.94474	0.01171
2063.65897	0.01179
2062.37320	0.01126
2061.08743	0.01026
2059.80166	0.00918
2058.51589	0.00832
2057.23012	0.00779
2055.94435	0.00754
2054.65859	0.00748
2053.37282	0.00747
2052.08705	0.00739
2050.80128	0.00711
2049.51551	0.00661
2048.22974	0.00597
2046.94397	0.00542
2045.65820	0.00528
2044.37243	0.00557
2043.08667	0.00581
2041.80090	0.00535
2040.51513	0.00408
2039.22936	0.00257
2037.94359	0.00156
2036.65782	0.00128
2035.37205	0.00157
2034.08628	0.00218
2032.80052	0.00302
2031.51475	0.00398
2030.22898	0.00489
2028.94321	0.00567
2027.65744	0.00625
2026.37167	0.00657
2025.08590	0.00665
2023.80013	0.00668
2022.51436	0.00692
2021.22860	0.00744
2019.94283	0.00793
2018.65706	0.00791
2017.37129	0.00715
2016.08552	0.00588
2014.79975	0.00461
2013.51398	0.00384
2012.22821	0.00378
2010.94245	0.00432
2009.65668	0.00516
2008.37091	0.00596
2007.08514	0.00656
2005.79937	0.00701
2004.51360	0.00738
2003.22783	0.00761
2001.94206	0.00764
2000.65629	0.00760
1999.37053	0.00774
1998.08476	0.00803
1996.79899	0.00819
1995.51322	0.00813
1994.22745	0.00822
1992.94168	0.00884
1991.65591	0.00989
1990.37014	0.01081
1989.08438	0.01113
1987.79861	0.01081
1986.51284	0.01023
1985.22707	0.00982
1983.94130	0.00983
1982.65553	0.01013
1981.36976	0.01040
1980.08399	0.01038
1978.79822	0.01008
1977.51246	0.00984
1976.22669	0.01002
1974.94092	0.01066
1973.65515	0.01122
1972.36938	0.01102
1971.08361	0.00991
1969.79784	0.00851
1968.51207	0.00764
1967.22631	0.00760
1965.94054	0.00808
1964.65477	0.00855
1963.36900	0.00878
1962.08323	0.00886
1960.79746	0.00906
1959.51169	0.00948
1958.22592	0.01005
1956.94015	0.01060
1955.65439	0.01101
1954.36862	0.01126
1953.08285	0.01137
1951.79708	0.01144
1950.51131	0.01158
1949.22554	0.01180
1947.93977	0.01200
1946.65400	0.01200
1945.36823	0.01173
1944.08247	0.01141
1942.79670	0.01148
1941.51093	0.01211
1940.22516	0.01304
1938.93939	0.01377
1937.65362	0.01404
1936.36785	0.01389
1935.08208	0.01351
1933.79632	0.01313
1932.51055	0.01299
1931.22478	0.01324
1929.93901	0.01381
1928.65324	0.01439
1927.36747	0.01471
1926.08170	0.01462
1924.79593	0.01420
1923.51016	0.01363
1922.22440	0.01309
1920.93863	0.01274
1919.65286	0.01265
1918.36709	0.01281
1917.08132	0.01314
1915.79555	0.01353
1914.50978	0.01394
1913.22401	0.01430
1911.93825	0.01450
1910.65248	0.01444
1909.36671	0.01414
1908.08094	0.01373
1906.79517	0.01339
1905.50940	0.01328
1904.22363	0.01347
1902.93786	0.01384
1901.65209	0.01413
1900.36633	0.01419
1899.08056	0.01404
1897.79479	0.01387
1896.50902	0.01380
1895.22325	0.01386
1893.93748	0.01394
1892.65171	0.01399
1891.36594	0.01404
1890.08018	0.01415
1888.79441	0.01425
1887.50864	0.01426
1886.22287	0.01410
1884.93710	0.01384
1883.65133	0.01358
1882.36556	0.01344
1881.07979	0.01345
1879.79402	0.01362
1878.50826	0.01389
1877.22249	0.01416
1875.93672	0.01434
1874.65095	0.01441
1873.36518	0.01446
1872.07941	0.01453
1870.79364	0.01462
1869.50787	0.01466
1868.22211	0.01465
1866.93634	0.01463
1865.65057	0.01467
1864.36480	0.01476
1863.07903	0.01482
1861.79326	0.01479
1860.50749	0.01467
1859.22172	0.01450
1857.93595	0.01428
1856.65019	0.01403
1855.36442	0.01382
1854.07865	0.01377
1852.79288	0.01394
1851.50711	0.01422
1850.22134	0.01446
1848.93557	0.01456
1847.64980	0.01450
1846.36404	0.01432
1845.07827	0.01415
1843.79250	0.01406
1842.50673	0.01414
1841.22096	0.01435
1839.93519	0.01455
1838.64942	0.01463
1837.36365	0.01459
1836.07788	0.01452
1834.79212	0.01450
1833.50635	0.01454
1832.22058	0.01463
1830.93481	0.01474
1829.64904	0.01487
1828.36327	0.01502
1827.07750	0.01522
1825.79173	0.01543
1824.50597	0.01551
1823.22020	0.01539
1821.93443	0.01516
1820.64866	0.01498
1819.36289	0.01499
1818.07712	0.01515
1816.79135	0.01534
1815.50558	0.01546
1814.21981	0.01546
1812.93405	0.01535
1811.64828	0.01520
1810.36251	0.01506
1809.07674	0.01499
1807.79097	0.01500
1806.50520	0.01510
1805.21943	0.01523
1803.93366	0.01531
1802.64790	0.01532
1801.36213	0.01526
1800.07636	0.01515
1798.79059	0.01500
1797.50482	0.01486
1796.21905	0.01483
1794.93328	0.01494
1793.64751	0.01519
1792.36174	0.01544
1791.07598	0.01557
1789.79021	0.01560
1788.50444	0.01559
1787.21867	0.01563
1785.93290	0.01572
1784.64713	0.01583
1783.36136	0.01592
1782.07559	0.01600
1780.78983	0.01605
1779.50406	0.01605
1778.21829	0.01604
1776.93252	0.01607
1775.64675	0.01620
1774.36098	0.01637
1773.07521	0.01648
1771.78944	0.01645
1770.50367	0.01635
1769.21791	0.01634
1767.93214	0.01643
1766.64637	0.01652
1765.36060	0.01656
1764.07483	0.01661
1762.78906	0.01667
1761.50329	0.01668
1760.21752	0.01664
1758.93176	0.01659
1757.64599	0.01657
1756.36022	0.01652
1755.07445	0.01640
1753.78868	0.01625
1752.50291	0.01610
1751.21714	0.01591
1749.93137	0.01567
1748.64560	0.01542
1747.35984	0.01517
1746.07407	0.01491
1744.78830	0.01466
1743.50253	0.01445
1742.21676	0.01434
1740.93099	0.01434
1739.64522	0.01439
1738.35945	0.01446
1737.07369	0.01464
1735.78792	0.01502
1734.50215	0.01552
1733.21638	0.01597
1731.93061	0.01629
1730.64484	0.01657
1729.35907	0.01683
1728.07330	0.01708
1726.78753	0.01734
1725.50177	0.01765
1724.21600	0.01799
1722.93023	0.01832
1721.64446	0.01862
1720.35869	0.01898
1719.07292	0.01942
1717.78715	0.01986
1716.50138	0.02019
1715.21561	0.02045
1713.92985	0.02075
1712.64408	0.02113
1711.35831	0.02157
1710.07254	0.02203
1708.78677	0.02246
1707.50100	0.02286
1706.21523	0.02319
1704.92946	0.02344
1703.64370	0.02371
1702.35793	0.02415
1701.07216	0.02476
1699.78639	0.02532
1698.50062	0.02580
1697.21485	0.02628
1695.92908	0.02673
1694.64331	0.02700
1693.35754	0.02712
1692.07178	0.02727
1690.78601	0.02752
1689.50024	0.02782
1688.21447	0.02815
1686.92870	0.02857
1685.64293	0.02909
1684.35716	0.02955
1683.07139	0.02984
1681.78563	0.03006
1680.49986	0.03033
1679.21409	0.03066
1677.92832	0.03106
1676.64255	0.03149
1675.35678	0.03183
1674.07101	0.03200
1672.78524	0.03212
1671.49947	0.03236
1670.21371	0.03275
1668.92794	0.03313
1667.64217	0.03340
1666.35640	0.03360
1665.07063	0.03384
1663.78486	0.03415
1662.49909	0.03446
1661.21332	0.03472
1659.92756	0.03494
1658.64179	0.03513
1657.35602	0.03531
1656.07025	0.03559
1654.78448	0.03609
1653.49871	0.03664
1652.21294	0.03696
1650.92717	0.03700
1649.64140	0.03700
1648.35564	0.03715
1647.06987	0.03741
1645.78410	0.03761
1644.49833	0.03773
1643.21256	0.03783
1641.92679	0.03797
1640.64102	0.03811
1639.35525	0.03824
1638.06949	0.03843
1636.78372	0.03871
1635.49795	0.03899
1634.21218	0.03916
1632.92641	0.03926
1631.64064	0.03938
1630.35487	0.03955
1629.06910	0.03976
1627.78333	0.03996
1626.49757	0.04015
1625.21180	0.04038
1623.92603	0.04063
1622.64026	0.04083
1621.35449	0.04095
1620.06872	0.04105
1618.78295	0.04126
1617.49718	0.04155
1616.21142	0.04182
1614.92565	0.04202
1613.63988	0.04222
1612.35411	0.04247
1611.06834	0.04273
1609.78257	0.04301
1608.49680	0.04330
1607.21103	0.04359
1605.92526	0.04384
1604.63950	0.04403
1603.35373	0.04418
1602.06796	0.04433
1600.78219	0.04453
1599.49642	0.04478
1598.21065	0.04506
1596.92488	0.04533
1595.63911	0.04557
1594.35335	0.04582
1593.06758	0.04611
1591.78181	0.04641
1590.49604	0.04667
1589.21027	0.04685
1587.92450	0.04698
1586.63873	0.04714
1585.35296	0.04738
1584.06719	0.04766
1582.78143	0.04793
1581.49566	0.04813
1580.20989	0.04828
1578.92412	0.04849
1577.63835	0.04883
1576.35258	0.04925
1575.06681	0.04958
1573.78104	0.04982
1572.49528	0.05007
1571.20951	0.05035
1569.92374	0.05061
1568.63797	0.05079
1567.35220	0.05090
1566.06643	0.05099
1564.78066	0.05102
1563.49489	0.05106
1562.20912	0.05124
1560.92336	0.05165
1559.63759	0.05216
1558.35182	0.05254
1557.06605	0.05274
1555.78028	0.05288
1554.49451	0.05305
1553.20874	0.05320
1551.92297	0.05332
1550.63721	0.05341
1549.35144	0.05345
1548.06567	0.05344
1546.77990	0.05342
1545.49413	0.05336
1544.20836	0.05322
1542.92259	0.05305
1541.63682	0.05297
1540.35105	0.05297
1539.06529	0.05294
1537.77952	0.05280
1536.49375	0.05268
1535.20798	0.05270
1533.92221	0.05285
1532.63644	0.05300
1531.35067	0.05314
1530.06490	0.05335
1528.77914	0.05372
1527.49337	0.05422
1526.20760	0.05480
1524.92183	0.05541
1523.63606	0.05611
1522.35029	0.05694
1521.06452	0.05784
1519.77875	0.05877
1518.49298	0.05978
1517.20722	0.06093
1515.92145	0.06215
1514.63568	0.06339
1513.34991	0.06465
1512.06414	0.06590
1510.77837	0.06717
1509.49260	0.06855
1508.20683	0.07010
1506.92107	0.07176
1505.63530	0.07333
1504.34953	0.07470
1503.06376	0.07593
1501.77799	0.07707
1500.49222	0.07816
1499.20645	0.07922
1497.92068	0.08026
1496.63491	0.08122
1495.34915	0.08205
1494.06338	0.08281
1492.77761	0.08363
1491.49184	0.08459
1490.20607	0.08564
1488.92030	0.08671
1487.63453	0.08779
1486.34876	0.08892
1485.06299	0.09015
1483.77723	0.09148
1482.49146	0.09288
1481.20569	0.09428
1479.91992	0.09562
1478.63415	0.09689
1477.34838	0.09806
1476.06261	0.09915
1474.77684	0.10017
1473.49108	0.10114
1472.20531	0.10203
1470.91954	0.10278
1469.63377	0.10342
1468.34800	0.10401
1467.06223	0.10459
1465.77646	0.10516
1464.49069	0.10564
1463.20492	0.10602
1461.91916	0.10634
1460.63339	0.10676
1459.34762	0.10739
1458.06185	0.10821
1456.77608	0.10904
1455.49031	0.10971
1454.20454	0.11021
1452.91877	0.11062
1451.63301	0.11095
1450.34724	0.11119
1449.06147	0.11130
1447.77570	0.11126
1446.48993	0.11113
1445.20416	0.11095
1443.91839	0.11074
1442.63262	0.11046
1441.34685	0.11007
1440.06109	0.10965
1438.77532	0.10933
1437.48955	0.10918
1436.20378	0.10924
1434.91801	0.10950
1433.63224	0.11000
1432.34647	0.11078
1431.06070	0.11181
1429.77494	0.11306
1428.48917	0.11449
1427.20340	0.11605
1425.91763	0.11769
1424.63186	0.11936
1423.34609	0.12104
1422.06032	0.12269
1420.77455	0.12427
1419.48878	0.12568
1418.20302	0.12682
1416.91725	0.12772
1415.63148	0.12846
1414.34571	0.12903
1413.05994	0.12938
1411.77417	0.12941
1410.48840	0.12911
1409.20263	0.12854
1407.91687	0.12773
1406.63110	0.12668
1405.34533	0.12536
1404.05956	0.12372
1402.77379	0.12183
1401.48802	0.11980
1400.20225	0.11769
1398.91648	0.11546
1397.63071	0.11309
1396.34495	0.11062
1395.05918	0.10811
1393.77341	0.10558
1392.48764	0.10302
1391.20187	0.10047
1389.91610	0.09799
1388.63033	0.09563
1387.34456	0.09337
1386.05880	0.09115
1384.77303	0.08893
1383.48726	0.08670
1382.20149	0.08444
1380.91572	0.08218
1379.62995	0.07992
1378.34418	0.07767
1377.05841	0.07540
1375.77264	0.07306
1374.48688	0.07065
1373.20111	0.06819
1371.91534	0.06575
1370.62957	0.06339
1369.34380	0.06115
1368.05803	0.05906
1366.77226	0.05712
1365.48649	0.05533
1364.20073	0.05365
1362.91496	0.05201
1361.62919	0.05038
1360.34342	0.04878
1359.05765	0.04731
1357.77188	0.04600
1356.48611	0.04484
1355.20034	0.04375
1353.91457	0.04272
1352.62881	0.04176
1351.34304	0.04087
1350.05727	0.04004
1348.77150	0.03925
1347.48573	0.03849
1346.19996	0.03776
1344.91419	0.03706
1343.62842	0.03642
1342.34266	0.03581
1341.05689	0.03519
1339.77112	0.03457
1338.48535	0.03397
1337.19958	0.03341
1335.91381	0.03291
1334.62804	0.03246
1333.34227	0.03206
1332.05650	0.03171
1330.77074	0.03139
1329.48497	0.03108
1328.19920	0.03075
1326.91343	0.03040
1325.62766	0.03007
1324.34189	0.02976
1323.05612	0.02948
1321.77035	0.02921
1320.48459	0.02893
1319.19882	0.02862
1317.91305	0.02830
1316.62728	0.02799
1315.34151	0.02773
1314.05574	0.02752
1312.76997	0.02734
1311.48420	0.02716
1310.19843	0.02697
1308.91267	0.02680
1307.62690	0.02664
1306.34113	0.02647
1305.05536	0.02628
1303.76959	0.02608
1302.48382	0.02590
1301.19805	0.02575
1299.91228	0.02560
1298.62652	0.02543
1297.34075	0.02526
1296.05498	0.02509
1294.76921	0.02493
1293.48344	0.02475
1292.19767	0.02457
1290.91190	0.02439
1289.62613	0.02423
1288.34036	0.02409
1287.05460	0.02395
1285.76883	0.02382
1284.48306	0.02371
1283.19729	0.02362
1281.91152	0.02354
1280.62575	0.02345
1279.33998	0.02332
1278.05421	0.02315
1276.76845	0.02295
1275.48268	0.02275
1274.19691	0.02258
1272.91114	0.02244
1271.62537	0.02230
1270.33960	0.02215
1269.05383	0.02197
1267.76806	0.02179
1266.48229	0.02162
1265.19653	0.02148
1263.91076	0.02136
1262.62499	0.02123
1261.33922	0.02111
1260.05345	0.02102
1258.76768	0.02096
1257.48191	0.02092
1256.19614	0.02087
1254.91037	0.02079
1253.62461	0.02069
1252.33884	0.02057
1251.05307	0.02045
1249.76730	0.02032
1248.48153	0.02022
1247.19576	0.02015
1245.90999	0.02010
1244.62422	0.02007
1243.33846	0.02004
1242.05269	0.02000
1240.76692	0.01995
1239.48115	0.01991
1238.19538	0.01988
1236.90961	0.01984
1235.62384	0.01978
1234.33807	0.01969
1233.05230	0.01957
1231.76654	0.01946
1230.48077	0.01938
1229.19500	0.01934
1227.90923	0.01932
1226.62346	0.01932
1225.33769	0.01930
1224.05192	0.01926
1222.76615	0.01919
1221.48039	0.01911
1220.19462	0.01904
1218.90885	0.01898
1217.62308	0.01893
1216.33731	0.01889
1215.05154	0.01883
1213.76577	0.01878
1212.48000	0.01872
1211.19423	0.01866
1209.90847	0.01861
1208.62270	0.01855
1207.33693	0.01852
1206.05116	0.01851
1204.76539	0.01851
1203.47962	0.01848
1202.19385	0.01843
1200.90808	0.01836
1199.62232	0.01819
1198.33655	0.01816
1197.05078	0.01815
1195.76501	0.01814
1194.47924	0.01816
1193.19347	0.01823
1191.90770	0.01832
1190.62193	0.01836
1189.33616	0.01833
1188.05040	0.01824
1186.76463	0.01813
1185.47886	0.01806
1184.19309	0.01804
1182.90732	0.01805
1181.62155	0.01806
1180.33578	0.01809
1179.05001	0.01815
1177.76425	0.01827
1176.47848	0.01841
1175.19271	0.01853
1173.90694	0.01863
1172.62117	0.01872
1171.33540	0.01883
1170.04963	0.01898
1168.76386	0.01919
1167.47809	0.01948
1166.19233	0.01982
1164.90656	0.02016
1163.62079	0.02045
1162.33502	0.02070
1161.04925	0.02096
1159.76348	0.02125
1158.47771	0.02158
1157.19194	0.02194
1155.90618	0.02233
1154.62041	0.02277
1153.33464	0.02324
1152.04887	0.02374
1150.76310	0.02425
1149.47733	0.02478
1148.19156	0.02539
1146.90579	0.02613
1145.62002	0.02700
1144.33426	0.02799
1143.04849	0.02905
1141.76272	0.03014
1140.47695	0.03132
1139.19118	0.03267
1137.90541	0.03421
1136.61964	0.03588
1135.33387	0.03758
1134.04811	0.03934
1132.76234	0.04122
1131.47657	0.04332
1130.19080	0.04568
1128.90503	0.04834
1127.61926	0.05132
1126.33349	0.05460
1125.04772	0.05809
1123.76195	0.06170
1122.47619	0.06538
1121.19042	0.06911
1119.90465	0.07291
1118.61888	0.07679
1117.33311	0.08073
1116.04734	0.08475
1114.76157	0.08880
1113.47580	0.09286
1112.19004	0.09691
1110.90427	0.10091
1109.61850	0.10484
1108.33273	0.10864
1107.04696	0.11231
1105.76119	0.11586
1104.47542	0.11933
1103.18965	0.12273
1101.90388	0.12607
1100.61812	0.12932
1099.33235	0.13249
1098.04658	0.13554
1096.76081	0.13845
1095.47504	0.14118
1094.18927	0.14377
1092.90350	0.14628
1091.61773	0.14873
1090.33197	0.15109
1089.04620	0.15330
1087.76043	0.15540
1086.47466	0.15749
1085.18889	0.15969
1083.90312	0.16202
1082.61735	0.16447
1081.33158	0.16700
1080.04581	0.16963
1078.76005	0.17240
1077.47428	0.17535
1076.18851	0.17846
1074.90274	0.18169
1073.61697	0.18503
1072.33120	0.18850
1071.04543	0.19212
1069.75966	0.19591
1068.47390	0.19984
1067.18813	0.20384
1065.90236	0.20781
1064.61659	0.21174
1063.33082	0.21566
1062.04505	0.21960
1060.75928	0.22353
1059.47351	0.22746
1058.18774	0.23143
1056.90198	0.23543
1055.61621	0.23941
1054.33044	0.24331
1053.04467	0.24714
1051.75890	0.25097
1050.47313	0.25488
1049.18736	0.25898
1047.90159	0.26329
1046.61583	0.26779
1045.33006	0.27239
1044.04429	0.27698
1042.75852	0.28151
1041.47275	0.28604
1040.18698	0.29063
1038.90121	0.29536
1037.61544	0.30019
1036.32967	0.30505
1035.04391	0.30981
1033.75814	0.31438
1032.47237	0.31873
1031.18660	0.32281
1029.90083	0.32653
1028.61506	0.32975
1027.32929	0.33242
1026.04352	0.33462
1024.75775	0.33639
1023.47199	0.33769
1022.18622	0.33841
1020.90045	0.33849
1019.61468	0.33798
1018.32891	0.33694
1017.04314	0.33542
1015.75737	0.33341
1014.47160	0.33085
1013.18584	0.32768
1011.90007	0.32386
1010.61430	0.31936
1009.32853	0.31420
1008.04276	0.30844
1006.75699	0.30211
1005.47122	0.29527
1004.18545	0.28797
1002.89968	0.28027
1001.61392	0.27220
1000.32815	0.26384
999.04238	0.25532
997.75661	0.24673
996.47084	0.23814
995.18507	0.22956
993.89930	0.22099
992.61353	0.21244
991.32777	0.20396
990.04200	0.19570
988.75623	0.18777
987.47046	0.18019
986.18469	0.17289
984.89892	0.16586
983.61315	0.15915
982.32738	0.15282
981.04161	0.14689
979.75585	0.14140
978.47008	0.13642
977.18431	0.13200
975.89854	0.12807
974.61277	0.12457
973.32700	0.12152
972.04123	0.11906
970.75546	0.11737
969.46970	0.11652
968.18393	0.11647
966.89816	0.11709
965.61239	0.11816
964.32662	0.11944
963.04085	0.12063
961.75508	0.12144
960.46931	0.12160
959.18354	0.12093
957.89778	0.11942
956.61201	0.11716
955.32624	0.11438
954.04047	0.11135
952.75470	0.10825
951.46893	0.10513
950.18316	0.10199
948.89739	0.09885
947.61163	0.09580
946.32586	0.09292
945.04009	0.09021
943.75432	0.08761
942.46855	0.08510
941.18278	0.08268
939.89701	0.08033
938.61124	0.07805
937.32547	0.07589
936.03971	0.07391
934.75394	0.07211
933.46817	0.07044
932.18240	0.06887
930.89663	0.06742
929.61086	0.06607
928.32509	0.06479
927.03932	0.06359
925.75356	0.06248
924.46779	0.06150
923.18202	0.06060
921.89625	0.05975
920.61048	0.05893
919.32471	0.05816
918.03894	0.05746
916.75317	0.05682
915.46740	0.05618
914.18164	0.05550
912.89587	0.05478
911.61010	0.05411
910.32433	0.05357
909.03856	0.05314
907.75279	0.05271
906.46702	0.05221
905.18125	0.05168
903.89549	0.05118
902.60972	0.05070
901.32395	0.05023
900.03818	0.04983
898.75241	0.04953
897.46664	0.04932
896.18087	0.04913
894.89510	0.04895
893.60933	0.04883
892.32357	0.04883
891.03780	0.04900
889.75203	0.04938
888.46626	0.05010
887.18049	0.05129
885.89472	0.05308
884.60895	0.05560
883.32318	0.05887
882.03742	0.06264
880.75165	0.06636
879.46588	0.06941
878.18011	0.07158
876.89434	0.07327
875.60857	0.07500
874.32280	0.07684
873.03703	0.07834
871.75126	0.07895
870.46550	0.07845
869.17973	0.07694
867.89396	0.07467
866.60819	0.07190
865.32242	0.06891
864.03665	0.06595
862.75088	0.06315
861.46511	0.06058
860.17935	0.05828
858.89358	0.05631
857.60781	0.05467
856.32204	0.05332
855.03627	0.05219
853.75050	0.05121
852.46473	0.05031
851.17896	0.04950
849.89319	0.04879
848.60743	0.04819
847.32166	0.04768
846.03589	0.04722
844.75012	0.04682
843.46435	0.04643
842.17858	0.04603
840.89281	0.04562
839.60704	0.04523
838.32128	0.04492
837.03551	0.04466
835.74974	0.04441
834.46397	0.04415
833.17820	0.04389
831.89243	0.04365
830.60666	0.04345
829.32089	0.04326
828.03512	0.04310
826.74936	0.04297
825.46359	0.04285
824.17782	0.04269
822.89205	0.04247
821.60628	0.04225
820.32051	0.04212
819.03474	0.04212
817.74897	0.04220
816.46321	0.04226
815.17744	0.04230
813.89167	0.04233
812.60590	0.04235
811.32013	0.04230
810.03436	0.04218
808.74859	0.04204
807.46282	0.04192
806.17705	0.04178
804.89129	0.04159
803.60552	0.04135
802.31975	0.04113
801.03398	0.04097
799.74821	0.04085
798.46244	0.04076
797.17667	0.04070
795.89090	0.04072
794.60513	0.04082
793.31937	0.04089
792.03360	0.04088
790.74783	0.04075
789.46206	0.04055
788.17629	0.04034
786.89052	0.04018
785.60475	0.04009
784.31898	0.04001
783.03322	0.03994
781.74745	0.03989
780.46168	0.03985
779.17591	0.03981
777.89014	0.03980
776.60437	0.03982
775.31860	0.03985
774.03283	0.03984
772.74706	0.03980
771.46130	0.03980
770.17553	0.03991
768.88976	0.04009
767.60399	0.04022
766.31822	0.04026
765.03245	0.04024
763.74668	0.04023
762.46091	0.04029
761.17515	0.04039
759.88938	0.04052
758.60361	0.04066
757.31784	0.04075
756.03207	0.04074
754.74630	0.04064
753.46053	0.04053
752.17476	0.04050
750.88899	0.04056
749.60323	0.04064
748.31746	0.04060
747.03169	0.04042
745.74592	0.04016
744.46015	0.03990
743.17438	0.03969
741.88861	0.03953
740.60284	0.03943
739.31708	0.03945
738.03131	0.03958
736.74554	0.03973
735.45977	0.03980
734.17400	0.03978
732.88823	0.03976
731.60246	0.03977
730.31669	0.03977
729.03092	0.03971
727.74516	0.03963
726.45939	0.03960
725.17362	0.03963
723.88785	0.03958
722.60208	0.03967
721.31631	0.03967
720.03054	0.03959
718.74477	0.03952
717.45901	0.03946
716.17324	0.03942
714.88747	0.03940
713.60170	0.03941
712.31593	0.03941
711.03016	0.03937
709.74439	0.03926
708.45862	0.03914
707.17285	0.03903
705.88709	0.03894
704.60132	0.03885
703.31555	0.03876
702.02978	0.03869
700.74401	0.03864
699.45824	0.03860
698.17247	0.03854
696.88670	0.03846
695.60094	0.03842
694.31517	0.03843
693.02940	0.03849
691.74363	0.03858
690.45786	0.03865
689.17209	0.03867
687.88632	0.03865
686.60055	0.03860
685.31478	0.03851
684.02902	0.03837
682.74325	0.03819
681.45748	0.03799
680.17171	0.03780
678.88594	0.03766
677.60017	0.03758
676.31440	0.03755
675.02863	0.03756
673.74287	0.03760
672.45710	0.03772
671.17133	0.03797
669.88556	0.03826
668.59979	0.03810
667.31402	0.03818
666.02825	0.03871
664.74248	0.03847
663.45671	0.03808
662.17095	0.03778
660.88518	0.03752
659.59941	0.03728
658.31364	0.03706
657.02787	0.03687
655.74210	0.03675
654.45633	0.03671
653.17056	0.03669
651.88480	0.03669
650.59903	0.03675
649.31326	0.03686
648.02749	0.03701
646.74172	0.03711
645.45595	0.03715
644.17018	0.03718
642.88441	0.03725
641.59864	0.03738
640.31288	0.03756
639.02711	0.03780
637.74134	0.03809
636.45557	0.03844
635.16980	0.03885
633.88403	0.03931
632.59826	0.03982
631.31249	0.04062
630.02673	0.04197
628.74096	0.04285
627.45519	0.04265
626.16942	0.04369
624.88365	0.04589
623.59788	0.04870
622.31211	0.05194
621.02634	0.05541
619.74057	0.05887
618.45481	0.06228
617.16904	0.06570
615.88327	0.06900
614.59750	0.07194
613.31173	0.07486
612.02596	0.07912
610.74019	0.08614
609.45442	0.09540
608.16866	0.10435
606.88289	0.11095
605.59712	0.11533
604.31135	0.11862
603.02558	0.12113
601.73981	0.12223
600.45404	0.12138
599.16827	0.11874
597.88250	0.11506
596.59674	0.11112
595.31097	0.10745
594.02520	0.10432
592.73943	0.10186
591.45366	0.10016
590.16789	0.09927
588.88212	0.09908
587.59635	0.09944
586.31059	0.10029
585.02482	0.10168
583.73905	0.10365
582.45328	0.10612
581.16751	0.10890
579.88174	0.11184
578.59597	0.11491
577.31020	0.11812
576.02443	0.12136
574.73867	0.12448
573.45290	0.12744
572.16713	0.13044
570.88136	0.13379
569.59559	0.13764
568.30982	0.14195
567.02405	0.14651
565.73828	0.15107
564.45251	0.15522
563.16675	0.15839
561.88098	0.15995
560.59521	0.15950
559.30944	0.15703
558.02367	0.15280
556.73790	0.14712
555.45213	0.14036
554.16636	0.13296
552.88060	0.12547
551.59483	0.11831
550.30906	0.11168
549.02329	0.10564
547.73752	0.10021
546.45175	0.09538
545.16598	0.09109
543.88021	0.08724
542.59444	0.08373
541.30868	0.08054
540.02291	0.07762
538.73714	0.07488
537.45137	0.07224
536.16560	0.06971
534.87983	0.06738
533.59406	0.06534
532.30829	0.06353
531.02253	0.06182
529.73676	0.06011
528.45099	0.05839
527.16522	0.05676
525.87945	0.05531
524.59368	0.05405
523.30791	0.05293
522.02214	0.05184
520.73637	0.05067
519.45061	0.04943
518.16484	0.04823
516.87907	0.04715
515.59330	0.04624
514.30753	0.04540
513.02176	0.04456
511.73599	0.04369
510.45022	0.04288
509.16446	0.04222
507.87869	0.04173
506.59292	0.04127
505.30715	0.04075
504.02138	0.04019
502.73561	0.03967
501.44984	0.03922
500.16407	0.03877
498.87830	0.03826
497.59254	0.03774
496.30677	0.03727
495.02100	0.03688
493.73523	0.03654
492.44946	0.03625
491.16369	0.03602
489.87792	0.03584
488.59215	0.03566
487.30639	0.03547
486.02062	0.03533
484.73485	0.03528
483.44908	0.03530
482.16331	0.03536
480.87754	0.03547
479.59177	0.03567
478.30600	0.03593
477.02023	0.03617
475.73447	0.03637
474.44870	0.03656
473.16293	0.03680
471.87716	0.03707
470.59139	0.03723
469.30562	0.03718
468.01985	0.03692
466.73408	0.03652
465.44832	0.03604
464.16255	0.03551
462.87678	0.03494
461.59101	0.03437
460.30524	0.03386
459.01947	0.03347
457.73370	0.03323
456.44793	0.03311
455.16216	0.03304
453.87640	0.03291
452.59063	0.03265
451.30486	0.03226
450.01909	0.03183
448.73332	0.03147
447.44755	0.03123
446.16178	0.03111
444.87601	0.03108
443.59025	0.03107
442.30448	0.03101
441.01871	0.03090
439.73294	0.03074
438.44717	0.03059
437.16140	0.03048
435.87563	0.03043
434.58986	0.03045
433.30409	0.03051
432.01833	0.03055
430.73256	0.03053
429.44679	0.03043
428.16102	0.03027
426.87525	0.03009
425.58948	0.02990
424.30371	0.02975
423.01794	0.02964
421.73218	0.02958
420.44641	0.02957
419.16064	0.02957
417.87487	0.02953
416.58910	0.02943
415.30333	0.02932
414.01756	0.02922
412.73179	0.02917
411.44602	0.02916
410.16026	0.02919
408.87449	0.02926
407.58872	0.02937
406.30295	0.02948
405.01718	0.02955
403.73141	0.02954
402.44564	0.02951
401.15987	0.02953
399.87411	0.02966
