3997.45528	0.04732
3996.16951	0.04685
3994.88374	0.04643
3993.59798	0.04624
3992.31221	0.04633
3991.02644	0.04651
3989.74067	0.04643
3988.45490	0.04592
3987.16913	0.04531
3985.88336	0.04527
3984.59759	0.04621
3983.31183	0.04782
3982.02606	0.04931
3980.74029	0.05013
3979.45452	0.05038
3978.16875	0.05055
3976.88298	0.05091
3975.59721	0.05119
3974.31144	0.05082
3973.02567	0.04959
3971.73991	0.04796
3970.45414	0.04673
3969.16837	0.04643
3967.88260	0.04704
3966.59683	0.04813
3965.31106	0.04910
3964.02529	0.04947
3962.73952	0.04908
3961.45376	0.04820
3960.16799	0.04729
3958.88222	0.04671
3957.59645	0.04659
3956.31068	0.04697
3955.02491	0.04787
3953.73914	0.04914
3952.45337	0.05033
3951.16760	0.05094
3949.88184	0.05080
3948.59607	0.05011
3947.31030	0.04912
3946.02453	0.04799
3944.73876	0.04696
3943.45299	0.04637
3942.16722	0.04636
3940.88145	0.04669
3939.59569	0.04691
3938.30992	0.04671
3937.02415	0.04614
3935.73838	0.04552
3934.45261	0.04523
3933.16684	0.04546
3931.88107	0.04617
3930.59530	0.04709
3929.30953	0.04801
3928.02377	0.04873
3926.73800	0.04911
3925.45223	0.04916
3924.16646	0.04907
3922.88069	0.04919
3921.59492	0.04979
3920.30915	0.05078
3919.02338	0.05166
3917.73762	0.05191
3916.45185	0.05142
3915.16608	0.05047
3913.88031	0.04941
3912.59454	0.04841
3911.30877	0.04751
3910.02300	0.04667
3908.73723	0.04591
3907.45146	0.04527
3906.16570	0.04473
3904.87993	0.04422
3903.59416	0.04372
3902.30839	0.04335
3901.02262	0.04337
3899.73685	0.04393
3898.45108	0.04487
3897.16531	0.04578
3895.87955	0.04623
3894.59378	0.04606
3893.30801	0.04530
3892.02224	0.04427
3890.73647	0.04343
3889.45070	0.04309
3888.16493	0.04321
3886.87916	0.04360
3885.59339	0.04410
3884.30763	0.04434
3883.02186	0.04401
3881.73609	0.04342
3880.45032	0.04339
3879.16455	0.04425
3877.87878	0.04541
3876.59301	0.04613
3875.30724	0.04639
3874.02148	0.04668
3872.73571	0.04716
3871.44994	0.04743
3870.16417	0.04715
3868.87840	0.04627
3867.59263	0.04485
3866.30686	0.04317
3865.02109	0.04172
3863.73532	0.04080
3862.44956	0.04035
3861.16379	0.04030
3859.87802	0.04083
3858.59225	0.04210
3857.30648	0.04391
3856.02071	0.04564
3854.73494	0.04664
3853.44917	0.04668
3852.16341	0.04594
3850.87764	0.04495
3849.59187	0.04444
3848.30610	0.04473
3847.02033	0.04527
3845.73456	0.04524
3844.44879	0.04442
3843.16302	0.04336
3841.87725	0.04269
3840.59149	0.04245
3839.30572	0.04233
3838.01995	0.04223
3836.73418	0.04227
3835.44841	0.04240
3834.16264	0.04246
3832.87687	0.04251
3831.59110	0.04264
3830.30534	0.04275
3829.01957	0.04279
3827.73380	0.04289
3826.44803	0.04331
3825.16226	0.04395
3823.87649	0.04433
3822.59072	0.04416
3821.30495	0.04372
3820.01918	0.04337
3818.73342	0.04314
3817.44765	0.04300
3816.16188	0.04321
3814.87611	0.04375
3813.59034	0.04408
3812.30457	0.04385
3811.01880	0.04321
3809.73303	0.04236
3808.44726	0.04152
3807.16150	0.04129
3805.87573	0.04217
3804.58996	0.04375
3803.30419	0.04500
3802.01842	0.04544
3800.73265	0.04535
3799.44688	0.04498
3798.16111	0.04425
3796.87535	0.04325
3795.58958	0.04233
3794.30381	0.04184
3793.01804	0.04195
3791.73227	0.04265
3790.44650	0.04357
3789.16073	0.04423
3787.87496	0.04440
3786.58919	0.04413
3785.30343	0.04368
3784.01766	0.04329
3782.73189	0.04314
3781.44612	0.04328
3780.16035	0.04369
3778.87458	0.04427
3777.58881	0.04476
3776.30304	0.04493
3775.01728	0.04474
3773.73151	0.04419
3772.44574	0.04326
3771.15997	0.04214
3769.87420	0.04131
3768.58843	0.04116
3767.30266	0.04160
3766.01689	0.04215
3764.73112	0.04241
3763.44536	0.04220
3762.15959	0.04162
3760.87382	0.04090
3759.58805	0.04016
3758.30228	0.03929
3757.01651	0.03839
3755.73074	0.03779
3754.44497	0.03774
3753.15921	0.03833
3751.87344	0.03936
3750.58767	0.04045
3749.30190	0.04131
3748.01613	0.04178
3746.73036	0.04159
3745.44459	0.04087
3744.15882	0.04020
3742.87305	0.03984
3741.58729	0.03947
3740.30152	0.03912
3739.01575	0.03905
3737.72998	0.03923
3736.44421	0.03941
3735.15844	0.03959
3733.87267	0.03986
3732.58690	0.04052
3731.30114	0.04175
3730.01537	0.04312
3728.72960	0.04390
3727.44383	0.04372
3726.15806	0.04274
3724.87229	0.04140
3723.58652	0.04010
3722.30075	0.03924
3721.01498	0.03886
3719.72922	0.03870
3718.44345	0.03861
3717.15768	0.03862
3715.87191	0.03879
3714.58614	0.03899
3713.30037	0.03911
3712.01460	0.03922
3710.72883	0.03934
3709.44307	0.03929
3708.15730	0.03904
3706.87153	0.03875
3705.58576	0.03863
3704.29999	0.03863
3703.01422	0.03858
3701.72845	0.03855
3700.44268	0.03862
3699.15691	0.03859
3697.87115	0.03830
3696.58538	0.03798
3695.29961	0.03785
3694.01384	0.03800
3692.72807	0.03866
3691.44230	0.03955
3690.15653	0.03996
3688.87076	0.03972
3687.58500	0.03900
3686.29923	0.03786
3685.01346	0.03668
3683.72769	0.03587
3682.44192	0.03545
3681.15615	0.03533
3679.87038	0.03545
3678.58461	0.03591
3677.29884	0.03695
3676.01308	0.03858
3674.72731	0.04057
3673.44154	0.04229
3672.15577	0.04308
3670.87000	0.04313
3669.58423	0.04297
3668.29846	0.04269
3667.01269	0.04214
3665.72693	0.04130
3664.44116	0.04046
3663.15539	0.03989
3661.86962	0.03978
3660.58385	0.04003
3659.29808	0.04036
3658.01231	0.04052
3656.72654	0.04056
3655.44077	0.04073
3654.15501	0.04109
3652.86924	0.04142
3651.58347	0.04154
3650.29770	0.04145
3649.01193	0.04121
3647.72616	0.04081
3646.44039	0.04043
3645.15462	0.04043
3643.86886	0.04124
3642.58309	0.04280
3641.29732	0.04435
3640.01155	0.04487
3638.72578	0.04405
3637.44001	0.04249
3636.15424	0.04123
3634.86847	0.04098
3633.58270	0.04186
3632.29694	0.04332
3631.01117	0.04461
3629.72540	0.04551
3628.43963	0.04626
3627.15386	0.04695
3625.86809	0.04724
3624.58232	0.04710
3623.29655	0.04686
3622.01079	0.04705
3620.72502	0.04788
3619.43925	0.04910
3618.15348	0.05006
3616.86771	0.05024
3615.58194	0.04963
3614.29617	0.04880
3613.01040	0.04843
3611.72463	0.04878
3610.43887	0.04961
3609.15310	0.05031
3607.86733	0.05045
3606.58156	0.05006
3605.29579	0.04970
3604.01002	0.04987
3602.72425	0.05057
3601.43848	0.05148
3600.15272	0.05214
3598.86695	0.05216
3597.58118	0.05146
3596.29541	0.05069
3595.00964	0.05069
3593.72387	0.05171
3592.43810	0.05328
3591.15233	0.05454
3589.86656	0.05494
3588.58080	0.05470
3587.29503	0.05446
3586.00926	0.05459
3584.72349	0.05503
3583.43772	0.05554
3582.15195	0.05571
3580.86618	0.05524
3579.58041	0.05441
3578.29464	0.05377
3577.00888	0.05371
3575.72311	0.05431
3574.43734	0.05534
3573.15157	0.05648
3571.86580	0.05751
3570.58003	0.05814
3569.29426	0.05821
3568.00849	0.05793
3566.72273	0.05786
3565.43696	0.05841
3564.15119	0.05926
3562.86542	0.05979
3561.57965	0.05977
3560.29388	0.05954
3559.00811	0.05947
3557.72234	0.05942
3556.43657	0.05923
3555.15081	0.05907
3553.86504	0.05930
3552.57927	0.05994
3551.29350	0.06065
3550.00773	0.06124
3548.72196	0.06178
3547.43619	0.06229
3546.15042	0.06257
3544.86466	0.06248
3543.57889	0.06226
3542.29312	0.06221
3541.00735	0.06237
3539.72158	0.06255
3538.43581	0.06259
3537.15004	0.06257
3535.86427	0.06268
3534.57850	0.06306
3533.29274	0.06362
3532.00697	0.06416
3530.72120	0.06452
3529.43543	0.06476
3528.14966	0.06511
3526.86389	0.06567
3525.57812	0.06624
3524.29235	0.06655
3523.00659	0.06653
3521.72082	0.06639
3520.43505	0.06638
3519.14928	0.06660
3517.86351	0.06710
3516.57774	0.06790
3515.29197	0.06888
3514.00620	0.06973
3512.72043	0.07015
3511.43467	0.07006
3510.14890	0.06957
3508.86313	0.06893
3507.57736	0.06840
3506.29159	0.06817
3505.00582	0.06835
3503.72005	0.06901
3502.43428	0.07007
3501.14852	0.07124
3499.86275	0.07208
3498.57698	0.07235
3497.29121	0.07214
3496.00544	0.07176
3494.71967	0.07141
3493.43390	0.07116
3492.14813	0.07113
3490.86236	0.07153
3489.57660	0.07253
3488.29083	0.07394
3487.00506	0.07526
3485.71929	0.07606
3484.43352	0.07615
3483.14775	0.07561
3481.86198	0.07470
3480.57621	0.07381
3479.29045	0.07332
3478.00468	0.07342
3476.71891	0.07401
3475.43314	0.07475
3474.14737	0.07522
3472.86160	0.07517
3471.57583	0.07467
3470.29006	0.07409
3469.00429	0.07385
3467.71853	0.07411
3466.43276	0.07468
3465.14699	0.07527
3463.86122	0.07566
3462.57545	0.07583
3461.28968	0.07592
3460.00391	0.07602
3458.71814	0.07619
3457.43238	0.07636
3456.14661	0.07650
3454.86084	0.07655
3453.57507	0.07654
3452.28930	0.07647
3451.00353	0.07642
3449.71776	0.07652
3448.43199	0.07689
3447.14622	0.07750
3445.86046	0.07820
3444.57469	0.07886
3443.28892	0.07943
3442.00315	0.07984
3440.71738	0.07992
3439.43161	0.07958
3438.14584	0.07902
3436.86007	0.07865
3435.57431	0.07874
3434.28854	0.07915
3433.00277	0.07947
3431.71700	0.07943
3430.43123	0.07920
3429.14546	0.07915
3427.85969	0.07953
3426.57392	0.08020
3425.28815	0.08085
3424.00239	0.08124
3422.71662	0.08144
3421.43085	0.08167
3420.14508	0.08203
3418.85931	0.08229
3417.57354	0.08211
3416.28777	0.08142
3415.00200	0.08056
3413.71624	0.08001
3412.43047	0.08003
3411.14470	0.08049
3409.85893	0.08116
3408.57316	0.08186
3407.28739	0.08246
3406.00162	0.08279
3404.71585	0.08271
3403.43008	0.08222
3402.14432	0.08157
3400.85855	0.08107
3399.57278	0.08087
3398.28701	0.08102
3397.00124	0.08124
3395.71547	0.08133
3394.42970	0.08133
3393.14393	0.08146
3391.85817	0.08190
3390.57240	0.08267
3389.28663	0.08352
3388.00086	0.08404
3386.71509	0.08396
3385.42932	0.08344
3384.14355	0.08301
3382.85778	0.08302
3381.57201	0.08334
3380.28625	0.08353
3379.00048	0.08332
3377.71471	0.08283
3376.42894	0.08244
3375.14317	0.08233
3373.85740	0.08243
3372.57163	0.08253
3371.28586	0.08252
3370.00010	0.08242
3368.71433	0.08231
3367.42856	0.08227
3366.14279	0.08232
3364.85702	0.08249
3363.57125	0.08274
3362.28548	0.08299
3360.99971	0.08321
3359.71394	0.08346
3358.42818	0.08380
3357.14241	0.08409
3355.85664	0.08408
3354.57087	0.08372
3353.28510	0.08324
3351.99933	0.08296
3350.71356	0.08305
3349.42779	0.08349
3348.14202	0.08404
3346.85626	0.08433
3345.57049	0.08410
3344.28472	0.08342
3342.99895	0.08271
3341.71318	0.08244
3340.42741	0.08281
3339.14164	0.08366
3337.85587	0.08457
3336.57011	0.08514
3335.28434	0.08523
3333.99857	0.08499
3332.71280	0.08460
3331.42703	0.08412
3330.14126	0.08359
3328.85549	0.08326
3327.56972	0.08332
3326.28395	0.08367
3324.99819	0.08394
3323.71242	0.08392
3322.42665	0.08378
3321.14088	0.08375
3319.85511	0.08383
3318.56934	0.08382
3317.28357	0.08359
3315.99780	0.08320
3314.71204	0.08284
3313.42627	0.08263
3312.14050	0.08253
3310.85473	0.08247
3309.56896	0.08246
3308.28319	0.08248
3306.99742	0.08245
3305.71165	0.08229
3304.42588	0.08204
3303.14012	0.08180
3301.85435	0.08154
3300.56858	0.08119
3299.28281	0.08079
3297.99704	0.08050
3296.71127	0.08042
3295.42550	0.08047
3294.13973	0.08052
3292.85397	0.08054
3291.56820	0.08067
3290.28243	0.08105
3288.99666	0.08164
3287.71089	0.08221
3286.42512	0.08254
3285.13935	0.08254
3283.85358	0.08229
3282.56781	0.08191
3281.28205	0.08149
3279.99628	0.08108
3278.71051	0.08078
3277.42474	0.08068
3276.13897	0.08073
3274.85320	0.08078
3273.56743	0.08071
3272.28166	0.08062
3270.99590	0.08065
3269.71013	0.08081
3268.42436	0.08094
3267.13859	0.08085
3265.85282	0.08046
3264.56705	0.07985
3263.28128	0.07916
3261.99551	0.07854
3260.70974	0.07812
3259.42398	0.07800
3258.13821	0.07823
3256.85244	0.07877
3255.56667	0.07947
3254.28090	0.08005
3252.99513	0.08027
3251.70936	0.08007
3250.42359	0.07968
3249.13783	0.07943
3247.85206	0.07947
3246.56629	0.07964
3245.28052	0.07967
3243.99475	0.07942
3242.70898	0.07903
3241.42321	0.07878
3240.13744	0.07879
3238.85167	0.07890
3237.56591	0.07880
3236.28014	0.07839
3234.99437	0.07789
3233.70860	0.07762
3232.42283	0.07763
3231.13706	0.07773
3229.85129	0.07765
3228.56552	0.07727
3227.27976	0.07669
3225.99399	0.07613
3224.70822	0.07584
3223.42245	0.07599
3222.13668	0.07654
3220.85091	0.07719
3219.56514	0.07751
3218.27937	0.07719
3216.99360	0.07641
3215.70784	0.07569
3214.42207	0.07548
3213.13630	0.07574
3211.85053	0.07607
3210.56476	0.07615
3209.27899	0.07603
3207.99322	0.07585
3206.70745	0.07566
3205.42169	0.07541
3204.13592	0.07515
3202.85015	0.07490
3201.56438	0.07460
3200.27861	0.07417
3198.99284	0.07366
3197.70707	0.07325
3196.42130	0.07310
3195.13553	0.07317
3193.84977	0.07334
3192.56400	0.07353
3191.27823	0.07377
3189.99246	0.07407
3188.70669	0.07430
3187.42092	0.07433
3186.13515	0.07417
3184.84938	0.07393
3183.56362	0.07368
3182.27785	0.07331
3180.99208	0.07273
3179.70631	0.07206
3178.42054	0.07161
3177.13477	0.07159
3175.84900	0.07180
3174.56323	0.07188
3173.27746	0.07168
3171.99170	0.07136
3170.70593	0.07105
3169.42016	0.07066
3168.13439	0.07010
3166.84862	0.06954
3165.56285	0.06927
3164.27708	0.06936
3162.99131	0.06961
3161.70555	0.06982
3160.41978	0.07001
3159.13401	0.07028
3157.84824	0.07056
3156.56247	0.07068
3155.27670	0.07051
3153.99093	0.07011
3152.70516	0.06956
3151.41939	0.06904
3150.13363	0.06873
3148.84786	0.06869
3147.56209	0.06873
3146.27632	0.06859
3144.99055	0.06815
3143.70478	0.06748
3142.41901	0.06677
3141.13324	0.06622
3139.84748	0.06602
3138.56171	0.06626
3137.27594	0.06687
3135.99017	0.06751
3134.70440	0.06784
3133.41863	0.06775
3132.13286	0.06745
3130.84709	0.06728
3129.56132	0.06735
3128.27556	0.06747
3126.98979	0.06736
3125.70402	0.06701
3124.41825	0.06662
3123.13248	0.06633
3121.84671	0.06606
3120.56094	0.06562
3119.27517	0.06498
3117.98940	0.06430
3116.70364	0.06379
3115.41787	0.06357
3114.13210	0.06361
3112.84633	0.06383
3111.56056	0.06416
3110.27479	0.06453
3108.98902	0.06485
3107.70325	0.06498
3106.41749	0.06487
3105.13172	0.06459
3103.84595	0.06430
3102.56018	0.06406
3101.27441	0.06383
3099.98864	0.06358
3098.70287	0.06334
3097.41710	0.06315
3096.13133	0.06297
3094.84557	0.06276
3093.55980	0.06253
3092.27403	0.06238
3090.98826	0.06237
3089.70249	0.06247
3088.41672	0.06255
3087.13095	0.06256
3085.84518	0.06252
3084.55942	0.06252
3083.27365	0.06259
3081.98788	0.06270
3080.70211	0.06287
3079.41634	0.06308
3078.13057	0.06325
3076.84480	0.06327
3075.55903	0.06302
3074.27326	0.06255
3072.98750	0.06201
3071.70173	0.06163
3070.41596	0.06161
3069.13019	0.06191
3067.84442	0.06225
3066.55865	0.06225
3065.27288	0.06183
3063.98711	0.06119
3062.70135	0.06069
3061.41558	0.06047
3060.12981	0.06044
3058.84404	0.06039
3057.55827	0.06022
3056.27250	0.05999
3054.98673	0.05979
3053.70096	0.05969
3052.41519	0.05972
3051.12943	0.05987
3049.84366	0.06006
3048.55789	0.06016
3047.27212	0.06006
3045.98635	0.05982
3044.70058	0.05956
3043.41481	0.05936
3042.12904	0.05922
3040.84328	0.05907
3039.55751	0.05892
3038.27174	0.05882
3036.98597	0.05877
3035.70020	0.05870
3034.41443	0.05852
3033.12866	0.05821
3031.84289	0.05782
3030.55712	0.05742
3029.27136	0.05711
3027.98559	0.05697
3026.69982	0.05702
3025.41405	0.05717
3024.12828	0.05729
3022.84251	0.05729
3021.55674	0.05723
3020.27097	0.05716
3018.98521	0.05709
3017.69944	0.05691
3016.41367	0.05654
3015.12790	0.05604
3013.84213	0.05560
3012.55636	0.05542
3011.27059	0.05553
3009.98482	0.05578
3008.69905	0.05599
3007.41329	0.05607
3006.12752	0.05596
3004.84175	0.05558
3003.55598	0.05493
3002.27021	0.05417
3000.98444	0.05357
2999.69867	0.05334
2998.41290	0.05360
2997.12714	0.05406
2995.84137	0.05455
2994.55560	0.05500
2993.26983	0.05535
2991.98406	0.05548
2990.69829	0.05532
2989.41252	0.05502
2988.12675	0.05479
2986.84098	0.05473
2985.55522	0.05484
2984.26945	0.05511
2982.98368	0.05556
2981.69791	0.05614
2980.41214	0.05673
2979.12637	0.05724
2977.84060	0.05757
2976.55483	0.05770
2975.26907	0.05775
2973.98330	0.05793
2972.69753	0.05849
2971.41176	0.05950
2970.12599	0.06077
2968.84022	0.06199
2967.55445	0.06297
2966.26868	0.06373
2964.98291	0.06446
2963.69715	0.06519
2962.41138	0.06589
2961.12561	0.06651
2959.83984	0.06706
2958.55407	0.06753
2957.26830	0.06788
2955.98253	0.06807
2954.69676	0.06810
2953.41100	0.06804
2952.12523	0.06802
2950.83946	0.06816
2949.55369	0.06847
2948.26792	0.06885
2946.98215	0.06910
2945.69638	0.06906
2944.41061	0.06871
2943.12484	0.06813
2941.83908	0.06754
2940.55331	0.06727
2939.26754	0.06757
2937.98177	0.06844
2936.69600	0.06957
2935.41023	0.07054
2934.12446	0.07110
2932.83869	0.07122
2931.55293	0.07109
2930.26716	0.07103
2928.98139	0.07129
2927.69562	0.07183
2926.40985	0.07236
2925.12408	0.07262
2923.83831	0.07256
2922.55254	0.07227
2921.26677	0.07181
2919.98101	0.07131
2918.69524	0.07082
2917.40947	0.07038
2916.12370	0.06994
2914.83793	0.06945
2913.55216	0.06890
2912.26639	0.06830
2910.98062	0.06762
2909.69486	0.06685
2908.40909	0.06610
2907.12332	0.06547
2905.83755	0.06500
2904.55178	0.06454
2903.26601	0.06399
2901.98024	0.06341
2900.69447	0.06299
2899.40870	0.06276
2898.12294	0.06261
2896.83717	0.06237
2895.55140	0.06196
2894.26563	0.06141
2892.97986	0.06080
2891.69409	0.06015
2890.40832	0.05950
2889.12255	0.05887
2887.83678	0.05824
2886.55102	0.05764
2885.26525	0.05722
2883.97948	0.05712
2882.69371	0.05732
2881.40794	0.05761
2880.12217	0.05779
2878.83640	0.05790
2877.55063	0.05806
2876.26487	0.05833
2874.97910	0.05867
2873.69333	0.05903
2872.40756	0.05931
2871.12179	0.05937
2869.83602	0.05914
2868.55025	0.05873
2867.26448	0.05833
2865.97871	0.05809
2864.69295	0.05801
2863.40718	0.05799
2862.12141	0.05793
2860.83564	0.05781
2859.54987	0.05770
2858.26410	0.05763
2856.97833	0.05752
2855.69256	0.05723
2854.40680	0.05674
2853.12103	0.05615
2851.83526	0.05561
2850.54949	0.05517
2849.26372	0.05484
2847.97795	0.05459
2846.69218	0.05430
2845.40641	0.05388
2844.12064	0.05333
2842.83488	0.05272
2841.54911	0.05203
2840.26334	0.05125
2838.97757	0.05053
2837.69180	0.05006
2836.40603	0.04983
2835.12026	0.04963
2833.83449	0.04931
2832.54873	0.04887
2831.26296	0.04834
2829.97719	0.04774
2828.69142	0.04710
2827.40565	0.04654
2826.11988	0.04613
2824.83411	0.04584
2823.54834	0.04548
2822.26257	0.04496
2820.97681	0.04441
2819.69104	0.04403
2818.40527	0.04391
2817.11950	0.04394
2815.83373	0.04399
2814.54796	0.04400
2813.26219	0.04399
2811.97642	0.04394
2810.69066	0.04379
2809.40489	0.04353
2808.11912	0.04325
2806.83335	0.04309
2805.54758	0.04308
2804.26181	0.04313
2802.97604	0.04310
2801.69027	0.04290
2800.40450	0.04260
2799.11874	0.04232
2797.83297	0.04209
2796.54720	0.04186
2795.26143	0.04160
2793.97566	0.04139
2792.68989	0.04133
2791.40412	0.04137
2790.11835	0.04134
2788.83259	0.04114
2787.54682	0.04085
2786.26105	0.04065
2784.97528	0.04069
2783.68951	0.04092
2782.40374	0.04113
2781.11797	0.04116
2779.83220	0.04102
2778.54643	0.04084
2777.26067	0.04066
2775.97490	0.04039
2774.68913	0.04002
2773.40336	0.03973
2772.11759	0.03969
2770.83182	0.03984
2769.54605	0.03995
2768.26028	0.03992
2766.97452	0.03981
2765.68875	0.03971
2764.40298	0.03961
2763.11721	0.03945
2761.83144	0.03923
2760.54567	0.03902
2759.25990	0.03891
2757.97413	0.03890
2756.68836	0.03898
2755.40260	0.03908
2754.11683	0.03917
2752.83106	0.03920
2751.54529	0.03914
2750.25952	0.03901
2748.97375	0.03889
2747.68798	0.03878
2746.40221	0.03866
2745.11645	0.03849
2743.83068	0.03829
2742.54491	0.03819
2741.25914	0.03833
2739.97337	0.03870
2738.68760	0.03908
2737.40183	0.03924
2736.11606	0.03911
2734.83029	0.03883
2733.54453	0.03852
2732.25876	0.03821
2730.97299	0.03792
2729.68722	0.03777
2728.40145	0.03790
2727.11568	0.03823
2725.82991	0.03850
2724.54414	0.03847
2723.25838	0.03814
2721.97261	0.03778
2720.68684	0.03764
2719.40107	0.03774
2718.11530	0.03784
2716.82953	0.03769
2715.54376	0.03725
2714.25799	0.03673
2712.97222	0.03634
2711.68646	0.03617
2710.40069	0.03619
2709.11492	0.03636
2707.82915	0.03659
2706.54338	0.03675
2705.25761	0.03674
2703.97184	0.03661
2702.68607	0.03644
2701.40031	0.03625
2700.11454	0.03601
2698.82877	0.03569
2697.54300	0.03538
2696.25723	0.03523
2694.97146	0.03530
2693.68569	0.03554
2692.39992	0.03577
2691.11415	0.03584
2689.82839	0.03577
2688.54262	0.03565
2687.25685	0.03552
2685.97108	0.03542
2684.68531	0.03537
2683.39954	0.03536
2682.11377	0.03528
2680.82800	0.03516
2679.54224	0.03510
2678.25647	0.03518
2676.97070	0.03530
2675.68493	0.03529
2674.39916	0.03508
2673.11339	0.03477
2671.82762	0.03451
2670.54185	0.03439
2669.25608	0.03439
2667.97032	0.03450
2666.68455	0.03472
2665.39878	0.03507
2664.11301	0.03546
2662.82724	0.03574
2661.54147	0.03575
2660.25570	0.03547
2658.96993	0.03504
2657.68417	0.03470
2656.39840	0.03459
2655.11263	0.03468
2653.82686	0.03475
2652.54109	0.03459
2651.25532	0.03418
2649.96955	0.03368
2648.68378	0.03330
2647.39801	0.03309
2646.11225	0.03300
2644.82648	0.03298
2643.54071	0.03299
2642.25494	0.03297
2640.96917	0.03285
2639.68340	0.03261
2638.39763	0.03236
2637.11186	0.03221
2635.82609	0.03223
2634.54033	0.03235
2633.25456	0.03237
2631.96879	0.03218
2630.68302	0.03183
2629.39725	0.03145
2628.11148	0.03116
2626.82571	0.03102
2625.53994	0.03104
2624.25418	0.03126
2622.96841	0.03164
2621.68264	0.03203
2620.39687	0.03214
2619.11110	0.03178
2617.82533	0.03106
2616.53956	0.03035
2615.25379	0.02992
2613.96802	0.02974
2612.68226	0.02970
2611.39649	0.02978
2610.11072	0.02994
2608.82495	0.03000
2607.53918	0.02973
2606.25341	0.02912
2604.96764	0.02834
2603.68187	0.02764
2602.39611	0.02722
2601.11034	0.02724
2599.82457	0.02774
2598.53880	0.02852
2597.25303	0.02924
2595.96726	0.02954
2594.68149	0.02931
2593.39572	0.02866
2592.10995	0.02784
2590.82419	0.02718
2589.53842	0.02695
2588.25265	0.02719
2586.96688	0.02763
2585.68111	0.02786
2584.39534	0.02770
2583.10957	0.02736
2581.82380	0.02722
2580.53804	0.02740
2579.25227	0.02767
2577.96650	0.02767
2576.68073	0.02735
2575.39496	0.02703
2574.10919	0.02698
2572.82342	0.02715
2571.53765	0.02722
2570.25188	0.02705
2568.96612	0.02672
2567.68035	0.02639
2566.39458	0.02615
2565.10881	0.02606
2563.82304	0.02619
2562.53727	0.02643
2561.25150	0.02655
2559.96573	0.02640
2558.67997	0.02605
2557.39420	0.02568
2556.10843	0.02548
2554.82266	0.02557
2553.53689	0.02597
2552.25112	0.02650
2550.96535	0.02685
2549.67958	0.02680
2548.39381	0.02647
2547.10805	0.02618
2545.82228	0.02613
2544.53651	0.02624
2543.25074	0.02638
2541.96497	0.02642
2540.67920	0.02638
2539.39343	0.02628
2538.10766	0.02616
2536.82190	0.02608
2535.53613	0.02605
2534.25036	0.02607
2532.96459	0.02610
2531.67882	0.02609
2530.39305	0.02605
2529.10728	0.02605
2527.82151	0.02619
2526.53574	0.02643
2525.24998	0.02652
2523.96421	0.02623
2522.67844	0.02562
2521.39267	0.02507
2520.10690	0.02497
2518.82113	0.02532
2517.53536	0.02574
2516.24959	0.02585
2514.96383	0.02552
2513.67806	0.02492
2512.39229	0.02426
2511.10652	0.02367
2509.82075	0.02324
2508.53498	0.02312
2507.24921	0.02341
2505.96344	0.02398
2504.67767	0.02459
2503.39191	0.02506
2502.10614	0.02535
2500.82037	0.02546
2499.53460	0.02537
2498.24883	0.02509
2496.96306	0.02471
2495.67729	0.02434
2494.39152	0.02405
2493.10576	0.02387
2491.81999	0.02381
2490.53422	0.02389
2489.24845	0.02405
2487.96268	0.02413
2486.67691	0.02401
2485.39114	0.02374
2484.10537	0.02356
2482.81960	0.02366
2481.53384	0.02399
2480.24807	0.02427
2478.96230	0.02427
2477.67653	0.02399
2476.39076	0.02365
2475.10499	0.02344
2473.81922	0.02348
2472.53345	0.02381
2471.24769	0.02426
2469.96192	0.02453
2468.67615	0.02444
2467.39038	0.02408
2466.10461	0.02376
2464.81884	0.02370
2463.53307	0.02388
2462.24730	0.02408
2460.96153	0.02410
2459.67577	0.02392
2458.39000	0.02372
2457.10423	0.02367
2455.81846	0.02382
2454.53269	0.02406
2453.24692	0.02418
2451.96115	0.02397
2450.67538	0.02346
2449.38962	0.02296
2448.10385	0.02277
2446.81808	0.02291
2445.53231	0.02318
2444.24654	0.02342
2442.96077	0.02356
2441.67500	0.02351
2440.38923	0.02327
2439.10346	0.02298
2437.81770	0.02276
2436.53193	0.02262
2435.24616	0.02255
2433.96039	0.02251
2432.67462	0.02245
2431.38885	0.02239
2430.10308	0.02240
2428.81731	0.02243
2427.53155	0.02237
2426.24578	0.02219
2424.96001	0.02208
2423.67424	0.02224
2422.38847	0.02261
2421.10270	0.02291
2419.81693	0.02297
2418.53116	0.02284
2417.24539	0.02269
2415.95963	0.02264
2414.67386	0.02266
2413.38809	0.02267
2412.10232	0.02258
2410.81655	0.02230
2409.53078	0.02185
2408.24501	0.02137
2406.95924	0.02105
2405.67347	0.02100
2404.38771	0.02117
2403.10194	0.02144
2401.81617	0.02180
2400.53040	0.02232
2399.24463	0.02286
2397.95886	0.02321
2396.67309	0.02318
2395.38732	0.02279
2394.10156	0.02233
2392.81579	0.02203
2391.53002	0.02196
2390.24425	0.02205
2388.95848	0.02221
2387.67271	0.02243
2386.38694	0.02268
2385.10117	0.02297
2383.81540	0.02330
2382.52964	0.02361
2381.24387	0.02385
2379.95810	0.02396
2378.67233	0.02403
2377.38656	0.02425
2376.10079	0.02469
2374.81502	0.02518
2373.52925	0.02587
2372.24349	0.02666
2370.95772	0.02796
2369.67195	0.02899
2368.38618	0.02969
2367.10041	0.03038
2365.81464	0.03134
2364.52887	0.03158
2363.24310	0.03153
2361.95733	0.03174
2360.67157	0.03260
2359.38580	0.03267
2358.10003	0.03234
2356.81426	0.03179
2355.52849	0.03102
2354.24272	0.03025
2352.95695	0.02913
2351.67118	0.02845
2350.38542	0.02863
2349.09965	0.02850
2347.81388	0.02731
2346.52811	0.02711
2345.24234	0.02822
2343.95657	0.02915
2342.67080	0.02862
2341.38503	0.02870
2340.09926	0.03003
2338.81350	0.02998
2337.52773	0.02847
2336.24196	0.02847
2334.95619	0.02984
2333.67042	0.02976
2332.38465	0.02789
2331.09888	0.02899
2329.81311	0.03047
2328.52735	0.02827
2327.24158	0.02891
2325.95581	0.03104
2324.67004	0.02949
2323.38427	0.02880
2322.09850	0.02973
2320.81273	0.02733
2319.52696	0.02653
2318.24119	0.02694
2316.95543	0.02541
2315.66966	0.02538
2314.38389	0.02579
2313.09812	0.02508
2311.81235	0.02534
2310.52658	0.02474
2309.24081	0.02383
2307.95504	0.02335
2306.66928	0.02220
2305.38351	0.02181
2304.09774	0.02181
2302.81197	0.02185
2301.52620	0.02221
2300.24043	0.02223
2298.95466	0.02228
2297.66889	0.02213
2296.38312	0.02189
2295.09736	0.02172
2293.81159	0.02152
2292.52582	0.02147
2291.24005	0.02148
2289.95428	0.02165
2288.66851	0.02186
2287.38274	0.02196
2286.09697	0.02180
2284.81121	0.02132
2283.52544	0.02065
2282.23967	0.02002
2280.95390	0.01966
2279.66813	0.01962
2278.38236	0.01974
2277.09659	0.01969
2275.81082	0.01924
2274.52505	0.01846
2273.23929	0.01769
2271.95352	0.01734
2270.66775	0.01751
2269.38198	0.01788
2268.09621	0.01810
2266.81044	0.01818
2265.52467	0.01826
2264.23890	0.01839
2262.95314	0.01856
2261.66737	0.01883
2260.38160	0.01909
2259.09583	0.01907
2257.81006	0.01860
2256.52429	0.01777
2255.23852	0.01691
2253.95275	0.01636
2252.66698	0.01609
2251.38122	0.01591
2250.09545	0.01577
2248.80968	0.01575
2247.52391	0.01607
2246.23814	0.01622
2244.95237	0.01586
2243.66660	0.01523
2242.38083	0.01486
2241.09507	0.01502
2239.80930	0.01544
2238.52353	0.01575
2237.23776	0.01592
2235.95199	0.01617
2234.66622	0.01639
2233.38045	0.01623
2232.09468	0.01561
2230.80891	0.01489
2229.52315	0.01444
2228.23738	0.01420
2226.95161	0.01393
2225.66584	0.01356
2224.38007	0.01330
2223.09430	0.01327
2221.80853	0.01335
2220.52276	0.01333
2219.23700	0.01301
2217.95123	0.01227
2216.66546	0.01113
2215.37969	0.00991
2214.09392	0.00914
2212.80815	0.00923
2211.52238	0.01002
2210.23661	0.01088
2208.95084	0.01135
2207.66508	0.01154
2206.37931	0.01177
2205.09354	0.01209
2203.80777	0.01229
2202.52200	0.01223
2201.23623	0.01188
2199.95046	0.01128
2198.66469	0.01077
2197.37893	0.01078
2196.09316	0.01116
2194.80739	0.01114
2193.52162	0.01025
2192.23585	0.00923
2190.95008	0.00924
2189.66431	0.01054
2188.37854	0.01215
2187.09277	0.01285
2185.80701	0.01223
2184.52124	0.01088
2183.23547	0.00990
2181.94970	0.00996
2180.66393	0.01074
2179.37816	0.01121
2178.09239	0.01055
2176.80662	0.00904
2175.52085	0.00791
2174.23509	0.00820
2172.94932	0.00971
2171.66355	0.01105
2170.37778	0.01098
2169.09201	0.00953
2167.80624	0.00781
2166.52047	0.00694
2165.23470	0.00716
2163.94894	0.00777
2162.66317	0.00770
2161.37740	0.00625
2160.09163	0.00389
2158.80586	0.00229
2157.52009	0.00291
2156.23432	0.00540
2154.94855	0.00794
2153.66278	0.00907
2152.37702	0.00886
2151.09125	0.00825
2149.80548	0.00778
2148.51971	0.00728
2147.23394	0.00655
2145.94817	0.00589
2144.66240	0.00572
2143.37663	0.00609
2142.09087	0.00679
2140.80510	0.00758
2139.51933	0.00830
2138.23356	0.00879
2136.94779	0.00886
2135.66202	0.00851
2134.37625	0.00803
2133.09048	0.00796
2131.80471	0.00867
2130.51895	0.00996
2129.23318	0.01114
2127.94741	0.01163
2126.66164	0.01153
2125.37587	0.01132
2124.09010	0.01130
2122.80433	0.01136
2121.51856	0.01136
2120.23280	0.01143
2118.94703	0.01177
2117.66126	0.01241
2116.37549	0.01317
2115.08972	0.01374
2113.80395	0.01390
2112.51818	0.01364
2111.23241	0.01325
2109.94664	0.01298
2108.66088	0.01278
2107.37511	0.01242
2106.08934	0.01191
2104.80357	0.01143
2103.51780	0.01108
2102.23203	0.01080
2100.94626	0.01059
2099.66049	0.01192
2098.37473	0.01242
2097.08896	0.01207
2095.80319	0.01150
2094.51742	0.01098
2093.23165	0.01058
2091.94588	0.01027
2090.66011	0.01000
2089.37434	0.00981
2088.08857	0.00984
2086.80281	0.01015
2085.51704	0.01061
2084.23127	0.01093
2082.94550	0.01093
2081.65973	0.01084
2080.37396	0.01103
2079.08819	0.01160
2077.80242	0.01214
2076.51666	0.01217
2075.23089	0.01164
2073.94512	0.01097
2072.65935	0.01067
2071.37358	0.01098
2070.08781	0.01172
2068.80204	0.01246
2067.51627	0.01276
2066.23050	0.01248
2064.94474	0.01177
2063.65897	0.01079
2062.37320	0.00970
2061.08743	0.00869
2059.80166	0.00802
2058.51589	0.00777
2057.23012	0.00760
2055.94435	0.00717
2054.65859	0.00655
2053.37282	0.00625
2052.08705	0.00669
2050.80128	0.00766
2049.51551	0.00851
2048.22974	0.00879
2046.94397	0.00863
2045.65820	0.00842
2044.37243	0.00828
2043.08667	0.00802
2041.80090	0.00745
2040.51513	0.00677
2039.22936	0.00643
2037.94359	0.00680
2036.65782	0.00771
2035.37205	0.00848
2034.08628	0.00858
2032.80052	0.00809
2031.51475	0.00748
2030.22898	0.00687
2028.94321	0.00602
2027.65744	0.00487
2026.37167	0.00385
2025.08590	0.00339
2023.80013	0.00347
2022.51436	0.00369
2021.22860	0.00385
2019.94283	0.00403
2018.65706	0.00435
2017.37129	0.00477
2016.08552	0.00514
2014.79975	0.00535
2013.51398	0.00544
2012.22821	0.00569
2010.94245	0.00647
2009.65668	0.00786
2008.37091	0.00940
2007.08514	0.01023
2005.79937	0.00971
2004.51360	0.00791
2003.22783	0.00570
2001.94206	0.00421
2000.65629	0.00402
1999.37053	0.00476
1998.08476	0.00554
1996.79899	0.00577
1995.51322	0.00550
1994.22745	0.00511
1992.94168	0.00479
1991.65591	0.00459
1990.37014	0.00473
1989.08438	0.00541
1987.79861	0.00646
1986.51284	0.00734
1985.22707	0.00770
1983.94130	0.00772
1982.65553	0.00788
1981.36976	0.00856
1980.08399	0.00975
1978.79822	0.01111
1977.51246	0.01207
1976.22669	0.01214
1974.94092	0.01132
1973.65515	0.01027
1972.36938	0.00969
1971.08361	0.00975
1969.79784	0.01004
1968.51207	0.01006
1967.22631	0.00978
1965.94054	0.00945
1964.65477	0.00934
1963.36900	0.00948
1962.08323	0.00986
1960.79746	0.01042
1959.51169	0.01103
1958.22592	0.01143
1956.94015	0.01137
1955.65439	0.01080
1954.36862	0.01002
1953.08285	0.00944
1951.79708	0.00933
1950.51131	0.00964
1949.22554	0.01012
1947.93977	0.01055
1946.65400	0.01081
1945.36823	0.01087
1944.08247	0.01077
1942.79670	0.01064
1941.51093	0.01063
1940.22516	0.01076
1938.93939	0.01087
1937.65362	0.01070
1936.36785	0.01032
1935.08208	0.01010
1933.79632	0.01036
1932.51055	0.01097
1931.22478	0.01149
1929.93901	0.01168
1928.65324	0.01166
1927.36747	0.01165
1926.08170	0.01167
1924.79593	0.01167
1923.51016	0.01162
1922.22440	0.01166
1920.93863	0.01192
1919.65286	0.01243
1918.36709	0.01301
1917.08132	0.01339
1915.79555	0.01337
1914.50978	0.01300
1913.22401	0.01258
1911.93825	0.01240
1910.65248	0.01254
1909.36671	0.01285
1908.08094	0.01315
1906.79517	0.01331
1905.50940	0.01331
1904.22363	0.01321
1902.93786	0.01310
1901.65209	0.01314
1900.36633	0.01340
1899.08056	0.01373
1897.79479	0.01386
1896.50902	0.01355
1895.22325	0.01287
1893.93748	0.01222
1892.65171	0.01200
1891.36594	0.01220
1890.08018	0.01253
1888.79441	0.01275
1887.50864	0.01285
1886.22287	0.01298
1884.93710	0.01310
1883.65133	0.01310
1882.36556	0.01289
1881.07979	0.01256
1879.79402	0.01231
1878.50826	0.01231
1877.22249	0.01252
1875.93672	0.01275
1874.65095	0.01284
1873.36518	0.01276
1872.07941	0.01259
1870.79364	0.01241
1869.50787	0.01230
1868.22211	0.01244
1866.93634	0.01291
1865.65057	0.01357
1864.36480	0.01408
1863.07903	0.01409
1861.79326	0.01359
1860.50749	0.01297
1859.22172	0.01264
1857.93595	0.01270
1856.65019	0.01292
1855.36442	0.01298
1854.07865	0.01284
1852.79288	0.01267
1851.50711	0.01263
1850.22134	0.01274
1848.93557	0.01294
1847.64980	0.01315
1846.36404	0.01328
1845.07827	0.01324
1843.79250	0.01310
1842.50673	0.01297
1841.22096	0.01294
1839.93519	0.01302
1838.64942	0.01318
1837.36365	0.01335
1836.07788	0.01347
1834.79212	0.01357
1833.50635	0.01365
1832.22058	0.01371
1830.93481	0.01377
1829.64904	0.01382
1828.36327	0.01385
1827.07750	0.01384
1825.79173	0.01390
1824.50597	0.01411
1823.22020	0.01439
1821.93443	0.01459
1820.64866	0.01464
1819.36289	0.01451
1818.07712	0.01420
1816.79135	0.01376
1815.50558	0.01334
1814.21981	0.01309
1812.93405	0.01303
1811.64828	0.01308
1810.36251	0.01314
1809.07674	0.01316
1807.79097	0.01311
1806.50520	0.01303
1805.21943	0.01303
1803.93366	0.01317
1802.64790	0.01341
1801.36213	0.01362
1800.07636	0.01371
1798.79059	0.01367
1797.50482	0.01359
1796.21905	0.01359
1794.93328	0.01370
1793.64751	0.01384
1792.36174	0.01395
1791.07598	0.01402
1789.79021	0.01411
1788.50444	0.01425
1787.21867	0.01447
1785.93290	0.01469
1784.64713	0.01483
1783.36136	0.01488
1782.07559	0.01483
1780.78983	0.01471
1779.50406	0.01455
1778.21829	0.01442
1776.93252	0.01439
1775.64675	0.01450
1774.36098	0.01463
1773.07521	0.01471
1771.78944	0.01477
1770.50367	0.01478
1769.21791	0.01474
1767.93214	0.01473
1766.64637	0.01482
1765.36060	0.01496
1764.07483	0.01503
1762.78906	0.01504
1761.50329	0.01508
1760.21752	0.01512
1758.93176	0.01509
1757.64599	0.01497
1756.36022	0.01491
1755.07445	0.01501
1753.78868	0.01518
1752.50291	0.01535
1751.21714	0.01550
1749.93137	0.01559
1748.64560	0.01557
1747.35984	0.01548
1746.07407	0.01541
1744.78830	0.01542
1743.50253	0.01551
1742.21676	0.01560
1740.93099	0.01565
1739.64522	0.01573
1738.35945	0.01594
1737.07369	0.01621
1735.78792	0.01640
1734.50215	0.01652
1733.21638	0.01666
1731.93061	0.01676
1730.64484	0.01673
1729.35907	0.01668
1728.07330	0.01673
1726.78753	0.01688
1725.50177	0.01703
1724.21600	0.01717
1722.93023	0.01740
1721.64446	0.01776
1720.35869	0.01819
1719.07292	0.01859
1717.78715	0.01895
1716.50138	0.01923
1715.21561	0.01938
1713.92985	0.01946
1712.64408	0.01960
1711.35831	0.01992
1710.07254	0.02039
1708.78677	0.02093
1707.50100	0.02145
1706.21523	0.02197
1704.92946	0.02259
1703.64370	0.02335
1702.35793	0.02412
1701.07216	0.02487
1699.78639	0.02571
1698.50062	0.02651
1697.21485	0.02703
1695.92908	0.02733
1694.64331	0.02766
1693.35754	0.02803
1692.07178	0.02834
1690.78601	0.02874
1689.50024	0.02942
1688.21447	0.03033
1686.92870	0.03121
1685.64293	0.03192
1684.35716	0.03257
1683.07139	0.03324
1681.78563	0.03382
1680.49986	0.03427
1679.21409	0.03474
1677.92832	0.03530
1676.64255	0.03591
1675.35678	0.03657
1674.07101	0.03731
1672.78524	0.03802
1671.49947	0.03858
1670.21371	0.03902
1668.92794	0.03948
1667.64217	0.03998
1666.35640	0.04049
1665.07063	0.04099
1663.78486	0.04151
1662.49909	0.04206
1661.21332	0.04258
1659.92756	0.04303
1658.64179	0.04351
1657.35602	0.04414
1656.07025	0.04482
1654.78448	0.04533
1653.49871	0.04567
1652.21294	0.04600
1650.92717	0.04627
1649.64140	0.04632
1648.35564	0.04617
1647.06987	0.04603
1645.78410	0.04599
1644.49833	0.04595
1643.21256	0.04582
1641.92679	0.04567
1640.64102	0.04564
1639.35525	0.04576
1638.06949	0.04588
1636.78372	0.04586
1635.49795	0.04571
1634.21218	0.04549
1632.92641	0.04519
1631.64064	0.04479
1630.35487	0.04438
1629.06910	0.04405
1627.78333	0.04380
1626.49757	0.04360
1625.21180	0.04337
1623.92603	0.04309
1622.64026	0.04287
1621.35449	0.04278
1620.06872	0.04277
1618.78295	0.04272
1617.49718	0.04260
1616.21142	0.04246
1614.92565	0.04231
1613.63988	0.04211
1612.35411	0.04189
1611.06834	0.04174
1609.78257	0.04167
1608.49680	0.04163
1607.21103	0.04162
1605.92526	0.04167
1604.63950	0.04178
1603.35373	0.04193
1602.06796	0.04206
1600.78219	0.04215
1599.49642	0.04221
1598.21065	0.04226
1596.92488	0.04235
1595.63911	0.04250
1594.35335	0.04271
1593.06758	0.04294
1591.78181	0.04316
1590.49604	0.04335
1589.21027	0.04353
1587.92450	0.04373
1586.63873	0.04396
1585.35296	0.04420
1584.06719	0.04448
1582.78143	0.04483
1581.49566	0.04526
1580.20989	0.04576
1578.92412	0.04623
1577.63835	0.04657
1576.35258	0.04683
1575.06681	0.04713
1573.78104	0.04741
1572.49528	0.04761
1571.20951	0.04778
1569.92374	0.04805
1568.63797	0.04841
1567.35220	0.04873
1566.06643	0.04896
1564.78066	0.04925
1563.49489	0.04970
1562.20912	0.05023
1560.92336	0.05067
1559.63759	0.05099
1558.35182	0.05127
1557.06605	0.05145
1555.78028	0.05142
1554.49451	0.05129
1553.20874	0.05125
1551.92297	0.05131
1550.63721	0.05136
1549.35144	0.05141
1548.06567	0.05148
1546.77990	0.05157
1545.49413	0.05173
1544.20836	0.05200
1542.92259	0.05229
1541.63682	0.05245
1540.35105	0.05240
1539.06529	0.05226
1537.77952	0.05214
1536.49375	0.05202
1535.20798	0.05190
1533.92221	0.05186
1532.63644	0.05197
1531.35067	0.05222
1530.06490	0.05256
1528.77914	0.05304
1527.49337	0.05367
1526.20760	0.05442
1524.92183	0.05522
1523.63606	0.05599
1522.35029	0.05669
1521.06452	0.05743
1519.77875	0.05828
1518.49298	0.05916
1517.20722	0.06007
1515.92145	0.06108
1514.63568	0.06220
1513.34991	0.06336
1512.06414	0.06461
1510.77837	0.06603
1509.49260	0.06755
1508.20683	0.06902
1506.92107	0.07037
1505.63530	0.07165
1504.34953	0.07283
1503.06376	0.07385
1501.77799	0.07478
1500.49222	0.07574
1499.20645	0.07672
1497.92068	0.07763
1496.63491	0.07843
1495.34915	0.07917
1494.06338	0.07986
1492.77761	0.08052
1491.49184	0.08125
1490.20607	0.08215
1488.92030	0.08323
1487.63453	0.08439
1486.34876	0.08560
1485.06299	0.08685
1483.77723	0.08813
1482.49146	0.08944
1481.20569	0.09080
1479.91992	0.09220
1478.63415	0.09365
1477.34838	0.09511
1476.06261	0.09652
1474.77684	0.09777
1473.49108	0.09879
1472.20531	0.09960
1470.91954	0.10027
1469.63377	0.10084
1468.34800	0.10132
1467.06223	0.10170
1465.77646	0.10199
1464.49069	0.10223
1463.20492	0.10248
1461.91916	0.10281
1460.63339	0.10333
1459.34762	0.10404
1458.06185	0.10489
1456.77608	0.10577
1455.49031	0.10655
1454.20454	0.10711
1452.91877	0.10749
1451.63301	0.10784
1450.34724	0.10825
1449.06147	0.10867
1447.77570	0.10902
1446.48993	0.10921
1445.20416	0.10913
1443.91839	0.10879
1442.63262	0.10827
1441.34685	0.10771
1440.06109	0.10716
1438.77532	0.10661
1437.48955	0.10613
1436.20378	0.10585
1434.91801	0.10582
1433.63224	0.10603
1432.34647	0.10648
1431.06070	0.10724
1429.77494	0.10829
1428.48917	0.10957
1427.20340	0.11098
1425.91763	0.11249
1424.63186	0.11409
1423.34609	0.11577
1422.06032	0.11745
1420.77455	0.11901
1419.48878	0.12043
1418.20302	0.12169
1416.91725	0.12268
1415.63148	0.12336
1414.34571	0.12377
1413.05994	0.12398
1411.77417	0.12397
1410.48840	0.12375
1409.20263	0.12333
1407.91687	0.12270
1406.63110	0.12183
1405.34533	0.12071
1404.05956	0.11934
1402.77379	0.11778
1401.48802	0.11603
1400.20225	0.11412
1398.91648	0.11203
1397.63071	0.10979
1396.34495	0.10739
1395.05918	0.10489
1393.77341	0.10242
1392.48764	0.10002
1391.20187	0.09772
1389.91610	0.09549
1388.63033	0.09334
1387.34456	0.09126
1386.05880	0.08920
1384.77303	0.08710
1383.48726	0.08494
1382.20149	0.08276
1380.91572	0.08058
1379.62995	0.07842
1378.34418	0.07624
1377.05841	0.07397
1375.77264	0.07158
1374.48688	0.06911
1373.20111	0.06668
1371.91534	0.06435
1370.62957	0.06214
1369.34380	0.06002
1368.05803	0.05803
1366.77226	0.05620
1365.48649	0.05451
1364.20073	0.05291
1362.91496	0.05135
1361.62919	0.04983
1360.34342	0.04835
1359.05765	0.04694
1357.77188	0.04562
1356.48611	0.04443
1355.20034	0.04336
1353.91457	0.04241
1352.62881	0.04154
1351.34304	0.04072
1350.05727	0.03991
1348.77150	0.03913
1347.48573	0.03841
1346.19996	0.03778
1344.91419	0.03723
1343.62842	0.03672
1342.34266	0.03622
1341.05689	0.03570
1339.77112	0.03517
1338.48535	0.03467
1337.19958	0.03423
1335.91381	0.03384
1334.62804	0.03348
1333.34227	0.03312
1332.05650	0.03269
1330.77074	0.03221
1329.48497	0.03173
1328.19920	0.03131
1326.91343	0.03094
1325.62766	0.03061
1324.34189	0.03033
1323.05612	0.03008
1321.77035	0.02987
1320.48459	0.02965
1319.19882	0.02941
1317.91305	0.02912
1316.62728	0.02878
1315.34151	0.02840
1314.05574	0.02804
1312.76997	0.02772
1311.48420	0.02747
1310.19843	0.02725
1308.91267	0.02703
1307.62690	0.02681
1306.34113	0.02658
1305.05536	0.02634
1303.76959	0.02608
1302.48382	0.02582
1301.19805	0.02555
1299.91228	0.02532
1298.62652	0.02511
1297.34075	0.02492
1296.05498	0.02476
1294.76921	0.02463
1293.48344	0.02452
1292.19767	0.02441
1290.91190	0.02430
1289.62613	0.02421
1288.34036	0.02412
1287.05460	0.02401
1285.76883	0.02387
1284.48306	0.02373
1283.19729	0.02358
1281.91152	0.02342
1280.62575	0.02326
1279.33998	0.02313
1278.05421	0.02306
1276.76845	0.02303
1275.48268	0.02297
1274.19691	0.02286
1272.91114	0.02272
1271.62537	0.02257
1270.33960	0.02244
1269.05383	0.02232
1267.76806	0.02221
1266.48229	0.02211
1265.19653	0.02202
1263.91076	0.02194
1262.62499	0.02187
1261.33922	0.02181
1260.05345	0.02177
1258.76768	0.02174
1257.48191	0.02171
1256.19614	0.02168
1254.91037	0.02163
1253.62461	0.02158
1252.33884	0.02151
1251.05307	0.02143
1249.76730	0.02136
1248.48153	0.02129
1247.19576	0.02124
1245.90999	0.02119
1244.62422	0.02112
1243.33846	0.02103
1242.05269	0.02093
1240.76692	0.02083
1239.48115	0.02077
1238.19538	0.02076
1236.90961	0.02077
1235.62384	0.02075
1234.33807	0.02066
1233.05230	0.02052
1231.76654	0.02035
1230.48077	0.02019
1229.19500	0.02004
1227.90923	0.01989
1226.62346	0.01975
1225.33769	0.01960
1224.05192	0.01946
1222.76615	0.01932
1221.48039	0.01921
1220.19462	0.01913
1218.90885	0.01908
1217.62308	0.01906
1216.33731	0.01906
1215.05154	0.01907
1213.76577	0.01908
1212.48000	0.01907
1211.19423	0.01905
1209.90847	0.01900
1208.62270	0.01895
1207.33693	0.01893
1206.05116	0.01896
1204.76539	0.01904
1203.47962	0.01913
1202.19385	0.01918
1200.90808	0.01910
1199.62232	0.01885
1198.33655	0.01883
1197.05078	0.01882
1195.76501	0.01876
1194.47924	0.01865
1193.19347	0.01854
1191.90770	0.01845
1190.62193	0.01840
1189.33616	0.01841
1188.05040	0.01849
1186.76463	0.01858
1185.47886	0.01864
1184.19309	0.01867
1182.90732	0.01868
1181.62155	0.01867
1180.33578	0.01863
1179.05001	0.01857
1177.76425	0.01852
1176.47848	0.01852
1175.19271	0.01859
1173.90694	0.01870
1172.62117	0.01879
1171.33540	0.01883
1170.04963	0.01881
1168.76386	0.01882
1167.47809	0.01889
1166.19233	0.01902
1164.90656	0.01921
1163.62079	0.01942
1162.33502	0.01959
1161.04925	0.01969
1159.76348	0.01976
1158.47771	0.01986
1157.19194	0.02004
1155.90618	0.02030
1154.62041	0.02059
1153.33464	0.02091
1152.04887	0.02128
1150.76310	0.02171
1149.47733	0.02218
1148.19156	0.02264
1146.90579	0.02306
1145.62002	0.02346
1144.33426	0.02391
1143.04849	0.02444
1141.76272	0.02512
1140.47695	0.02595
1139.19118	0.02695
1137.90541	0.02808
1136.61964	0.02931
1135.33387	0.03065
1134.04811	0.03213
1132.76234	0.03378
1131.47657	0.03559
1130.19080	0.03756
1128.90503	0.03972
1127.61926	0.04212
1126.33349	0.04481
1125.04772	0.04776
1123.76195	0.05086
1122.47619	0.05403
1121.19042	0.05721
1119.90465	0.06043
1118.61888	0.06374
1117.33311	0.06715
1116.04734	0.07060
1114.76157	0.07403
1113.47580	0.07739
1112.19004	0.08067
1110.90427	0.08390
1109.61850	0.08705
1108.33273	0.09013
1107.04696	0.09317
1105.76119	0.09619
1104.47542	0.09923
1103.18965	0.10223
1101.90388	0.10515
1100.61812	0.10796
1099.33235	0.11061
1098.04658	0.11306
1096.76081	0.11536
1095.47504	0.11758
1094.18927	0.11980
1092.90350	0.12201
1091.61773	0.12412
1090.33197	0.12608
1089.04620	0.12790
1087.76043	0.12964
1086.47466	0.13135
1085.18889	0.13303
1083.90312	0.13472
1082.61735	0.13649
1081.33158	0.13842
1080.04581	0.14056
1078.76005	0.14291
1077.47428	0.14542
1076.18851	0.14803
1074.90274	0.15068
1073.61697	0.15341
1072.33120	0.15629
1071.04543	0.15934
1069.75966	0.16249
1068.47390	0.16569
1067.18813	0.16893
1065.90236	0.17225
1064.61659	0.17571
1063.33082	0.17930
1062.04505	0.18297
1060.75928	0.18661
1059.47351	0.19014
1058.18774	0.19351
1056.90198	0.19677
1055.61621	0.19995
1054.33044	0.20315
1053.04467	0.20640
1051.75890	0.20971
1050.47313	0.21305
1049.18736	0.21640
1047.90159	0.21979
1046.61583	0.22328
1045.33006	0.22688
1044.04429	0.23054
1042.75852	0.23418
1041.47275	0.23779
1040.18698	0.24144
1038.90121	0.24520
1037.61544	0.24904
1036.32967	0.25294
1035.04391	0.25684
1033.75814	0.26065
1032.47237	0.26426
1031.18660	0.26759
1029.90083	0.27064
1028.61506	0.27342
1027.32929	0.27591
1026.04352	0.27808
1024.75775	0.27983
1023.47199	0.28113
1022.18622	0.28198
1020.90045	0.28240
1019.61468	0.28242
1018.32891	0.28202
1017.04314	0.28119
1015.75737	0.27991
1014.47160	0.27817
1013.18584	0.27590
1011.90007	0.27302
1010.61430	0.26947
1009.32853	0.26528
1008.04276	0.26054
1006.75699	0.25530
1005.47122	0.24956
1004.18545	0.24337
1002.89968	0.23681
1001.61392	0.22994
1000.32815	0.22276
999.04238	0.21528
997.75661	0.20760
996.47084	0.19990
995.18507	0.19232
993.89930	0.18488
992.61353	0.17750
991.32777	0.17022
990.04200	0.16317
988.75623	0.15649
987.47046	0.15018
986.18469	0.14418
984.89892	0.13844
983.61315	0.13300
982.32738	0.12786
981.04161	0.12304
979.75585	0.11854
978.47008	0.11440
977.18431	0.11063
975.89854	0.10731
974.61277	0.10447
973.32700	0.10212
972.04123	0.10030
970.75546	0.09906
969.46970	0.09847
968.18393	0.09854
966.89816	0.09919
965.61239	0.10025
964.32662	0.10151
963.04085	0.10272
961.75508	0.10362
960.46931	0.10398
959.18354	0.10363
957.89778	0.10251
956.61201	0.10062
955.32624	0.09811
954.04047	0.09519
952.75470	0.09218
951.46893	0.08929
950.18316	0.08661
948.89739	0.08404
947.61163	0.08148
946.32586	0.07890
945.04009	0.07637
943.75432	0.07394
942.46855	0.07161
941.18278	0.06939
939.89701	0.06732
938.61124	0.06543
937.32547	0.06373
936.03971	0.06217
934.75394	0.06072
933.46817	0.05939
932.18240	0.05817
930.89663	0.05702
929.61086	0.05592
928.32509	0.05490
927.03932	0.05397
925.75356	0.05308
924.46779	0.05216
923.18202	0.05122
921.89625	0.05033
920.61048	0.04956
919.32471	0.04892
918.03894	0.04834
916.75317	0.04774
915.46740	0.04705
914.18164	0.04629
912.89587	0.04555
911.61010	0.04493
910.32433	0.04445
909.03856	0.04401
907.75279	0.04352
906.46702	0.04299
905.18125	0.04251
903.89549	0.04212
902.60972	0.04176
901.32395	0.04138
900.03818	0.04102
898.75241	0.04075
897.46664	0.04059
896.18087	0.04050
894.89510	0.04040
893.60933	0.04024
892.32357	0.04005
891.03780	0.03995
889.75203	0.04009
888.46626	0.04064
887.18049	0.04173
885.89472	0.04351
884.60895	0.04616
883.32318	0.04968
882.03742	0.05376
880.75165	0.05777
879.46588	0.06103
878.18011	0.06330
876.89434	0.06494
875.60857	0.06651
874.32280	0.06821
873.03703	0.06970
871.75126	0.07041
870.46550	0.07001
869.17973	0.06854
867.89396	0.06622
866.60819	0.06328
865.32242	0.05997
864.03665	0.05660
862.75088	0.05346
861.46511	0.05072
860.17935	0.04841
858.89358	0.04647
857.60781	0.04488
856.32204	0.04361
855.03627	0.04264
853.75050	0.04190
852.46473	0.04129
851.17896	0.04073
849.89319	0.04021
848.60743	0.03973
847.32166	0.03929
846.03589	0.03889
844.75012	0.03852
843.46435	0.03820
842.17858	0.03792
840.89281	0.03764
839.60704	0.03729
838.32128	0.03687
837.03551	0.03641
835.74974	0.03600
834.46397	0.03573
833.17820	0.03561
831.89243	0.03557
830.60666	0.03551
829.32089	0.03540
828.03512	0.03526
826.74936	0.03512
825.46359	0.03502
824.17782	0.03493
822.89205	0.03481
821.60628	0.03467
820.32051	0.03455
819.03474	0.03449
817.74897	0.03448
816.46321	0.03447
815.17744	0.03443
813.89167	0.03435
812.60590	0.03426
811.32013	0.03419
810.03436	0.03411
808.74859	0.03400
807.46282	0.03386
806.17705	0.03373
804.89129	0.03359
803.60552	0.03345
802.31975	0.03333
801.03398	0.03326
799.74821	0.03327
798.46244	0.03332
797.17667	0.03339
795.89090	0.03346
794.60513	0.03351
793.31937	0.03351
792.03360	0.03347
790.74783	0.03342
789.46206	0.03336
788.17629	0.03327
786.89052	0.03313
785.60475	0.03297
784.31898	0.03286
783.03322	0.03283
781.74745	0.03283
780.46168	0.03284
779.17591	0.03281
777.89014	0.03274
776.60437	0.03266
775.31860	0.03262
774.03283	0.03263
772.74706	0.03266
771.46130	0.03267
770.17553	0.03268
768.88976	0.03269
767.60399	0.03271
766.31822	0.03273
765.03245	0.03278
763.74668	0.03288
762.46091	0.03305
761.17515	0.03325
759.88938	0.03344
758.60361	0.03357
757.31784	0.03361
756.03207	0.03354
754.74630	0.03341
753.46053	0.03326
752.17476	0.03311
750.88899	0.03294
749.60323	0.03279
748.31746	0.03270
747.03169	0.03271
745.74592	0.03278
744.46015	0.03283
743.17438	0.03280
741.88861	0.03269
740.60284	0.03254
739.31708	0.03241
738.03131	0.03234
736.74554	0.03230
735.45977	0.03226
734.17400	0.03220
732.88823	0.03212
731.60246	0.03201
730.31669	0.03193
729.03092	0.03199
727.74516	0.03219
726.45939	0.03250
725.17362	0.03281
723.88785	0.03310
722.60208	0.03322
721.31631	0.03318
720.03054	0.03309
718.74477	0.03305
717.45901	0.03302
716.17324	0.03304
714.88747	0.03304
713.60170	0.03297
712.31593	0.03283
711.03016	0.03268
709.74439	0.03260
708.45862	0.03258
707.17285	0.03261
705.88709	0.03265
704.60132	0.03268
703.31555	0.03271
702.02978	0.03274
700.74401	0.03279
699.45824	0.03285
698.17247	0.03288
696.88670	0.03285
695.60094	0.03278
694.31517	0.03273
693.02940	0.03272
691.74363	0.03272
690.45786	0.03272
689.17209	0.03273
687.88632	0.03275
686.60055	0.03275
685.31478	0.03270
684.02902	0.03265
682.74325	0.03264
681.45748	0.03266
680.17171	0.03267
678.88594	0.03264
677.60017	0.03259
676.31440	0.03259
675.02863	0.03263
673.74287	0.03272
672.45710	0.03303
671.17133	0.03391
669.88556	0.03489
668.59979	0.03428
667.31402	0.03410
666.02825	0.03507
664.74248	0.03401
663.45671	0.03297
662.17095	0.03261
660.88518	0.03248
659.59941	0.03238
658.31364	0.03229
657.02787	0.03224
655.74210	0.03223
654.45633	0.03223
653.17056	0.03219
651.88480	0.03220
650.59903	0.03227
649.31326	0.03239
648.02749	0.03254
646.74172	0.03263
645.45595	0.03267
644.17018	0.03270
642.88441	0.03281
641.59864	0.03301
640.31288	0.03326
639.02711	0.03349
637.74134	0.03370
636.45557	0.03390
635.16980	0.03413
633.88403	0.03435
632.59826	0.03454
631.31249	0.03496
630.02673	0.03655
628.74096	0.03880
627.45519	0.03822
626.16942	0.04095
624.88365	0.04586
623.59788	0.05056
622.31211	0.05439
621.02634	0.05740
619.74057	0.05973
618.45481	0.06130
617.16904	0.06192
615.88327	0.06169
614.59750	0.06125
613.31173	0.06156
612.02596	0.06360
610.74019	0.06819
609.45442	0.07545
608.16866	0.08415
606.88289	0.09219
605.59712	0.09819
604.31135	0.10214
603.02558	0.10460
601.73981	0.10576
600.45404	0.10551
599.16827	0.10390
597.88250	0.10130
596.59674	0.09813
595.31097	0.09474
594.02520	0.09141
592.73943	0.08846
591.45366	0.08619
590.16789	0.08476
588.88212	0.08417
587.59635	0.08431
586.31059	0.08511
585.02482	0.08641
583.73905	0.08807
582.45328	0.08997
581.16751	0.09208
579.88174	0.09448
578.59597	0.09714
577.31020	0.09995
576.02443	0.10275
574.73867	0.10543
573.45290	0.10801
572.16713	0.11070
570.88136	0.11376
569.59559	0.11734
568.30982	0.12139
567.02405	0.12565
565.73828	0.12973
564.45251	0.13318
563.16675	0.13559
561.88098	0.13657
560.59521	0.13589
559.30944	0.13345
558.02367	0.12946
556.73790	0.12429
555.45213	0.11833
554.16636	0.11197
552.88060	0.10554
551.59483	0.09932
550.30906	0.09354
549.02329	0.08828
547.73752	0.08357
546.45175	0.07937
545.16598	0.07562
543.88021	0.07227
542.59444	0.06928
541.30868	0.06658
540.02291	0.06413
538.73714	0.06189
537.45137	0.05981
536.16560	0.05787
534.87983	0.05607
533.59406	0.05438
532.30829	0.05276
531.02253	0.05123
529.73676	0.04987
528.45099	0.04874
527.16522	0.04780
525.87945	0.04695
524.59368	0.04608
523.30791	0.04514
522.02214	0.04414
520.73637	0.04314
519.45061	0.04221
518.16484	0.04136
516.87907	0.04056
515.59330	0.03978
514.30753	0.03900
513.02176	0.03827
511.73599	0.03761
510.45022	0.03702
509.16446	0.03647
507.87869	0.03589
506.59292	0.03525
505.30715	0.03459
504.02138	0.03401
502.73561	0.03361
501.44984	0.03343
500.16407	0.03337
498.87830	0.03330
497.59254	0.03310
496.30677	0.03275
495.02100	0.03230
493.73523	0.03188
492.44946	0.03156
491.16369	0.03134
489.87792	0.03115
488.59215	0.03092
487.30639	0.03069
486.02062	0.03051
484.73485	0.03041
483.44908	0.03035
482.16331	0.03028
480.87754	0.03023
479.59177	0.03024
478.30600	0.03031
477.02023	0.03043
475.73447	0.03058
474.44870	0.03079
473.16293	0.03105
471.87716	0.03130
470.59139	0.03144
469.30562	0.03140
468.01985	0.03119
466.73408	0.03090
465.44832	0.03062
464.16255	0.03039
462.87678	0.03016
461.59101	0.02989
460.30524	0.02952
459.01947	0.02903
457.73370	0.02846
456.44793	0.02790
455.16216	0.02743
453.87640	0.02709
452.59063	0.02684
451.30486	0.02667
450.01909	0.02653
448.73332	0.02641
447.44755	0.02626
446.16178	0.02609
444.87601	0.02589
443.59025	0.02568
442.30448	0.02547
441.01871	0.02523
439.73294	0.02500
438.44717	0.02480
437.16140	0.02467
435.87563	0.02459
434.58986	0.02452
433.30409	0.02447
432.01833	0.02443
430.73256	0.02442
429.44679	0.02438
428.16102	0.02430
426.87525	0.02420
425.58948	0.02409
424.30371	0.02400
423.01794	0.02388
421.73218	0.02374
420.44641	0.02357
419.16064	0.02340
417.87487	0.02326
416.58910	0.02313
415.30333	0.02300
414.01756	0.02291
412.73179	0.02289
411.44602	0.02289
410.16026	0.02286
408.87449	0.02282
407.58872	0.02284
406.30295	0.02294
405.01718	0.02308
403.73141	0.02319
402.44564	0.02325
401.15987	0.02329
399.87411	0.02333
