3997.45528	0.04441
3996.16951	0.04489
3994.88374	0.04485
3993.59798	0.04426
3992.31221	0.04346
3991.02644	0.04281
3989.74067	0.04240
3988.45490	0.04212
3987.16913	0.04196
3985.88336	0.04199
3984.59759	0.04214
3983.31183	0.04222
3982.02606	0.04208
3980.74029	0.04185
3979.45452	0.04177
3978.16875	0.04195
3976.88298	0.04224
3975.59721	0.04238
3974.31144	0.04225
3973.02567	0.04199
3971.73991	0.04184
3970.45414	0.04189
3969.16837	0.04199
3967.88260	0.04197
3966.59683	0.04182
3965.31106	0.04171
3964.02529	0.04168
3962.73952	0.04158
3961.45376	0.04116
3960.16799	0.04045
3958.88222	0.03981
3957.59645	0.03959
3956.31068	0.03974
3955.02491	0.04002
3953.73914	0.04038
3952.45337	0.04102
3951.16760	0.04199
3949.88184	0.04298
3948.59607	0.04351
3947.31030	0.04336
3946.02453	0.04263
3944.73876	0.04163
3943.45299	0.04073
3942.16722	0.04027
3940.88145	0.04042
3939.59569	0.04106
3938.30992	0.04182
3937.02415	0.04220
3935.73838	0.04195
3934.45261	0.04121
3933.16684	0.04042
3931.88107	0.04001
3930.59530	0.04017
3929.30953	0.04062
3928.02377	0.04087
3926.73800	0.04062
3925.45223	0.04004
3924.16646	0.03951
3922.88069	0.03932
3921.59492	0.03956
3920.30915	0.04018
3919.02338	0.04100
3917.73762	0.04165
3916.45185	0.04180
3915.16608	0.04143
3913.88031	0.04085
3912.59454	0.04049
3911.30877	0.04056
3910.02300	0.04095
3908.73723	0.04135
3907.45146	0.04156
3906.16570	0.04164
3904.87993	0.04161
3903.59416	0.04124
3902.30839	0.04040
3901.02262	0.03950
3899.73685	0.03926
3898.45108	0.03992
3897.16531	0.04099
3895.87955	0.04177
3894.59378	0.04213
3893.30801	0.04231
3892.02224	0.04243
3890.73647	0.04232
3889.45070	0.04194
3888.16493	0.04159
3886.87916	0.04153
3885.59339	0.04161
3884.30763	0.04143
3883.02186	0.04083
3881.73609	0.04011
3880.45032	0.03973
3879.16455	0.03975
3877.87878	0.03983
3876.59301	0.03959
3875.30724	0.03900
3874.02148	0.03842
3872.73571	0.03831
3871.44994	0.03881
3870.16417	0.03960
3868.87840	0.04012
3867.59263	0.04005
3866.30686	0.03955
3865.02109	0.03907
3863.73532	0.03893
3862.44956	0.03912
3861.16379	0.03942
3859.87802	0.03949
3858.59225	0.03924
3857.30648	0.03892
3856.02071	0.03896
3854.73494	0.03951
3853.44917	0.04010
3852.16341	0.04012
3850.87764	0.03949
3849.59187	0.03873
3848.30610	0.03840
3847.02033	0.03862
3845.73456	0.03923
3844.44879	0.03995
3843.16302	0.04042
3841.87725	0.04029
3840.59149	0.03953
3839.30572	0.03864
3838.01995	0.03818
3836.73418	0.03831
3835.44841	0.03871
3834.16264	0.03909
3832.87687	0.03946
3831.59110	0.03986
3830.30534	0.04011
3829.01957	0.03999
3827.73380	0.03949
3826.44803	0.03889
3825.16226	0.03852
3823.87649	0.03852
3822.59072	0.03880
3821.30495	0.03917
3820.01918	0.03949
3818.73342	0.03975
3817.44765	0.04000
3816.16188	0.04016
3814.87611	0.04004
3813.59034	0.03965
3812.30457	0.03931
3811.01880	0.03937
3809.73303	0.03977
3808.44726	0.04008
3807.16150	0.03992
3805.87573	0.03937
3804.58996	0.03891
3803.30419	0.03887
3802.01842	0.03912
3800.73265	0.03923
3799.44688	0.03904
3798.16111	0.03880
3796.87535	0.03889
3795.58958	0.03927
3794.30381	0.03952
3793.01804	0.03929
3791.73227	0.03875
3790.44650	0.03832
3789.16073	0.03821
3787.87496	0.03822
3786.58919	0.03806
3785.30343	0.03776
3784.01766	0.03756
3782.73189	0.03762
3781.44612	0.03787
3780.16035	0.03807
3778.87458	0.03801
3777.58881	0.03762
3776.30304	0.03715
3775.01728	0.03693
3773.73151	0.03702
3772.44574	0.03723
3771.15997	0.03733
3769.87420	0.03740
3768.58843	0.03758
3767.30266	0.03790
3766.01689	0.03813
3764.73112	0.03804
3763.44536	0.03757
3762.15959	0.03686
3760.87382	0.03617
3759.58805	0.03565
3758.30228	0.03533
3757.01651	0.03519
3755.73074	0.03526
3754.44497	0.03555
3753.15921	0.03600
3751.87344	0.03644
3750.58767	0.03670
3749.30190	0.03664
3748.01613	0.03629
3746.73036	0.03586
3745.44459	0.03557
3744.15882	0.03550
3742.87305	0.03557
3741.58729	0.03566
3740.30152	0.03560
3739.01575	0.03522
3737.72998	0.03466
3736.44421	0.03434
3735.15844	0.03461
3733.87267	0.03530
3732.58690	0.03591
3731.30114	0.03627
3730.01537	0.03665
3728.72960	0.03730
3727.44383	0.03813
3726.15806	0.03882
3724.87229	0.03914
3723.58652	0.03904
3722.30075	0.03856
3721.01498	0.03784
3719.72922	0.03718
3718.44345	0.03677
3717.15768	0.03655
3715.87191	0.03634
3714.58614	0.03614
3713.30037	0.03613
3712.01460	0.03627
3710.72883	0.03634
3709.44307	0.03614
3708.15730	0.03580
3706.87153	0.03561
3705.58576	0.03569
3704.29999	0.03600
3703.01422	0.03647
3701.72845	0.03694
3700.44268	0.03734
3699.15691	0.03766
3697.87115	0.03782
3696.58538	0.03763
3695.29961	0.03703
3694.01384	0.03615
3692.72807	0.03513
3691.44230	0.03439
3690.15653	0.03438
3688.87076	0.03507
3687.58500	0.03604
3686.29923	0.03678
3685.01346	0.03682
3683.72769	0.03620
3682.44192	0.03550
3681.15615	0.03523
3679.87038	0.03564
3678.58461	0.03664
3677.29884	0.03773
3676.01308	0.03825
3674.72731	0.03782
3673.44154	0.03679
3672.15577	0.03605
3670.87000	0.03609
3669.58423	0.03661
3668.29846	0.03700
3667.01269	0.03708
3665.72693	0.03722
3664.44116	0.03760
3663.15539	0.03801
3661.86962	0.03810
3660.58385	0.03786
3659.29808	0.03761
3658.01231	0.03757
3656.72654	0.03770
3655.44077	0.03768
3654.15501	0.03726
3652.86924	0.03643
3651.58347	0.03553
3650.29770	0.03499
3649.01193	0.03506
3647.72616	0.03559
3646.44039	0.03624
3645.15462	0.03685
3643.86886	0.03752
3642.58309	0.03831
3641.29732	0.03900
3640.01155	0.03930
3638.72578	0.03921
3637.44001	0.03900
3636.15424	0.03881
3634.86847	0.03852
3633.58270	0.03799
3632.29694	0.03735
3631.01117	0.03700
3629.72540	0.03721
3628.43963	0.03790
3627.15386	0.03872
3625.86809	0.03938
3624.58232	0.03979
3623.29655	0.03998
3622.01079	0.03998
3620.72502	0.03994
3619.43925	0.04005
3618.15348	0.04027
3616.86771	0.04032
3615.58194	0.04004
3614.29617	0.03963
3613.01040	0.03949
3611.72463	0.03980
3610.43887	0.04046
3609.15310	0.04131
3607.86733	0.04218
3606.58156	0.04275
3605.29579	0.04282
3604.01002	0.04265
3602.72425	0.04284
3601.43848	0.04365
3600.15272	0.04470
3598.86695	0.04538
3597.58118	0.04550
3596.29541	0.04523
3595.00964	0.04487
3593.72387	0.04465
3592.43810	0.04467
3591.15233	0.04496
3589.86656	0.04548
3588.58080	0.04592
3587.29503	0.04582
3586.00926	0.04510
3584.72349	0.04429
3583.43772	0.04407
3582.15195	0.04469
3580.86618	0.04576
3579.58041	0.04655
3578.29464	0.04674
3577.00888	0.04667
3575.72311	0.04684
3574.43734	0.04744
3573.15157	0.04818
3571.86580	0.04867
3570.58003	0.04880
3569.29426	0.04869
3568.00849	0.04852
3566.72273	0.04841
3565.43696	0.04850
3564.15119	0.04894
3562.86542	0.04966
3561.57965	0.05042
3560.29388	0.05095
3559.00811	0.05116
3557.72234	0.05111
3556.43657	0.05093
3555.15081	0.05068
3553.86504	0.05042
3552.57927	0.05018
3551.29350	0.05003
3550.00773	0.05006
3548.72196	0.05040
3547.43619	0.05112
3546.15042	0.05208
3544.86466	0.05298
3543.57889	0.05352
3542.29312	0.05361
3541.00735	0.05338
3539.72158	0.05306
3538.43581	0.05278
3537.15004	0.05250
3535.86427	0.05225
3534.57850	0.05225
3533.29274	0.05272
3532.00697	0.05361
3530.72120	0.05456
3529.43543	0.05516
3528.14966	0.05534
3526.86389	0.05540
3525.57812	0.05564
3524.29235	0.05612
3523.00659	0.05660
3521.72082	0.05679
3520.43505	0.05666
3519.14928	0.05642
3517.86351	0.05629
3516.57774	0.05635
3515.29197	0.05644
3514.00620	0.05643
3512.72043	0.05631
3511.43467	0.05625
3510.14890	0.05636
3508.86313	0.05665
3507.57736	0.05704
3506.29159	0.05749
3505.00582	0.05794
3503.72005	0.05826
3502.43428	0.05834
3501.14852	0.05818
3499.86275	0.05797
3498.57698	0.05788
3497.29121	0.05788
3496.00544	0.05782
3494.71967	0.05769
3493.43390	0.05767
3492.14813	0.05794
3490.86236	0.05852
3489.57660	0.05921
3488.29083	0.05979
3487.00506	0.06016
3485.71929	0.06031
3484.43352	0.06028
3483.14775	0.06015
3481.86198	0.06002
3480.57621	0.06001
3479.29045	0.06023
3478.00468	0.06073
3476.71891	0.06140
3475.43314	0.06203
3474.14737	0.06239
3472.86160	0.06237
3471.57583	0.06210
3470.29006	0.06189
3469.00429	0.06198
3467.71853	0.06232
3466.43276	0.06265
3465.14699	0.06280
3463.86122	0.06289
3462.57545	0.06317
3461.28968	0.06366
3460.00391	0.06409
3458.71814	0.06420
3457.43238	0.06403
3456.14661	0.06379
3454.86084	0.06373
3453.57507	0.06401
3452.28930	0.06461
3451.00353	0.06522
3449.71776	0.06544
3448.43199	0.06506
3447.14622	0.06435
3445.86046	0.06369
3444.57469	0.06332
3443.28892	0.06327
3442.00315	0.06359
3440.71738	0.06420
3439.43161	0.06487
3438.14584	0.06536
3436.86007	0.06559
3435.57431	0.06563
3434.28854	0.06551
3433.00277	0.06520
3431.71700	0.06480
3430.43123	0.06462
3429.14546	0.06488
3427.85969	0.06550
3426.57392	0.06622
3425.28815	0.06681
3424.00239	0.06727
3422.71662	0.06765
3421.43085	0.06787
3420.14508	0.06779
3418.85931	0.06738
3417.57354	0.06691
3416.28777	0.06678
3415.00200	0.06715
3413.71624	0.06773
3412.43047	0.06799
3411.14470	0.06769
3409.85893	0.06714
3408.57316	0.06693
3407.28739	0.06726
3406.00162	0.06788
3404.71585	0.06843
3403.43008	0.06878
3402.14432	0.06893
3400.85855	0.06892
3399.57278	0.06895
3398.28701	0.06906
3397.00124	0.06918
3395.71547	0.06945
3394.42970	0.06990
3393.14393	0.07029
3391.85817	0.07029
3390.57240	0.06981
3389.28663	0.06919
3388.00086	0.06891
3386.71509	0.06911
3385.42932	0.06949
3384.14355	0.06969
3382.85778	0.06962
3381.57201	0.06947
3380.28625	0.06947
3379.00048	0.06972
3377.71471	0.07021
3376.42894	0.07079
3375.14317	0.07115
3373.85740	0.07110
3372.57163	0.07075
3371.28586	0.07052
3370.00010	0.07077
3368.71433	0.07151
3367.42856	0.07237
3366.14279	0.07294
3364.85702	0.07298
3363.57125	0.07250
3362.28548	0.07168
3360.99971	0.07085
3359.71394	0.07029
3358.42818	0.07021
3357.14241	0.07056
3355.85664	0.07114
3354.57087	0.07168
3353.28510	0.07196
3351.99933	0.07197
3350.71356	0.07193
3349.42779	0.07208
3348.14202	0.07239
3346.85626	0.07260
3345.57049	0.07249
3344.28472	0.07220
3342.99895	0.07203
3341.71318	0.07206
3340.42741	0.07208
3339.14164	0.07191
3337.85587	0.07161
3336.57011	0.07141
3335.28434	0.07137
3333.99857	0.07133
3332.71280	0.07121
3331.42703	0.07111
3330.14126	0.07120
3328.85549	0.07152
3327.56972	0.07189
3326.28395	0.07210
3324.99819	0.07207
3323.71242	0.07185
3322.42665	0.07160
3321.14088	0.07147
3319.85511	0.07147
3318.56934	0.07153
3317.28357	0.07159
3315.99780	0.07169
3314.71204	0.07199
3313.42627	0.07252
3312.14050	0.07309
3310.85473	0.07340
3309.56896	0.07329
3308.28319	0.07282
3306.99742	0.07222
3305.71165	0.07171
3304.42588	0.07145
3303.14012	0.07152
3301.85435	0.07193
3300.56858	0.07250
3299.28281	0.07290
3297.99704	0.07282
3296.71127	0.07228
3295.42550	0.07157
3294.13973	0.07107
3292.85397	0.07097
3291.56820	0.07112
3290.28243	0.07128
3288.99666	0.07132
3287.71089	0.07127
3286.42512	0.07115
3285.13935	0.07100
3283.85358	0.07090
3282.56781	0.07101
3281.28205	0.07139
3279.99628	0.07185
3278.71051	0.07209
3277.42474	0.07201
3276.13897	0.07168
3274.85320	0.07123
3273.56743	0.07079
3272.28166	0.07049
3270.99590	0.07046
3269.71013	0.07067
3268.42436	0.07089
3267.13859	0.07088
3265.85282	0.07065
3264.56705	0.07038
3263.28128	0.07029
3261.99551	0.07041
3260.70974	0.07062
3259.42398	0.07078
3258.13821	0.07081
3256.85244	0.07070
3255.56667	0.07055
3254.28090	0.07038
3252.99513	0.07012
3251.70936	0.06963
3250.42359	0.06896
3249.13783	0.06842
3247.85206	0.06833
3246.56629	0.06863
3245.28052	0.06898
3243.99475	0.06913
3242.70898	0.06916
3241.42321	0.06930
3240.13744	0.06948
3238.85167	0.06949
3237.56591	0.06928
3236.28014	0.06902
3234.99437	0.06890
3233.70860	0.06887
3232.42283	0.06875
3231.13706	0.06849
3229.85129	0.06821
3228.56552	0.06800
3227.27976	0.06784
3225.99399	0.06762
3224.70822	0.06733
3223.42245	0.06706
3222.13668	0.06693
3220.85091	0.06698
3219.56514	0.06708
3218.27937	0.06712
3216.99360	0.06702
3215.70784	0.06685
3214.42207	0.06673
3213.13630	0.06666
3211.85053	0.06651
3210.56476	0.06621
3209.27899	0.06584
3207.99322	0.06561
3206.70745	0.06562
3205.42169	0.06582
3204.13592	0.06598
3202.85015	0.06594
3201.56438	0.06574
3200.27861	0.06563
3198.99284	0.06575
3197.70707	0.06595
3196.42130	0.06597
3195.13553	0.06572
3193.84977	0.06537
3192.56400	0.06507
3191.27823	0.06480
3189.99246	0.06446
3188.70669	0.06407
3187.42092	0.06386
3186.13515	0.06396
3184.84938	0.06418
3183.56362	0.06418
3182.27785	0.06388
3180.99208	0.06351
3179.70631	0.06326
3178.42054	0.06312
3177.13477	0.06295
3175.84900	0.06271
3174.56323	0.06243
3173.27746	0.06216
3171.99170	0.06189
3170.70593	0.06166
3169.42016	0.06156
3168.13439	0.06156
3166.84862	0.06155
3165.56285	0.06141
3164.27708	0.06120
3162.99131	0.06110
3161.70555	0.06119
3160.41978	0.06140
3159.13401	0.06160
3157.84824	0.06177
3156.56247	0.06186
3155.27670	0.06173
3153.99093	0.06123
3152.70516	0.06037
3151.41939	0.05947
3150.13363	0.05901
3148.84786	0.05925
3147.56209	0.06000
3146.27632	0.06078
3144.99055	0.06117
3143.70478	0.06103
3142.41901	0.06047
3141.13324	0.05969
3139.84748	0.05897
3138.56171	0.05854
3137.27594	0.05842
3135.99017	0.05845
3134.70440	0.05850
3133.41863	0.05856
3132.13286	0.05865
3130.84709	0.05865
3129.56132	0.05845
3128.27556	0.05809
3126.98979	0.05780
3125.70402	0.05772
3124.41825	0.05783
3123.13248	0.05794
3121.84671	0.05797
3120.56094	0.05793
3119.27517	0.05786
3117.98940	0.05773
3116.70364	0.05750
3115.41787	0.05722
3114.13210	0.05703
3112.84633	0.05701
3111.56056	0.05712
3110.27479	0.05727
3108.98902	0.05727
3107.70325	0.05699
3106.41749	0.05648
3105.13172	0.05598
3103.84595	0.05579
3102.56018	0.05596
3101.27441	0.05629
3099.98864	0.05656
3098.70287	0.05668
3097.41710	0.05667
3096.13133	0.05653
3094.84557	0.05632
3093.55980	0.05614
3092.27403	0.05608
3090.98826	0.05611
3089.70249	0.05614
3088.41672	0.05613
3087.13095	0.05614
3085.84518	0.05624
3084.55942	0.05641
3083.27365	0.05662
3081.98788	0.05680
3080.70211	0.05686
3079.41634	0.05671
3078.13057	0.05640
3076.84480	0.05603
3075.55903	0.05570
3074.27326	0.05544
3072.98750	0.05524
3071.70173	0.05516
3070.41596	0.05524
3069.13019	0.05540
3067.84442	0.05546
3066.55865	0.05532
3065.27288	0.05506
3063.98711	0.05484
3062.70135	0.05475
3061.41558	0.05478
3060.12981	0.05485
3058.84404	0.05489
3057.55827	0.05496
3056.27250	0.05513
3054.98673	0.05533
3053.70096	0.05538
3052.41519	0.05514
3051.12943	0.05460
3049.84366	0.05393
3048.55789	0.05333
3047.27212	0.05298
3045.98635	0.05296
3044.70058	0.05319
3043.41481	0.05341
3042.12904	0.05338
3040.84328	0.05308
3039.55751	0.05274
3038.27174	0.05263
3036.98597	0.05284
3035.70020	0.05323
3034.41443	0.05352
3033.12866	0.05352
3031.84289	0.05327
3030.55712	0.05292
3029.27136	0.05258
3027.98559	0.05226
3026.69982	0.05200
3025.41405	0.05183
3024.12828	0.05179
3022.84251	0.05179
3021.55674	0.05173
3020.27097	0.05154
3018.98521	0.05127
3017.69944	0.05103
3016.41367	0.05086
3015.12790	0.05076
3013.84213	0.05072
3012.55636	0.05073
3011.27059	0.05071
3009.98482	0.05056
3008.69905	0.05024
3007.41329	0.04989
3006.12752	0.04971
3004.84175	0.04973
3003.55598	0.04982
3002.27021	0.04984
3000.98444	0.04982
2999.69867	0.04996
2998.41290	0.05001
2997.12714	0.05006
2995.84137	0.05016
2994.55560	0.05028
2993.26983	0.05030
2991.98406	0.05017
2990.69829	0.05001
2989.41252	0.04993
2988.12675	0.04995
2986.84098	0.04995
2985.55522	0.04985
2984.26945	0.04957
2982.98368	0.04920
2981.69791	0.04896
2980.41214	0.04904
2979.12637	0.04941
2977.84060	0.04977
2976.55483	0.04991
2975.26907	0.04982
2973.98330	0.04964
2972.69753	0.04949
2971.41176	0.04947
2970.12599	0.04963
2968.84022	0.04997
2967.55445	0.05043
2966.26868	0.05088
2964.98291	0.05116
2963.69715	0.05117
2962.41138	0.05098
2961.12561	0.05077
2959.83984	0.05072
2958.55407	0.05088
2957.26830	0.05122
2955.98253	0.05162
2954.69676	0.05195
2953.41100	0.05215
2952.12523	0.05224
2950.83946	0.05231
2949.55369	0.05237
2948.26792	0.05236
2946.98215	0.05221
2945.69638	0.05195
2944.41061	0.05171
2943.12484	0.05160
2941.83908	0.05158
2940.55331	0.05153
2939.26754	0.05143
2937.98177	0.05131
2936.69600	0.05120
2935.41023	0.05104
2934.12446	0.05073
2932.83869	0.05022
2931.55293	0.04950
2930.26716	0.04863
2928.98139	0.04777
2927.69562	0.04704
2926.40985	0.04642
2925.12408	0.04567
2923.83831	0.04461
2922.55254	0.04329
2921.26677	0.04194
2919.98101	0.04085
2918.69524	0.04017
2917.40947	0.03999
2916.12370	0.04034
2914.83793	0.04119
2913.55216	0.04240
2912.26639	0.04374
2910.98062	0.04499
2909.69486	0.04604
2908.40909	0.04690
2907.12332	0.04762
2905.83755	0.04817
2904.55178	0.04844
2903.26601	0.04845
2901.98024	0.04838
2900.69447	0.04848
2899.40870	0.04880
2898.12294	0.04918
2896.83717	0.04937
2895.55140	0.04928
2894.26563	0.04901
2892.97986	0.04879
2891.69409	0.04869
2890.40832	0.04871
2889.12255	0.04877
2887.83678	0.04885
2886.55102	0.04888
2885.26525	0.04883
2883.97948	0.04877
2882.69371	0.04878
2881.40794	0.04885
2880.12217	0.04884
2878.83640	0.04872
2877.55063	0.04861
2876.26487	0.04871
2874.97910	0.04899
2873.69333	0.04928
2872.40756	0.04936
2871.12179	0.04919
2869.83602	0.04887
2868.55025	0.04855
2867.26448	0.04835
2865.97871	0.04825
2864.69295	0.04813
2863.40718	0.04788
2862.12141	0.04750
2860.83564	0.04703
2859.54987	0.04645
2858.26410	0.04563
2856.97833	0.04452
2855.69256	0.04322
2854.40680	0.04192
2853.12103	0.04072
2851.83526	0.03971
2850.54949	0.03911
2849.26372	0.03921
2847.97795	0.04008
2846.69218	0.04143
2845.40641	0.04278
2844.12064	0.04384
2842.83488	0.04456
2841.54911	0.04498
2840.26334	0.04514
2838.97757	0.04508
2837.69180	0.04494
2836.40603	0.04487
2835.12026	0.04492
2833.83449	0.04494
2832.54873	0.04476
2831.26296	0.04436
2829.97719	0.04397
2828.69142	0.04380
2827.40565	0.04386
2826.11988	0.04400
2824.83411	0.04406
2823.54834	0.04400
2822.26257	0.04383
2820.97681	0.04363
2819.69104	0.04348
2818.40527	0.04342
2817.11950	0.04340
2815.83373	0.04341
2814.54796	0.04346
2813.26219	0.04359
2811.97642	0.04370
2810.69066	0.04370
2809.40489	0.04347
2808.11912	0.04303
2806.83335	0.04256
2805.54758	0.04229
2804.26181	0.04233
2802.97604	0.04247
2801.69027	0.04247
2800.40450	0.04221
2799.11874	0.04183
2797.83297	0.04152
2796.54720	0.04141
2795.26143	0.04146
2793.97566	0.04156
2792.68989	0.04165
2791.40412	0.04169
2790.11835	0.04173
2788.83259	0.04177
2787.54682	0.04173
2786.26105	0.04153
2784.97528	0.04117
2783.68951	0.04078
2782.40374	0.04054
2781.11797	0.04056
2779.83220	0.04079
2778.54643	0.04115
2777.26067	0.04149
2775.97490	0.04170
2774.68913	0.04174
2773.40336	0.04161
2772.11759	0.04135
2770.83182	0.04104
2769.54605	0.04075
2768.26028	0.04053
2766.97452	0.04041
2765.68875	0.04039
2764.40298	0.04045
2763.11721	0.04052
2761.83144	0.04052
2760.54567	0.04042
2759.25990	0.04014
2757.97413	0.03973
2756.68836	0.03929
2755.40260	0.03903
2754.11683	0.03906
2752.83106	0.03925
2751.54529	0.03936
2750.25952	0.03935
2748.97375	0.03931
2747.68798	0.03936
2746.40221	0.03942
2745.11645	0.03937
2743.83068	0.03923
2742.54491	0.03909
2741.25914	0.03900
2739.97337	0.03894
2738.68760	0.03885
2737.40183	0.03873
2736.11606	0.03860
2734.83029	0.03849
2733.54453	0.03845
2732.25876	0.03847
2730.97299	0.03850
2729.68722	0.03850
2728.40145	0.03849
2727.11568	0.03850
2725.82991	0.03848
2724.54414	0.03841
2723.25838	0.03830
2721.97261	0.03822
2720.68684	0.03823
2719.40107	0.03829
2718.11530	0.03832
2716.82953	0.03826
2715.54376	0.03810
2714.25799	0.03791
2712.97222	0.03782
2711.68646	0.03786
2710.40069	0.03795
2709.11492	0.03797
2707.82915	0.03790
2706.54338	0.03778
2705.25761	0.03772
2703.97184	0.03777
2702.68607	0.03789
2701.40031	0.03800
2700.11454	0.03803
2698.82877	0.03797
2697.54300	0.03784
2696.25723	0.03764
2694.97146	0.03744
2693.68569	0.03731
2692.39992	0.03730
2691.11415	0.03735
2689.82839	0.03738
2688.54262	0.03735
2687.25685	0.03726
2685.97108	0.03711
2684.68531	0.03688
2683.39954	0.03663
2682.11377	0.03641
2680.82800	0.03630
2679.54224	0.03634
2678.25647	0.03651
2676.97070	0.03674
2675.68493	0.03695
2674.39916	0.03706
2673.11339	0.03704
2671.82762	0.03686
2670.54185	0.03657
2669.25608	0.03632
2667.97032	0.03624
2666.68455	0.03635
2665.39878	0.03653
2664.11301	0.03665
2662.82724	0.03658
2661.54147	0.03635
2660.25570	0.03605
2658.96993	0.03575
2657.68417	0.03546
2656.39840	0.03520
2655.11263	0.03506
2653.82686	0.03506
2652.54109	0.03509
2651.25532	0.03497
2649.96955	0.03469
2648.68378	0.03438
2647.39801	0.03421
2646.11225	0.03419
2644.82648	0.03427
2643.54071	0.03435
2642.25494	0.03430
2640.96917	0.03404
2639.68340	0.03370
2638.39763	0.03351
2637.11186	0.03348
2635.82609	0.03343
2634.54033	0.03325
2633.25456	0.03308
2631.96879	0.03307
2630.68302	0.03320
2629.39725	0.03323
2628.11148	0.03292
2626.82571	0.03234
2625.53994	0.03182
2624.25418	0.03167
2622.96841	0.03187
2621.68264	0.03213
2620.39687	0.03215
2619.11110	0.03190
2617.82533	0.03156
2616.53956	0.03135
2615.25379	0.03131
2613.96802	0.03132
2612.68226	0.03129
2611.39649	0.03122
2610.11072	0.03112
2608.82495	0.03100
2607.53918	0.03095
2606.25341	0.03107
2604.96764	0.03132
2603.68187	0.03154
2602.39611	0.03158
2601.11034	0.03143
2599.82457	0.03116
2598.53880	0.03084
2597.25303	0.03054
2595.96726	0.03026
2594.68149	0.02998
2593.39572	0.02977
2592.10995	0.02983
2590.82419	0.03021
2589.53842	0.03063
2588.25265	0.03069
2586.96688	0.03030
2585.68111	0.02980
2584.39534	0.02960
2583.10957	0.02975
2581.82380	0.02989
2580.53804	0.02967
2579.25227	0.02914
2577.96650	0.02868
2576.68073	0.02864
2575.39496	0.02900
2574.10919	0.02946
2572.82342	0.02970
2571.53765	0.02969
2570.25188	0.02958
2568.96612	0.02952
2567.68035	0.02959
2566.39458	0.02976
2565.10881	0.02991
2563.82304	0.03001
2562.53727	0.03013
2561.25150	0.03031
2559.96573	0.03040
2558.67997	0.03018
2557.39420	0.02961
2556.10843	0.02896
2554.82266	0.02850
2553.53689	0.02832
2552.25112	0.02822
2550.96535	0.02801
2549.67958	0.02773
2548.39381	0.02762
2547.10805	0.02785
2545.82228	0.02827
2544.53651	0.02860
2543.25074	0.02860
2541.96497	0.02834
2540.67920	0.02805
2539.39343	0.02797
2538.10766	0.02809
2536.82190	0.02823
2535.53613	0.02824
2534.25036	0.02817
2532.96459	0.02820
2531.67882	0.02842
2530.39305	0.02880
2529.10728	0.02916
2527.82151	0.02937
2526.53574	0.02935
2525.24998	0.02909
2523.96421	0.02862
2522.67844	0.02801
2521.39267	0.02744
2520.10690	0.02714
2518.82113	0.02719
2517.53536	0.02745
2516.24959	0.02774
2514.96383	0.02795
2513.67806	0.02815
2512.39229	0.02838
2511.10652	0.02863
2509.82075	0.02880
2508.53498	0.02879
2507.24921	0.02858
2505.96344	0.02817
2504.67767	0.02770
2503.39191	0.02732
2502.10614	0.02716
2500.82037	0.02730
2499.53460	0.02762
2498.24883	0.02787
2496.96306	0.02789
2495.67729	0.02772
2494.39152	0.02757
2493.10576	0.02751
2491.81999	0.02749
2490.53422	0.02750
2489.24845	0.02761
2487.96268	0.02778
2486.67691	0.02786
2485.39114	0.02771
2484.10537	0.02739
2482.81960	0.02706
2481.53384	0.02684
2480.24807	0.02674
2478.96230	0.02671
2477.67653	0.02673
2476.39076	0.02678
2475.10499	0.02686
2473.81922	0.02693
2472.53345	0.02697
2471.24769	0.02691
2469.96192	0.02673
2468.67615	0.02647
2467.39038	0.02628
2466.10461	0.02627
2464.81884	0.02642
2463.53307	0.02663
2462.24730	0.02682
2460.96153	0.02691
2459.67577	0.02684
2458.39000	0.02662
2457.10423	0.02643
2455.81846	0.02650
2454.53269	0.02685
2453.24692	0.02717
2451.96115	0.02715
2450.67538	0.02681
2449.38962	0.02648
2448.10385	0.02636
2446.81808	0.02635
2445.53231	0.02622
2444.24654	0.02597
2442.96077	0.02580
2441.67500	0.02580
2440.38923	0.02583
2439.10346	0.02568
2437.81770	0.02544
2436.53193	0.02536
2435.24616	0.02553
2433.96039	0.02577
2432.67462	0.02586
2431.38885	0.02579
2430.10308	0.02567
2428.81731	0.02561
2427.53155	0.02563
2426.24578	0.02578
2424.96001	0.02599
2423.67424	0.02623
2422.38847	0.02647
2421.10270	0.02671
2419.81693	0.02677
2418.53116	0.02641
2417.24539	0.02570
2415.95963	0.02497
2414.67386	0.02454
2413.38809	0.02444
2412.10232	0.02456
2410.81655	0.02481
2409.53078	0.02520
2408.24501	0.02567
2406.95924	0.02605
2405.67347	0.02615
2404.38771	0.02589
2403.10194	0.02545
2401.81617	0.02519
2400.53040	0.02532
2399.24463	0.02563
2397.95886	0.02635
2396.67309	0.02677
2395.38732	0.02671
2394.10156	0.02644
2392.81579	0.02625
2391.53002	0.02628
2390.24425	0.02644
2388.95848	0.02652
2387.67271	0.02637
2386.38694	0.02604
2385.10117	0.02574
2383.81540	0.02562
2382.52964	0.02564
2381.24387	0.02573
2379.95810	0.02592
2378.67233	0.02629
2377.38656	0.02685
2376.10079	0.02748
2374.81502	0.02813
2373.52925	0.02867
2372.24349	0.02922
2370.95772	0.02976
2369.67195	0.03063
2368.38618	0.03171
2367.10041	0.03267
2365.81464	0.03317
2364.52887	0.03366
2363.24310	0.03420
2361.95733	0.03470
2360.67157	0.03484
2359.38580	0.03493
2358.10003	0.03471
2356.81426	0.03411
2355.52849	0.03326
2354.24272	0.03223
2352.95695	0.03110
2351.67118	0.02958
2350.38542	0.02787
2349.09965	0.02694
2347.81388	0.02730
2346.52811	0.02795
2345.24234	0.02852
2343.95657	0.02949
2342.67080	0.03104
2341.38503	0.03188
2340.09926	0.03172
2338.81350	0.03207
2337.52773	0.03302
2336.24196	0.03257
2334.95619	0.03107
2333.67042	0.03070
2332.38465	0.03120
2331.09888	0.02980
2329.81311	0.02828
2328.52735	0.02903
2327.24158	0.02861
2325.95581	0.02770
2324.67004	0.02889
2323.38427	0.02948
2322.09850	0.02886
2320.81273	0.02955
2319.52696	0.02919
2318.24119	0.02812
2316.95543	0.02816
2315.66966	0.02762
2314.38389	0.02690
2313.09812	0.02674
2311.81235	0.02601
2310.52658	0.02560
2309.24081	0.02537
2307.95504	0.02494
2306.66928	0.02485
2305.38351	0.02443
2304.09774	0.02394
2302.81197	0.02364
2301.52620	0.02340
2300.24043	0.02335
2298.95466	0.02320
2297.66889	0.02304
2296.38312	0.02293
2295.09736	0.02280
2293.81159	0.02269
2292.52582	0.02255
2291.24005	0.02253
2289.95428	0.02259
2288.66851	0.02267
2287.38274	0.02273
2286.09697	0.02281
2284.81121	0.02296
2283.52544	0.02305
2282.23967	0.02289
2280.95390	0.02242
2279.66813	0.02181
2278.38236	0.02126
2277.09659	0.02085
2275.81082	0.02061
2274.52505	0.02059
2273.23929	0.02083
2271.95352	0.02117
2270.66775	0.02132
2269.38198	0.02115
2268.09621	0.02084
2266.81044	0.02061
2265.52467	0.02059
2264.23890	0.02075
2262.95314	0.02092
2261.66737	0.02084
2260.38160	0.02045
2259.09583	0.01995
2257.81006	0.01964
2256.52429	0.01963
2255.23852	0.01972
2253.95275	0.01962
2252.66698	0.01930
2251.38122	0.01907
2250.09545	0.01920
2248.80968	0.01931
2247.52391	0.01909
2246.23814	0.01868
2244.95237	0.01815
2243.66660	0.01778
2242.38083	0.01768
2241.09507	0.01762
2239.80930	0.01735
2238.52353	0.01704
2237.23776	0.01708
2235.95199	0.01768
2234.66622	0.01864
2233.38045	0.01943
2232.09468	0.01939
2230.80891	0.01818
2229.52315	0.01625
2228.23738	0.01462
2226.95161	0.01403
2225.66584	0.01431
2224.38007	0.01465
2223.09430	0.01456
2221.80853	0.01419
2220.52276	0.01394
2219.23700	0.01388
2217.95123	0.01387
2216.66546	0.01388
2215.37969	0.01410
2214.09392	0.01451
2212.80815	0.01487
2211.52238	0.01507
2210.23661	0.01544
2208.95084	0.01631
2207.66508	0.01744
2206.37931	0.01807
2205.09354	0.01770
2203.80777	0.01670
2202.52200	0.01590
2201.23623	0.01567
2199.95046	0.01571
2198.66469	0.01550
2197.37893	0.01486
2196.09316	0.01383
2194.80739	0.01263
2193.52162	0.01177
2192.23585	0.01179
2190.95008	0.01274
2189.66431	0.01391
2188.37854	0.01447
2187.09277	0.01413
2185.80701	0.01317
2184.52124	0.01208
2183.23547	0.01126
2181.94970	0.01101
2180.66393	0.01136
2179.37816	0.01200
2178.09239	0.01246
2176.80662	0.01252
2175.52085	0.01225
2174.23509	0.01179
2172.94932	0.01128
2171.66355	0.01096
2170.37778	0.01109
2169.09201	0.01151
2167.80624	0.01167
2166.52047	0.01115
2165.23470	0.01014
2163.94894	0.00924
2162.66317	0.00877
2161.37740	0.00860
2160.09163	0.00838
2158.80586	0.00792
2157.52009	0.00738
2156.23432	0.00712
2154.94855	0.00715
2153.66278	0.00709
2152.37702	0.00671
2151.09125	0.00640
2149.80548	0.00680
2148.51971	0.00809
2147.23394	0.00987
2145.94817	0.01159
2144.66240	0.01280
2143.37663	0.01322
2142.09087	0.01295
2140.80510	0.01252
2139.51933	0.01236
2138.23356	0.01249
2136.94779	0.01265
2135.66202	0.01287
2134.37625	0.01334
2133.09048	0.01412
2131.80471	0.01505
2130.51895	0.01588
2129.23318	0.01637
2127.94741	0.01636
2126.66164	0.01588
2125.37587	0.01529
2124.09010	0.01496
2122.80433	0.01495
2121.51856	0.01502
2120.23280	0.01497
2118.94703	0.01482
2117.66126	0.01468
2116.37549	0.01457
2115.08972	0.01447
2113.80395	0.01436
2112.51818	0.01424
2111.23241	0.01412
2109.94664	0.01407
2108.66088	0.01410
2107.37511	0.01407
2106.08934	0.01380
2104.80357	0.01335
2103.51780	0.01298
2102.23203	0.01279
2100.94626	0.01263
2099.66049	0.01242
2098.37473	0.01203
2097.08896	0.01194
2095.80319	0.01224
2094.51742	0.01274
2093.23165	0.01324
2091.94588	0.01363
2090.66011	0.01383
2089.37434	0.01382
2088.08857	0.01375
2086.80281	0.01382
2085.51704	0.01400
2084.23127	0.01401
2082.94550	0.01358
2081.65973	0.01281
2080.37396	0.01213
2079.08819	0.01191
2077.80242	0.01218
2076.51666	0.01259
2075.23089	0.01272
2073.94512	0.01242
2072.65935	0.01189
2071.37358	0.01142
2070.08781	0.01112
2068.80204	0.01090
2067.51627	0.01061
2066.23050	0.01030
2064.94474	0.01013
2063.65897	0.01018
2062.37320	0.01040
2061.08743	0.01069
2059.80166	0.01097
2058.51589	0.01112
2057.23012	0.01097
2055.94435	0.01048
2054.65859	0.00977
2053.37282	0.00904
2052.08705	0.00834
2050.80128	0.00762
2049.51551	0.00695
2048.22974	0.00658
2046.94397	0.00680
2045.65820	0.00764
2044.37243	0.00865
2043.08667	0.00909
2041.80090	0.00838
2040.51513	0.00660
2039.22936	0.00454
2037.94359	0.00314
2036.65782	0.00289
2035.37205	0.00362
2034.08628	0.00478
2032.80052	0.00583
2031.51475	0.00655
2030.22898	0.00701
2028.94321	0.00740
2027.65744	0.00778
2026.37167	0.00799
2025.08590	0.00769
2023.80013	0.00677
2022.51436	0.00571
2021.22860	0.00526
2019.94283	0.00568
2018.65706	0.00637
2017.37129	0.00646
2016.08552	0.00575
2014.79975	0.00481
2013.51398	0.00445
2012.22821	0.00505
2010.94245	0.00625
2009.65668	0.00737
2008.37091	0.00792
2007.08514	0.00794
2005.79937	0.00774
2004.51360	0.00747
2003.22783	0.00701
2001.94206	0.00637
2000.65629	0.00579
1999.37053	0.00550
1998.08476	0.00548
1996.79899	0.00569
1995.51322	0.00627
1994.22745	0.00742
1992.94168	0.00891
1991.65591	0.01022
1990.37014	0.01102
1989.08438	0.01134
1987.79861	0.01131
1986.51284	0.01091
1985.22707	0.01025
1983.94130	0.00981
1982.65553	0.00999
1981.36976	0.01060
1980.08399	0.01099
1978.79822	0.01070
1977.51246	0.01000
1976.22669	0.00961
1974.94092	0.00990
1973.65515	0.01057
1972.36938	0.01105
1971.08361	0.01104
1969.79784	0.01071
1968.51207	0.01036
1967.22631	0.01013
1965.94054	0.00996
1964.65477	0.00975
1963.36900	0.00951
1962.08323	0.00931
1960.79746	0.00923
1959.51169	0.00934
1958.22592	0.00969
1956.94015	0.01030
1955.65439	0.01116
1954.36862	0.01210
1953.08285	0.01279
1951.79708	0.01299
1950.51131	0.01279
1949.22554	0.01254
1947.93977	0.01250
1946.65400	0.01259
1945.36823	0.01259
1944.08247	0.01251
1942.79670	0.01252
1941.51093	0.01269
1940.22516	0.01292
1938.93939	0.01307
1937.65362	0.01316
1936.36785	0.01327
1935.08208	0.01341
1933.79632	0.01355
1932.51055	0.01366
1931.22478	0.01375
1929.93901	0.01383
1928.65324	0.01394
1927.36747	0.01404
1926.08170	0.01403
1924.79593	0.01389
1923.51016	0.01371
1922.22440	0.01356
1920.93863	0.01341
1919.65286	0.01323
1918.36709	0.01313
1917.08132	0.01336
1915.79555	0.01400
1914.50978	0.01485
1913.22401	0.01553
1911.93825	0.01576
1910.65248	0.01557
1909.36671	0.01519
1908.08094	0.01481
1906.79517	0.01451
1905.50940	0.01434
1904.22363	0.01439
1902.93786	0.01464
1901.65209	0.01490
1900.36633	0.01491
1899.08056	0.01466
1897.79479	0.01433
1896.50902	0.01415
1895.22325	0.01416
1893.93748	0.01421
1892.65171	0.01418
1891.36594	0.01409
1890.08018	0.01415
1888.79441	0.01445
1887.50864	0.01487
1886.22287	0.01509
1884.93710	0.01492
1883.65133	0.01447
1882.36556	0.01403
1881.07979	0.01384
1879.79402	0.01390
1878.50826	0.01411
1877.22249	0.01441
1875.93672	0.01473
1874.65095	0.01498
1873.36518	0.01510
1872.07941	0.01517
1870.79364	0.01527
1869.50787	0.01539
1868.22211	0.01545
1866.93634	0.01539
1865.65057	0.01526
1864.36480	0.01519
1863.07903	0.01519
1861.79326	0.01521
1860.50749	0.01515
1859.22172	0.01502
1857.93595	0.01485
1856.65019	0.01468
1855.36442	0.01452
1854.07865	0.01441
1852.79288	0.01439
1851.50711	0.01446
1850.22134	0.01460
1848.93557	0.01477
1847.64980	0.01493
1846.36404	0.01512
1845.07827	0.01532
1843.79250	0.01547
1842.50673	0.01551
1841.22096	0.01541
1839.93519	0.01522
1838.64942	0.01500
1837.36365	0.01485
1836.07788	0.01485
1834.79212	0.01501
1833.50635	0.01526
1832.22058	0.01550
1830.93481	0.01559
1829.64904	0.01553
1828.36327	0.01541
1827.07750	0.01532
1825.79173	0.01531
1824.50597	0.01532
1823.22020	0.01529
1821.93443	0.01527
1820.64866	0.01531
1819.36289	0.01543
1818.07712	0.01557
1816.79135	0.01563
1815.50558	0.01558
1814.21981	0.01545
1812.93405	0.01531
1811.64828	0.01521
1810.36251	0.01515
1809.07674	0.01512
1807.79097	0.01510
1806.50520	0.01511
1805.21943	0.01516
1803.93366	0.01523
1802.64790	0.01531
1801.36213	0.01539
1800.07636	0.01546
1798.79059	0.01548
1797.50482	0.01543
1796.21905	0.01535
1794.93328	0.01531
1793.64751	0.01537
1792.36174	0.01550
1791.07598	0.01559
1789.79021	0.01556
1788.50444	0.01543
1787.21867	0.01530
1785.93290	0.01523
1784.64713	0.01523
1783.36136	0.01526
1782.07559	0.01528
1780.78983	0.01527
1779.50406	0.01525
1778.21829	0.01526
1776.93252	0.01532
1775.64675	0.01544
1774.36098	0.01559
1773.07521	0.01573
1771.78944	0.01583
1770.50367	0.01587
1769.21791	0.01585
1767.93214	0.01579
1766.64637	0.01570
1765.36060	0.01560
1764.07483	0.01556
1762.78906	0.01556
1761.50329	0.01555
1760.21752	0.01544
1758.93176	0.01526
1757.64599	0.01509
1756.36022	0.01499
1755.07445	0.01494
1753.78868	0.01483
1752.50291	0.01462
1751.21714	0.01436
1749.93137	0.01409
1748.64560	0.01386
1747.35984	0.01363
1746.07407	0.01340
1744.78830	0.01315
1743.50253	0.01292
1742.21676	0.01273
1740.93099	0.01260
1739.64522	0.01254
1738.35945	0.01254
1737.07369	0.01265
1735.78792	0.01291
1734.50215	0.01330
1733.21638	0.01376
1731.93061	0.01414
1730.64484	0.01438
1729.35907	0.01450
1728.07330	0.01461
1726.78753	0.01478
1725.50177	0.01504
1724.21600	0.01536
1722.93023	0.01566
1721.64446	0.01595
1720.35869	0.01624
1719.07292	0.01659
1717.78715	0.01700
1716.50138	0.01742
1715.21561	0.01778
1713.92985	0.01810
1712.64408	0.01844
1711.35831	0.01886
1710.07254	0.01936
1708.78677	0.01995
1707.50100	0.02060
1706.21523	0.02127
1704.92946	0.02194
1703.64370	0.02264
1702.35793	0.02342
1701.07216	0.02431
1699.78639	0.02525
1698.50062	0.02619
1697.21485	0.02712
1695.92908	0.02804
1694.64331	0.02891
1693.35754	0.02972
1692.07178	0.03051
1690.78601	0.03133
1689.50024	0.03221
1688.21447	0.03316
1686.92870	0.03418
1685.64293	0.03526
1684.35716	0.03636
1683.07139	0.03738
1681.78563	0.03828
1680.49986	0.03909
1679.21409	0.03991
1677.92832	0.04080
1676.64255	0.04175
1675.35678	0.04268
1674.07101	0.04354
1672.78524	0.04435
1671.49947	0.04519
1670.21371	0.04609
1668.92794	0.04701
1667.64217	0.04789
1666.35640	0.04871
1665.07063	0.04949
1663.78486	0.05025
1662.49909	0.05099
1661.21332	0.05168
1659.92756	0.05231
1658.64179	0.05292
1657.35602	0.05351
1656.07025	0.05411
1654.78448	0.05475
1653.49871	0.05541
1652.21294	0.05597
1650.92717	0.05634
1649.64140	0.05656
1648.35564	0.05672
1647.06987	0.05690
1645.78410	0.05706
1644.49833	0.05715
1643.21256	0.05715
1641.92679	0.05708
1640.64102	0.05695
1639.35525	0.05676
1638.06949	0.05654
1636.78372	0.05631
1635.49795	0.05604
1634.21218	0.05570
1632.92641	0.05524
1631.64064	0.05470
1630.35487	0.05414
1629.06910	0.05356
1627.78333	0.05293
1626.49757	0.05225
1625.21180	0.05155
1623.92603	0.05086
1622.64026	0.05016
1621.35449	0.04941
1620.06872	0.04863
1618.78295	0.04790
1617.49718	0.04727
1616.21142	0.04672
1614.92565	0.04616
1613.63988	0.04556
1612.35411	0.04494
1611.06834	0.04439
1609.78257	0.04395
1608.49680	0.04358
1607.21103	0.04323
1605.92526	0.04285
1604.63950	0.04243
1603.35373	0.04199
1602.06796	0.04159
1600.78219	0.04130
1599.49642	0.04112
1598.21065	0.04106
1596.92488	0.04107
1595.63911	0.04112
1594.35335	0.04121
1593.06758	0.04133
1591.78181	0.04149
1590.49604	0.04163
1589.21027	0.04172
1587.92450	0.04180
1586.63873	0.04194
1585.35296	0.04219
1584.06719	0.04250
1582.78143	0.04282
1581.49566	0.04311
1580.20989	0.04338
1578.92412	0.04367
1577.63835	0.04404
1576.35258	0.04449
1575.06681	0.04499
1573.78104	0.04547
1572.49528	0.04591
1571.20951	0.04633
1569.92374	0.04673
1568.63797	0.04710
1567.35220	0.04744
1566.06643	0.04776
1564.78066	0.04810
1563.49489	0.04846
1562.20912	0.04888
1560.92336	0.04937
1559.63759	0.04993
1558.35182	0.05048
1557.06605	0.05090
1555.78028	0.05118
1554.49451	0.05138
1553.20874	0.05155
1551.92297	0.05174
1550.63721	0.05193
1549.35144	0.05211
1548.06567	0.05228
1546.77990	0.05242
1545.49413	0.05247
1544.20836	0.05242
1542.92259	0.05230
1541.63682	0.05220
1540.35105	0.05218
1539.06529	0.05221
1537.77952	0.05221
1536.49375	0.05213
1535.20798	0.05203
1533.92221	0.05192
1532.63644	0.05181
1531.35067	0.05171
1530.06490	0.05164
1528.77914	0.05165
1527.49337	0.05171
1526.20760	0.05177
1524.92183	0.05178
1523.63606	0.05181
1522.35029	0.05195
1521.06452	0.05219
1519.77875	0.05250
1518.49298	0.05283
1517.20722	0.05319
1515.92145	0.05360
1514.63568	0.05403
1513.34991	0.05443
1512.06414	0.05481
1510.77837	0.05521
1509.49260	0.05569
1508.20683	0.05632
1506.92107	0.05705
1505.63530	0.05778
1504.34953	0.05838
1503.06376	0.05884
1501.77799	0.05920
1500.49222	0.05953
1499.20645	0.05985
1497.92068	0.06015
1496.63491	0.06046
1495.34915	0.06079
1494.06338	0.06112
1492.77761	0.06143
1491.49184	0.06173
1490.20607	0.06207
1488.92030	0.06249
1487.63453	0.06295
1486.34876	0.06346
1485.06299	0.06402
1483.77723	0.06469
1482.49146	0.06551
1481.20569	0.06643
1479.91992	0.06736
1478.63415	0.06824
1477.34838	0.06906
1476.06261	0.06981
1474.77684	0.07050
1473.49108	0.07115
1472.20531	0.07176
1470.91954	0.07234
1469.63377	0.07286
1468.34800	0.07331
1467.06223	0.07373
1465.77646	0.07415
1464.49069	0.07460
1463.20492	0.07510
1461.91916	0.07564
1460.63339	0.07626
1459.34762	0.07699
1458.06185	0.07783
1456.77608	0.07872
1455.49031	0.07956
1454.20454	0.08030
1452.91877	0.08092
1451.63301	0.08145
1450.34724	0.08187
1449.06147	0.08217
1447.77570	0.08234
1446.48993	0.08241
1445.20416	0.08237
1443.91839	0.08225
1442.63262	0.08207
1441.34685	0.08188
1440.06109	0.08171
1438.77532	0.08155
1437.48955	0.08141
1436.20378	0.08131
1434.91801	0.08132
1433.63224	0.08148
1432.34647	0.08180
1431.06070	0.08226
1429.77494	0.08283
1428.48917	0.08353
1427.20340	0.08436
1425.91763	0.08531
1424.63186	0.08635
1423.34609	0.08742
1422.06032	0.08848
1420.77455	0.08950
1419.48878	0.09044
1418.20302	0.09124
1416.91725	0.09191
1415.63148	0.09244
1414.34571	0.09284
1413.05994	0.09309
1411.77417	0.09315
1410.48840	0.09300
1409.20263	0.09267
1407.91687	0.09220
1406.63110	0.09159
1405.34533	0.09082
1404.05956	0.08985
1402.77379	0.08866
1401.48802	0.08730
1400.20225	0.08582
1398.91648	0.08427
1397.63071	0.08268
1396.34495	0.08107
1395.05918	0.07943
1393.77341	0.07776
1392.48764	0.07608
1391.20187	0.07442
1389.91610	0.07283
1388.63033	0.07130
1387.34456	0.06982
1386.05880	0.06835
1384.77303	0.06687
1383.48726	0.06536
1382.20149	0.06382
1380.91572	0.06226
1379.62995	0.06074
1378.34418	0.05927
1377.05841	0.05781
1375.77264	0.05635
1374.48688	0.05488
1373.20111	0.05345
1371.91534	0.05207
1370.62957	0.05074
1369.34380	0.04944
1368.05803	0.04818
1366.77226	0.04697
1365.48649	0.04584
1364.20073	0.04478
1362.91496	0.04376
1361.62919	0.04275
1360.34342	0.04178
1359.05765	0.04091
1357.77188	0.04019
1356.48611	0.03959
1355.20034	0.03904
1353.91457	0.03850
1352.62881	0.03799
1351.34304	0.03753
1350.05727	0.03711
1348.77150	0.03671
1347.48573	0.03630
1346.19996	0.03590
1344.91419	0.03556
1343.62842	0.03526
1342.34266	0.03500
1341.05689	0.03477
1339.77112	0.03453
1338.48535	0.03430
1337.19958	0.03405
1335.91381	0.03377
1334.62804	0.03348
1333.34227	0.03318
1332.05650	0.03291
1330.77074	0.03267
1329.48497	0.03245
1328.19920	0.03221
1326.91343	0.03196
1325.62766	0.03171
1324.34189	0.03150
1323.05612	0.03132
1321.77035	0.03114
1320.48459	0.03093
1319.19882	0.03066
1317.91305	0.03036
1316.62728	0.03007
1315.34151	0.02986
1314.05574	0.02971
1312.76997	0.02955
1311.48420	0.02931
1310.19843	0.02901
1308.91267	0.02869
1307.62690	0.02841
1306.34113	0.02819
1305.05536	0.02799
1303.76959	0.02777
1302.48382	0.02755
1301.19805	0.02733
1299.91228	0.02712
1298.62652	0.02693
1297.34075	0.02675
1296.05498	0.02659
1294.76921	0.02645
1293.48344	0.02634
1292.19767	0.02626
1290.91190	0.02620
1289.62613	0.02615
1288.34036	0.02610
1287.05460	0.02605
1285.76883	0.02602
1284.48306	0.02599
1283.19729	0.02597
1281.91152	0.02592
1280.62575	0.02581
1279.33998	0.02567
1278.05421	0.02552
1276.76845	0.02538
1275.48268	0.02527
1274.19691	0.02518
1272.91114	0.02509
1271.62537	0.02496
1270.33960	0.02478
1269.05383	0.02458
1267.76806	0.02441
1266.48229	0.02429
1265.19653	0.02422
1263.91076	0.02417
1262.62499	0.02413
1261.33922	0.02409
1260.05345	0.02407
1258.76768	0.02409
1257.48191	0.02415
1256.19614	0.02426
1254.91037	0.02435
1253.62461	0.02439
1252.33884	0.02439
1251.05307	0.02437
1249.76730	0.02438
1248.48153	0.02441
1247.19576	0.02445
1245.90999	0.02452
1244.62422	0.02461
1243.33846	0.02468
1242.05269	0.02470
1240.76692	0.02464
1239.48115	0.02455
1238.19538	0.02445
1236.90961	0.02439
1235.62384	0.02435
1234.33807	0.02433
1233.05230	0.02432
1231.76654	0.02429
1230.48077	0.02423
1229.19500	0.02415
1227.90923	0.02404
1226.62346	0.02393
1225.33769	0.02384
1224.05192	0.02377
1222.76615	0.02370
1221.48039	0.02364
1220.19462	0.02358
1218.90885	0.02352
1217.62308	0.02347
1216.33731	0.02342
1215.05154	0.02338
1213.76577	0.02338
1212.48000	0.02342
1211.19423	0.02351
1209.90847	0.02364
1208.62270	0.02378
1207.33693	0.02393
1206.05116	0.02407
1204.76539	0.02419
1203.47962	0.02430
1202.19385	0.02440
1200.90808	0.02448
1199.62232	0.02443
1198.33655	0.02442
1197.05078	0.02441
1195.76501	0.02441
1194.47924	0.02443
1193.19347	0.02448
1191.90770	0.02450
1190.62193	0.02447
1189.33616	0.02436
1188.05040	0.02419
1186.76463	0.02403
1185.47886	0.02391
1184.19309	0.02383
1182.90732	0.02374
1181.62155	0.02363
1180.33578	0.02352
1179.05001	0.02343
1177.76425	0.02340
1176.47848	0.02343
1175.19271	0.02352
1173.90694	0.02362
1172.62117	0.02375
1171.33540	0.02388
1170.04963	0.02402
1168.76386	0.02417
1167.47809	0.02431
1166.19233	0.02443
1164.90656	0.02455
1163.62079	0.02467
1162.33502	0.02482
1161.04925	0.02496
1159.76348	0.02508
1158.47771	0.02517
1157.19194	0.02525
1155.90618	0.02536
1154.62041	0.02554
1153.33464	0.02576
1152.04887	0.02596
1150.76310	0.02613
1149.47733	0.02630
1148.19156	0.02657
1146.90579	0.02695
1145.62002	0.02744
1144.33426	0.02799
1143.04849	0.02856
1141.76272	0.02912
1140.47695	0.02970
1139.19118	0.03031
1137.90541	0.03101
1136.61964	0.03181
1135.33387	0.03272
1134.04811	0.03377
1132.76234	0.03500
1131.47657	0.03637
1130.19080	0.03786
1128.90503	0.03951
1127.61926	0.04136
1126.33349	0.04341
1125.04772	0.04563
1123.76195	0.04797
1122.47619	0.05043
1121.19042	0.05297
1119.90465	0.05559
1118.61888	0.05831
1117.33311	0.06112
1116.04734	0.06400
1114.76157	0.06689
1113.47580	0.06975
1112.19004	0.07254
1110.90427	0.07522
1109.61850	0.07776
1108.33273	0.08016
1107.04696	0.08249
1105.76119	0.08479
1104.47542	0.08708
1103.18965	0.08932
1101.90388	0.09145
1100.61812	0.09347
1099.33235	0.09542
1098.04658	0.09739
1096.76081	0.09941
1095.47504	0.10144
1094.18927	0.10335
1092.90350	0.10503
1091.61773	0.10646
1090.33197	0.10771
1089.04620	0.10888
1087.76043	0.11007
1086.47466	0.11132
1085.18889	0.11264
1083.90312	0.11406
1082.61735	0.11557
1081.33158	0.11715
1080.04581	0.11879
1078.76005	0.12051
1077.47428	0.12240
1076.18851	0.12449
1074.90274	0.12672
1073.61697	0.12900
1072.33120	0.13125
1071.04543	0.13351
1069.75966	0.13586
1068.47390	0.13835
1067.18813	0.14101
1065.90236	0.14375
1064.61659	0.14650
1063.33082	0.14918
1062.04505	0.15179
1060.75928	0.15438
1059.47351	0.15702
1058.18774	0.15971
1056.90198	0.16239
1055.61621	0.16500
1054.33044	0.16752
1053.04467	0.17004
1051.75890	0.17261
1050.47313	0.17529
1049.18736	0.17806
1047.90159	0.18093
1046.61583	0.18383
1045.33006	0.18669
1044.04429	0.18947
1042.75852	0.19222
1041.47275	0.19502
1040.18698	0.19792
1038.90121	0.20085
1037.61544	0.20378
1036.32967	0.20666
1035.04391	0.20947
1033.75814	0.21217
1032.47237	0.21471
1031.18660	0.21708
1029.90083	0.21928
1028.61506	0.22126
1027.32929	0.22293
1026.04352	0.22429
1024.75775	0.22534
1023.47199	0.22610
1022.18622	0.22655
1020.90045	0.22661
1019.61468	0.22626
1018.32891	0.22551
1017.04314	0.22443
1015.75737	0.22306
1014.47160	0.22136
1013.18584	0.21927
1011.90007	0.21673
1010.61430	0.21373
1009.32853	0.21029
1008.04276	0.20646
1006.75699	0.20228
1005.47122	0.19780
1004.18545	0.19305
1002.89968	0.18812
1001.61392	0.18305
1000.32815	0.17786
999.04238	0.17255
997.75661	0.16716
996.47084	0.16178
995.18507	0.15647
993.89930	0.15125
992.61353	0.14609
991.32777	0.14103
990.04200	0.13617
988.75623	0.13158
987.47046	0.12725
986.18469	0.12312
984.89892	0.11910
983.61315	0.11517
982.32738	0.11135
981.04161	0.10768
979.75585	0.10423
978.47008	0.10107
977.18431	0.09820
975.89854	0.09561
974.61277	0.09327
973.32700	0.09117
972.04123	0.08937
970.75546	0.08794
969.46970	0.08698
968.18393	0.08654
966.89816	0.08659
965.61239	0.08702
964.32662	0.08767
963.04085	0.08833
961.75508	0.08880
960.46931	0.08894
959.18354	0.08865
957.89778	0.08783
956.61201	0.08648
955.32624	0.08473
954.04047	0.08282
952.75470	0.08086
951.46893	0.07888
950.18316	0.07685
948.89739	0.07483
947.61163	0.07292
946.32586	0.07118
945.04009	0.06956
943.75432	0.06800
942.46855	0.06645
941.18278	0.06493
939.89701	0.06342
938.61124	0.06195
937.32547	0.06056
936.03971	0.05932
934.75394	0.05822
933.46817	0.05718
932.18240	0.05617
930.89663	0.05515
929.61086	0.05413
928.32509	0.05314
927.03932	0.05224
925.75356	0.05148
924.46779	0.05083
923.18202	0.05020
921.89625	0.04953
920.61048	0.04886
919.32471	0.04829
918.03894	0.04782
916.75317	0.04739
915.46740	0.04689
914.18164	0.04628
912.89587	0.04565
911.61010	0.04513
910.32433	0.04478
909.03856	0.04454
907.75279	0.04427
906.46702	0.04389
905.18125	0.04340
903.89549	0.04287
902.60972	0.04239
901.32395	0.04201
900.03818	0.04170
898.75241	0.04138
897.46664	0.04101
896.18087	0.04059
894.89510	0.04018
893.60933	0.03983
892.32357	0.03955
891.03780	0.03935
889.75203	0.03927
888.46626	0.03939
887.18049	0.03985
885.89472	0.04077
884.60895	0.04223
883.32318	0.04423
882.03742	0.04663
880.75165	0.04908
879.46588	0.05119
878.18011	0.05277
876.89434	0.05404
875.60857	0.05529
874.32280	0.05661
873.03703	0.05768
871.75126	0.05811
870.46550	0.05769
869.17973	0.05650
867.89396	0.05478
866.60819	0.05279
865.32242	0.05079
864.03665	0.04892
862.75088	0.04717
861.46511	0.04554
860.17935	0.04402
858.89358	0.04269
857.60781	0.04159
856.32204	0.04072
855.03627	0.04006
853.75050	0.03955
852.46473	0.03915
851.17896	0.03880
849.89319	0.03850
848.60743	0.03821
847.32166	0.03788
846.03589	0.03751
844.75012	0.03715
843.46435	0.03688
842.17858	0.03665
840.89281	0.03637
839.60704	0.03598
838.32128	0.03555
837.03551	0.03518
835.74974	0.03492
834.46397	0.03478
833.17820	0.03469
831.89243	0.03457
830.60666	0.03439
829.32089	0.03415
828.03512	0.03391
826.74936	0.03373
825.46359	0.03364
824.17782	0.03358
822.89205	0.03350
821.60628	0.03337
820.32051	0.03326
819.03474	0.03322
817.74897	0.03324
816.46321	0.03329
815.17744	0.03332
813.89167	0.03332
812.60590	0.03330
811.32013	0.03326
810.03436	0.03325
808.74859	0.03331
807.46282	0.03338
806.17705	0.03338
804.89129	0.03325
803.60552	0.03305
802.31975	0.03290
801.03398	0.03285
799.74821	0.03285
798.46244	0.03284
797.17667	0.03285
795.89090	0.03291
794.60513	0.03301
793.31937	0.03306
792.03360	0.03302
790.74783	0.03293
789.46206	0.03286
788.17629	0.03283
786.89052	0.03284
785.60475	0.03281
784.31898	0.03274
783.03322	0.03265
781.74745	0.03263
780.46168	0.03267
779.17591	0.03269
777.89014	0.03265
776.60437	0.03254
775.31860	0.03242
774.03283	0.03231
772.74706	0.03226
771.46130	0.03226
770.17553	0.03228
768.88976	0.03230
767.60399	0.03228
766.31822	0.03221
765.03245	0.03209
763.74668	0.03202
762.46091	0.03204
761.17515	0.03218
759.88938	0.03238
758.60361	0.03257
757.31784	0.03271
756.03207	0.03278
754.74630	0.03278
753.46053	0.03272
752.17476	0.03263
750.88899	0.03258
749.60323	0.03258
748.31746	0.03262
747.03169	0.03260
745.74592	0.03246
744.46015	0.03221
743.17438	0.03193
741.88861	0.03171
740.60284	0.03163
739.31708	0.03168
738.03131	0.03176
736.74554	0.03182
735.45977	0.03189
734.17400	0.03203
732.88823	0.03221
731.60246	0.03237
730.31669	0.03243
729.03092	0.03244
727.74516	0.03248
726.45939	0.03259
725.17362	0.03271
723.88785	0.03248
722.60208	0.03261
721.31631	0.03283
720.03054	0.03299
718.74477	0.03311
717.45901	0.03323
716.17324	0.03330
714.88747	0.03329
713.60170	0.03318
712.31593	0.03300
711.03016	0.03279
709.74439	0.03262
708.45862	0.03252
707.17285	0.03249
705.88709	0.03249
704.60132	0.03250
703.31555	0.03248
702.02978	0.03245
700.74401	0.03241
699.45824	0.03240
698.17247	0.03243
696.88670	0.03254
695.60094	0.03268
694.31517	0.03284
693.02940	0.03295
691.74363	0.03300
690.45786	0.03300
689.17209	0.03300
687.88632	0.03301
686.60055	0.03298
685.31478	0.03289
684.02902	0.03271
682.74325	0.03249
681.45748	0.03231
680.17171	0.03217
678.88594	0.03207
677.60017	0.03195
676.31440	0.03187
675.02863	0.03187
673.74287	0.03200
672.45710	0.03221
671.17133	0.03241
669.88556	0.03268
668.59979	0.03334
667.31402	0.03363
666.02825	0.03314
664.74248	0.03297
663.45671	0.03275
662.17095	0.03245
660.88518	0.03224
659.59941	0.03212
658.31364	0.03207
657.02787	0.03207
655.74210	0.03211
654.45633	0.03220
653.17056	0.03235
651.88480	0.03253
650.59903	0.03271
649.31326	0.03287
648.02749	0.03298
646.74172	0.03306
645.45595	0.03317
644.17018	0.03334
642.88441	0.03356
641.59864	0.03377
640.31288	0.03390
639.02711	0.03394
637.74134	0.03393
636.45557	0.03394
635.16980	0.03403
633.88403	0.03415
632.59826	0.03425
631.31249	0.03453
630.02673	0.03515
628.74096	0.03521
627.45519	0.03452
626.16942	0.03407
624.88365	0.03369
623.59788	0.03343
622.31211	0.03413
621.02634	0.03650
619.74057	0.04020
618.45481	0.04425
617.16904	0.04821
615.88327	0.05204
614.59750	0.05549
613.31173	0.05825
612.02596	0.06082
610.74019	0.06457
609.45442	0.07015
608.16866	0.07632
606.88289	0.08126
605.59712	0.08446
604.31135	0.08658
603.02558	0.08800
601.73981	0.08851
600.45404	0.08786
599.16827	0.08622
597.88250	0.08399
596.59674	0.08154
595.31097	0.07911
594.02520	0.07692
592.73943	0.07515
591.45366	0.07386
590.16789	0.07303
588.88212	0.07262
587.59635	0.07267
586.31059	0.07327
585.02482	0.07436
583.73905	0.07574
582.45328	0.07724
581.16751	0.07882
579.88174	0.08059
578.59597	0.08265
577.31020	0.08497
576.02443	0.08739
574.73867	0.08974
573.45290	0.09192
572.16713	0.09402
570.88136	0.09625
569.59559	0.09887
568.30982	0.10192
567.02405	0.10528
565.73828	0.10861
564.45251	0.11154
563.16675	0.11361
561.88098	0.11449
560.59521	0.11401
559.30944	0.11218
558.02367	0.10914
556.73790	0.10508
555.45213	0.10034
554.16636	0.09534
552.88060	0.09043
551.59483	0.08578
550.30906	0.08144
549.02329	0.07747
547.73752	0.07393
546.45175	0.07088
545.16598	0.06832
543.88021	0.06614
542.59444	0.06423
541.30868	0.06250
540.02291	0.06088
538.73714	0.05936
537.45137	0.05791
536.16560	0.05648
534.87983	0.05507
533.59406	0.05369
532.30829	0.05239
531.02253	0.05120
529.73676	0.05016
528.45099	0.04922
527.16522	0.04831
525.87945	0.04744
524.59368	0.04664
523.30791	0.04589
522.02214	0.04512
520.73637	0.04430
519.45061	0.04348
518.16484	0.04274
516.87907	0.04212
515.59330	0.04159
514.30753	0.04108
513.02176	0.04057
511.73599	0.04004
510.45022	0.03950
509.16446	0.03895
507.87869	0.03840
506.59292	0.03787
505.30715	0.03737
504.02138	0.03694
502.73561	0.03657
501.44984	0.03627
500.16407	0.03600
498.87830	0.03571
497.59254	0.03540
496.30677	0.03506
495.02100	0.03472
493.73523	0.03441
492.44946	0.03413
491.16369	0.03389
489.87792	0.03369
488.59215	0.03354
487.30639	0.03342
486.02062	0.03332
484.73485	0.03323
483.44908	0.03316
482.16331	0.03315
480.87754	0.03321
479.59177	0.03333
478.30600	0.03344
477.02023	0.03355
475.73447	0.03370
474.44870	0.03392
473.16293	0.03415
471.87716	0.03429
470.59139	0.03424
469.30562	0.03398
468.01985	0.03358
466.73408	0.03311
465.44832	0.03267
464.16255	0.03230
462.87678	0.03204
461.59101	0.03183
460.30524	0.03163
459.01947	0.03137
457.73370	0.03103
456.44793	0.03064
455.16216	0.03024
453.87640	0.02985
452.59063	0.02946
451.30486	0.02907
450.01909	0.02870
448.73332	0.02838
447.44755	0.02812
446.16178	0.02795
444.87601	0.02784
443.59025	0.02775
442.30448	0.02760
441.01871	0.02738
439.73294	0.02712
438.44717	0.02688
437.16140	0.02668
435.87563	0.02652
434.58986	0.02641
433.30409	0.02631
432.01833	0.02618
430.73256	0.02603
429.44679	0.02586
428.16102	0.02571
426.87525	0.02557
425.58948	0.02541
424.30371	0.02521
423.01794	0.02496
421.73218	0.02466
420.44641	0.02434
419.16064	0.02402
417.87487	0.02373
416.58910	0.02349
415.30333	0.02330
414.01756	0.02317
412.73179	0.02305
411.44602	0.02292
410.16026	0.02276
408.87449	0.02264
407.58872	0.02262
406.30295	0.02266
405.01718	0.02270
403.73141	0.02265
402.44564	0.02252
401.15987	0.02240
399.87411	0.02237
