3997.45528	0.02922
3996.16951	0.02872
3994.88374	0.02851
3993.59798	0.02879
3992.31221	0.02954
3991.02644	0.03051
3989.74067	0.03126
3988.45490	0.03145
3987.16913	0.03114
3985.88336	0.03088
3984.59759	0.03120
3983.31183	0.03198
3982.02606	0.03258
3980.74029	0.03250
3979.45452	0.03199
3978.16875	0.03159
3976.88298	0.03156
3975.59721	0.03159
3974.31144	0.03118
3973.02567	0.03009
3971.73991	0.02863
3970.45414	0.02750
3969.16837	0.02729
3967.88260	0.02801
3966.59683	0.02915
3965.31106	0.03009
3964.02529	0.03048
3962.73952	0.03053
3961.45376	0.03081
3960.16799	0.03174
3958.88222	0.03302
3957.59645	0.03385
3956.31068	0.03376
3955.02491	0.03293
3953.73914	0.03193
3952.45337	0.03121
3951.16760	0.03094
3949.88184	0.03093
3948.59607	0.03071
3947.31030	0.02991
3946.02453	0.02873
3944.73876	0.02795
3943.45299	0.02818
3942.16722	0.02932
3940.88145	0.03068
3939.59569	0.03160
3938.30992	0.03186
3937.02415	0.03159
3935.73838	0.03111
3934.45261	0.03074
3933.16684	0.03073
3931.88107	0.03111
3930.59530	0.03165
3929.30953	0.03203
3928.02377	0.03208
3926.73800	0.03183
3925.45223	0.03140
3924.16646	0.03104
3922.88069	0.03113
3921.59492	0.03194
3920.30915	0.03315
3919.02338	0.03387
3917.73762	0.03346
3916.45185	0.03227
3915.16608	0.03127
3913.88031	0.03102
3912.59454	0.03130
3911.30877	0.03160
3910.02300	0.03170
3908.73723	0.03174
3907.45146	0.03183
3906.16570	0.03180
3904.87993	0.03130
3903.59416	0.03021
3902.30839	0.02892
3901.02262	0.02802
3899.73685	0.02783
3898.45108	0.02818
3897.16531	0.02858
3895.87955	0.02858
3894.59378	0.02807
3893.30801	0.02739
3892.02224	0.02703
3890.73647	0.02722
3889.45070	0.02773
3888.16493	0.02825
3886.87916	0.02868
3885.59339	0.02909
3884.30763	0.02951
3883.02186	0.02993
3881.73609	0.03042
3880.45032	0.03098
3879.16455	0.03143
3877.87878	0.03153
3876.59301	0.03134
3875.30724	0.03129
3874.02148	0.03179
3872.73571	0.03273
3871.44994	0.03346
3870.16417	0.03338
3868.87840	0.03236
3867.59263	0.03094
3866.30686	0.02984
3865.02109	0.02940
3863.73532	0.02931
3862.44956	0.02893
3861.16379	0.02797
3859.87802	0.02685
3858.59225	0.02647
3857.30648	0.02743
3856.02071	0.02939
3854.73494	0.03117
3853.44917	0.03169
3852.16341	0.03086
3850.87764	0.02958
3849.59187	0.02883
3848.30610	0.02888
3847.02033	0.02927
3845.73456	0.02937
3844.44879	0.02899
3843.16302	0.02844
3841.87725	0.02817
3840.59149	0.02836
3839.30572	0.02889
3838.01995	0.02946
3836.73418	0.02977
3835.44841	0.02972
3834.16264	0.02945
3832.87687	0.02912
3831.59110	0.02875
3830.30534	0.02825
3829.01957	0.02779
3827.73380	0.02772
3826.44803	0.02818
3825.16226	0.02883
3823.87649	0.02917
3822.59072	0.02892
3821.30495	0.02827
3820.01918	0.02768
3818.73342	0.02751
3817.44765	0.02781
3816.16188	0.02835
3814.87611	0.02879
3813.59034	0.02890
3812.30457	0.02863
3811.01880	0.02804
3809.73303	0.02732
3808.44726	0.02679
3807.16150	0.02679
3805.87573	0.02736
3804.58996	0.02808
3803.30419	0.02847
3802.01842	0.02839
3800.73265	0.02805
3799.44688	0.02766
3798.16111	0.02723
3796.87535	0.02672
3795.58958	0.02618
3794.30381	0.02582
3793.01804	0.02592
3791.73227	0.02658
3790.44650	0.02758
3789.16073	0.02849
3787.87496	0.02897
3786.58919	0.02897
3785.30343	0.02873
3784.01766	0.02861
3782.73189	0.02875
3781.44612	0.02895
3780.16035	0.02893
3778.87458	0.02872
3777.58881	0.02866
3776.30304	0.02893
3775.01728	0.02927
3773.73151	0.02926
3772.44574	0.02879
3771.15997	0.02818
3769.87420	0.02791
3768.58843	0.02818
3767.30266	0.02875
3766.01689	0.02916
3764.73112	0.02906
3763.44536	0.02847
3762.15959	0.02780
3760.87382	0.02755
3759.58805	0.02786
3758.30228	0.02845
3757.01651	0.02884
3755.73074	0.02871
3754.44497	0.02812
3753.15921	0.02744
3751.87344	0.02702
3750.58767	0.02698
3749.30190	0.02723
3748.01613	0.02758
3746.73036	0.02778
3745.44459	0.02748
3744.15882	0.02663
3742.87305	0.02564
3741.58729	0.02506
3740.30152	0.02492
3739.01575	0.02482
3737.72998	0.02455
3736.44421	0.02437
3735.15844	0.02471
3733.87267	0.02561
3732.58690	0.02674
3731.30114	0.02770
3730.01537	0.02822
3728.72960	0.02830
3727.44383	0.02812
3726.15806	0.02790
3724.87229	0.02774
3723.58652	0.02755
3722.30075	0.02721
3721.01498	0.02660
3719.72922	0.02576
3718.44345	0.02497
3717.15768	0.02470
3715.87191	0.02514
3714.58614	0.02599
3713.30037	0.02662
3712.01460	0.02664
3710.72883	0.02617
3709.44307	0.02575
3708.15730	0.02588
3706.87153	0.02659
3705.58576	0.02735
3704.29999	0.02742
3703.01422	0.02659
3701.72845	0.02543
3700.44268	0.02479
3699.15691	0.02502
3697.87115	0.02586
3696.58538	0.02681
3695.29961	0.02750
3694.01384	0.02786
3692.72807	0.02812
3691.44230	0.02847
3690.15653	0.02889
3688.87076	0.02910
3687.58500	0.02876
3686.29923	0.02782
3685.01346	0.02672
3683.72769	0.02600
3682.44192	0.02568
3681.15615	0.02549
3679.87038	0.02519
3678.58461	0.02492
3677.29884	0.02507
3676.01308	0.02590
3674.72731	0.02745
3673.44154	0.02941
3672.15577	0.03124
3670.87000	0.03241
3669.58423	0.03265
3668.29846	0.03210
3667.01269	0.03110
3665.72693	0.02989
3664.44116	0.02855
3663.15539	0.02721
3661.86962	0.02623
3660.58385	0.02596
3659.29808	0.02641
3658.01231	0.02718
3656.72654	0.02784
3655.44077	0.02814
3654.15501	0.02801
3652.86924	0.02755
3651.58347	0.02707
3650.29770	0.02697
3649.01193	0.02740
3647.72616	0.02805
3646.44039	0.02847
3645.15462	0.02866
3643.86886	0.02912
3642.58309	0.03021
3641.29732	0.03151
3640.01155	0.03216
3638.72578	0.03172
3637.44001	0.03065
3636.15424	0.02988
3634.86847	0.02997
3633.58270	0.03073
3632.29694	0.03148
3631.01117	0.03169
3629.72540	0.03140
3628.43963	0.03112
3627.15386	0.03119
3625.86809	0.03131
3624.58232	0.03105
3623.29655	0.03049
3622.01079	0.03031
3620.72502	0.03091
3619.43925	0.03190
3618.15348	0.03261
3616.86771	0.03295
3615.58194	0.03329
3614.29617	0.03389
3613.01040	0.03449
3611.72463	0.03483
3610.43887	0.03494
3609.15310	0.03503
3607.86733	0.03514
3606.58156	0.03517
3605.29579	0.03523
3604.01002	0.03553
3602.72425	0.03609
3601.43848	0.03666
3600.15272	0.03700
3598.86695	0.03705
3597.58118	0.03673
3596.29541	0.03617
3595.00964	0.03583
3593.72387	0.03629
3592.43810	0.03757
3591.15233	0.03890
3589.86656	0.03950
3588.58080	0.03932
3587.29503	0.03892
3586.00926	0.03879
3584.72349	0.03896
3583.43772	0.03923
3582.15195	0.03932
3580.86618	0.03897
3579.58041	0.03819
3578.29464	0.03726
3577.00888	0.03668
3575.72311	0.03684
3574.43734	0.03771
3573.15157	0.03890
3571.86580	0.03998
3570.58003	0.04075
3569.29426	0.04140
3568.00849	0.04225
3566.72273	0.04345
3565.43696	0.04477
3564.15119	0.04574
3562.86542	0.04598
3561.57965	0.04553
3560.29388	0.04484
3559.00811	0.04438
3557.72234	0.04433
3556.43657	0.04451
3555.15081	0.04473
3553.86504	0.04487
3552.57927	0.04496
3551.29350	0.04510
3550.00773	0.04536
3548.72196	0.04573
3547.43619	0.04618
3546.15042	0.04673
3544.86466	0.04735
3543.57889	0.04789
3542.29312	0.04806
3541.00735	0.04779
3539.72158	0.04732
3538.43581	0.04703
3537.15004	0.04709
3535.86427	0.04748
3534.57850	0.04814
3533.29274	0.04894
3532.00697	0.04956
3530.72120	0.04960
3529.43543	0.04899
3528.14966	0.04824
3526.86389	0.04803
3525.57812	0.04859
3524.29235	0.04960
3523.00659	0.05052
3521.72082	0.05105
3520.43505	0.05121
3519.14928	0.05112
3517.86351	0.05095
3516.57774	0.05087
3515.29197	0.05094
3514.00620	0.05104
3512.72043	0.05091
3511.43467	0.05042
3510.14890	0.04971
3508.86313	0.04909
3507.57736	0.04880
3506.29159	0.04892
3505.00582	0.04940
3503.72005	0.05018
3502.43428	0.05115
3501.14852	0.05212
3499.86275	0.05291
3498.57698	0.05339
3497.29121	0.05363
3496.00544	0.05374
3494.71967	0.05370
3493.43390	0.05341
3492.14813	0.05289
3490.86236	0.05252
3489.57660	0.05274
3488.29083	0.05352
3487.00506	0.05441
3485.71929	0.05498
3484.43352	0.05507
3483.14775	0.05477
3481.86198	0.05417
3480.57621	0.05349
3479.29045	0.05311
3478.00468	0.05337
3476.71891	0.05416
3475.43314	0.05485
3474.14737	0.05491
3472.86160	0.05439
3471.57583	0.05382
3470.29006	0.05369
3469.00429	0.05407
3467.71853	0.05480
3466.43276	0.05565
3465.14699	0.05642
3463.86122	0.05686
3462.57545	0.05683
3461.28968	0.05641
3460.00391	0.05579
3458.71814	0.05513
3457.43238	0.05451
3456.14661	0.05408
3454.86084	0.05405
3453.57507	0.05441
3452.28930	0.05486
3451.00353	0.05508
3449.71776	0.05513
3448.43199	0.05536
3447.14622	0.05598
3445.86046	0.05675
3444.57469	0.05741
3443.28892	0.05793
3442.00315	0.05845
3440.71738	0.05885
3439.43161	0.05886
3438.14584	0.05842
3436.86007	0.05797
3435.57431	0.05801
3434.28854	0.05860
3433.00277	0.05930
3431.71700	0.05966
3430.43123	0.05974
3429.14546	0.05988
3427.85969	0.06017
3426.57392	0.06032
3425.28815	0.06010
3424.00239	0.05968
3422.71662	0.05942
3421.43085	0.05953
3420.14508	0.05983
3418.85931	0.06008
3417.57354	0.06012
3416.28777	0.05994
3415.00200	0.05968
3413.71624	0.05954
3412.43047	0.05962
3411.14470	0.05982
3409.85893	0.05995
3408.57316	0.05996
3407.28739	0.05998
3406.00162	0.06013
3404.71585	0.06040
3403.43008	0.06067
3402.14432	0.06087
3400.85855	0.06096
3399.57278	0.06093
3398.28701	0.06088
3397.00124	0.06090
3395.71547	0.06097
3394.42970	0.06099
3393.14393	0.06091
3391.85817	0.06082
3390.57240	0.06093
3389.28663	0.06129
3388.00086	0.06171
3386.71509	0.06196
3385.42932	0.06206
3384.14355	0.06218
3382.85778	0.06240
3381.57201	0.06253
3380.28625	0.06234
3379.00048	0.06185
3377.71471	0.06128
3376.42894	0.06085
3375.14317	0.06069
3373.85740	0.06078
3372.57163	0.06107
3371.28586	0.06144
3370.00010	0.06172
3368.71433	0.06180
3367.42856	0.06177
3366.14279	0.06185
3364.85702	0.06226
3363.57125	0.06279
3362.28548	0.06292
3360.99971	0.06232
3359.71394	0.06129
3358.42818	0.06057
3357.14241	0.06052
3355.85664	0.06089
3354.57087	0.06114
3353.28510	0.06101
3351.99933	0.06060
3350.71356	0.06019
3349.42779	0.06002
3348.14202	0.06020
3346.85626	0.06058
3345.57049	0.06083
3344.28472	0.06072
3342.99895	0.06037
3341.71318	0.06019
3340.42741	0.06047
3339.14164	0.06107
3337.85587	0.06149
3336.57011	0.06133
3335.28434	0.06069
3333.99857	0.05998
3332.71280	0.05953
3331.42703	0.05937
3330.14126	0.05938
3328.85549	0.05945
3327.56972	0.05960
3326.28395	0.05985
3324.99819	0.06014
3323.71242	0.06039
3322.42665	0.06049
3321.14088	0.06044
3319.85511	0.06039
3318.56934	0.06040
3317.28357	0.06041
3315.99780	0.06029
3314.71204	0.06009
3313.42627	0.05997
3312.14050	0.05999
3310.85473	0.06002
3309.56896	0.05996
3308.28319	0.05980
3306.99742	0.05955
3305.71165	0.05926
3304.42588	0.05905
3303.14012	0.05905
3301.85435	0.05909
3300.56858	0.05880
3299.28281	0.05809
3297.99704	0.05732
3296.71127	0.05695
3295.42550	0.05711
3294.13973	0.05763
3292.85397	0.05833
3291.56820	0.05910
3290.28243	0.05972
3288.99666	0.05996
3287.71089	0.05971
3286.42512	0.05916
3285.13935	0.05858
3283.85358	0.05808
3282.56781	0.05764
3281.28205	0.05727
3279.99628	0.05701
3278.71051	0.05688
3277.42474	0.05684
3276.13897	0.05691
3274.85320	0.05715
3273.56743	0.05752
3272.28166	0.05795
3270.99590	0.05841
3269.71013	0.05881
3268.42436	0.05897
3267.13859	0.05876
3265.85282	0.05824
3264.56705	0.05764
3263.28128	0.05710
3261.99551	0.05656
3260.70974	0.05604
3259.42398	0.05568
3258.13821	0.05570
3256.85244	0.05613
3255.56667	0.05687
3254.28090	0.05763
3252.99513	0.05809
3251.70936	0.05802
3250.42359	0.05755
3249.13783	0.05711
3247.85206	0.05702
3246.56629	0.05721
3245.28052	0.05726
3243.99475	0.05681
3242.70898	0.05591
3241.42321	0.05498
3240.13744	0.05452
3238.85167	0.05470
3237.56591	0.05527
3236.28014	0.05572
3234.99437	0.05572
3233.70860	0.05529
3232.42283	0.05481
3231.13706	0.05459
3229.85129	0.05457
3228.56552	0.05444
3227.27976	0.05405
3225.99399	0.05365
3224.70822	0.05355
3223.42245	0.05384
3222.13668	0.05432
3220.85091	0.05471
3219.56514	0.05477
3218.27937	0.05443
3216.99360	0.05387
3215.70784	0.05352
3214.42207	0.05367
3213.13630	0.05413
3211.85053	0.05447
3210.56476	0.05443
3209.27899	0.05417
3207.99322	0.05395
3206.70745	0.05388
3205.42169	0.05392
3204.13592	0.05399
3202.85015	0.05402
3201.56438	0.05386
3200.27861	0.05345
3198.99284	0.05292
3197.70707	0.05258
3196.42130	0.05262
3195.13553	0.05291
3193.84977	0.05310
3192.56400	0.05298
3191.27823	0.05263
3189.99246	0.05233
3188.70669	0.05229
3187.42092	0.05249
3186.13515	0.05277
3184.84938	0.05299
3183.56362	0.05302
3182.27785	0.05280
3180.99208	0.05230
3179.70631	0.05166
3178.42054	0.05110
3177.13477	0.05085
3175.84900	0.05090
3174.56323	0.05112
3173.27746	0.05132
3171.99170	0.05142
3170.70593	0.05141
3169.42016	0.05134
3168.13439	0.05127
3166.84862	0.05126
3165.56285	0.05133
3164.27708	0.05143
3162.99131	0.05146
3161.70555	0.05131
3160.41978	0.05091
3159.13401	0.05035
3157.84824	0.04978
3156.56247	0.04943
3155.27670	0.04944
3153.99093	0.04972
3152.70516	0.04996
3151.41939	0.04988
3150.13363	0.04949
3148.84786	0.04905
3147.56209	0.04879
3146.27632	0.04873
3144.99055	0.04876
3143.70478	0.04876
3142.41901	0.04864
3141.13324	0.04836
3139.84748	0.04801
3138.56171	0.04771
3137.27594	0.04752
3135.99017	0.04739
3134.70440	0.04731
3133.41863	0.04739
3132.13286	0.04772
3130.84709	0.04823
3129.56132	0.04870
3128.27556	0.04889
3126.98979	0.04869
3125.70402	0.04820
3124.41825	0.04765
3123.13248	0.04726
3121.84671	0.04701
3120.56094	0.04667
3119.27517	0.04608
3117.98940	0.04535
3116.70364	0.04482
3115.41787	0.04476
3114.13210	0.04522
3112.84633	0.04595
3111.56056	0.04664
3110.27479	0.04708
3108.98902	0.04716
3107.70325	0.04683
3106.41749	0.04614
3105.13172	0.04535
3103.84595	0.04480
3102.56018	0.04460
3101.27441	0.04461
3099.98864	0.04455
3098.70287	0.04437
3097.41710	0.04416
3096.13133	0.04400
3094.84557	0.04395
3093.55980	0.04400
3092.27403	0.04408
3090.98826	0.04414
3089.70249	0.04412
3088.41672	0.04405
3087.13095	0.04401
3085.84518	0.04405
3084.55942	0.04416
3083.27365	0.04427
3081.98788	0.04435
3080.70211	0.04442
3079.41634	0.04449
3078.13057	0.04451
3076.84480	0.04439
3075.55903	0.04413
3074.27326	0.04384
3072.98750	0.04362
3071.70173	0.04348
3070.41596	0.04341
3069.13019	0.04344
3067.84442	0.04356
3066.55865	0.04370
3065.27288	0.04371
3063.98711	0.04349
3062.70135	0.04306
3061.41558	0.04256
3060.12981	0.04221
3058.84404	0.04209
3057.55827	0.04205
3056.27250	0.04185
3054.98673	0.04141
3053.70096	0.04091
3052.41519	0.04065
3051.12943	0.04083
3049.84366	0.04138
3048.55789	0.04196
3047.27212	0.04226
3045.98635	0.04213
3044.70058	0.04163
3043.41481	0.04097
3042.12904	0.04039
3040.84328	0.04006
3039.55751	0.04000
3038.27174	0.04016
3036.98597	0.04042
3035.70020	0.04064
3034.41443	0.04071
3033.12866	0.04063
3031.84289	0.04049
3030.55712	0.04038
3029.27136	0.04027
3027.98559	0.04005
3026.69982	0.03975
3025.41405	0.03949
3024.12828	0.03936
3022.84251	0.03939
3021.55674	0.03956
3020.27097	0.03981
3018.98521	0.04001
3017.69944	0.03994
3016.41367	0.03948
3015.12790	0.03879
3013.84213	0.03821
3012.55636	0.03801
3011.27059	0.03820
3009.98482	0.03862
3008.69905	0.03906
3007.41329	0.03934
3006.12752	0.03934
3004.84175	0.03905
3003.55598	0.03853
3002.27021	0.03795
3000.98444	0.03743
2999.69867	0.03707
2998.41290	0.03690
2997.12714	0.03686
2995.84137	0.03691
2994.55560	0.03706
2993.26983	0.03730
2991.98406	0.03756
2990.69829	0.03780
2989.41252	0.03797
2988.12675	0.03805
2986.84098	0.03803
2985.55522	0.03803
2984.26945	0.03820
2982.98368	0.03853
2981.69791	0.03883
2980.41214	0.03894
2979.12637	0.03888
2977.84060	0.03875
2976.55483	0.03863
2975.26907	0.03850
2973.98330	0.03839
2972.69753	0.03847
2971.41176	0.03884
2970.12599	0.03938
2968.84022	0.03979
2967.55445	0.03992
2966.26868	0.03988
2964.98291	0.03989
2963.69715	0.04008
2962.41138	0.04041
2961.12561	0.04077
2959.83984	0.04109
2958.55407	0.04132
2957.26830	0.04146
2955.98253	0.04151
2954.69676	0.04144
2953.41100	0.04124
2952.12523	0.04096
2950.83946	0.04068
2949.55369	0.04049
2948.26792	0.04042
2946.98215	0.04044
2945.69638	0.04049
2944.41061	0.04051
2943.12484	0.04040
2941.83908	0.04010
2940.55331	0.03969
2939.26754	0.03940
2937.98177	0.03946
2936.69600	0.03991
2935.41023	0.04047
2934.12446	0.04085
2932.83869	0.04092
2931.55293	0.04086
2930.26716	0.04086
2928.98139	0.04097
2927.69562	0.04112
2926.40985	0.04127
2925.12408	0.04150
2923.83831	0.04180
2922.55254	0.04200
2921.26677	0.04198
2919.98101	0.04176
2918.69524	0.04151
2917.40947	0.04133
2916.12370	0.04120
2914.83793	0.04112
2913.55216	0.04110
2912.26639	0.04107
2910.98062	0.04091
2909.69486	0.04054
2908.40909	0.03999
2907.12332	0.03932
2905.83755	0.03867
2904.55178	0.03816
2903.26601	0.03785
2901.98024	0.03770
2900.69447	0.03764
2899.40870	0.03767
2898.12294	0.03778
2896.83717	0.03790
2895.55140	0.03799
2894.26563	0.03803
2892.97986	0.03802
2891.69409	0.03791
2890.40832	0.03763
2889.12255	0.03719
2887.83678	0.03668
2886.55102	0.03628
2885.26525	0.03612
2883.97948	0.03621
2882.69371	0.03637
2881.40794	0.03638
2880.12217	0.03617
2878.83640	0.03588
2877.55063	0.03567
2876.26487	0.03564
2874.97910	0.03574
2873.69333	0.03587
2872.40756	0.03593
2871.12179	0.03587
2869.83602	0.03572
2868.55025	0.03559
2867.26448	0.03554
2865.97871	0.03562
2864.69295	0.03583
2863.40718	0.03609
2862.12141	0.03625
2860.83564	0.03620
2859.54987	0.03592
2858.26410	0.03544
2856.97833	0.03484
2855.69256	0.03424
2854.40680	0.03386
2853.12103	0.03379
2851.83526	0.03396
2850.54949	0.03419
2849.26372	0.03433
2847.97795	0.03432
2846.69218	0.03417
2845.40641	0.03393
2844.12064	0.03366
2842.83488	0.03337
2841.54911	0.03306
2840.26334	0.03269
2838.97757	0.03229
2837.69180	0.03199
2836.40603	0.03196
2835.12026	0.03216
2833.83449	0.03233
2832.54873	0.03224
2831.26296	0.03192
2829.97719	0.03155
2828.69142	0.03124
2827.40565	0.03098
2826.11988	0.03074
2824.83411	0.03050
2823.54834	0.03020
2822.26257	0.02980
2820.97681	0.02942
2819.69104	0.02921
2818.40527	0.02917
2817.11950	0.02920
2815.83373	0.02923
2814.54796	0.02933
2813.26219	0.02952
2811.97642	0.02969
2810.69066	0.02970
2809.40489	0.02953
2808.11912	0.02929
2806.83335	0.02916
2805.54758	0.02919
2804.26181	0.02928
2802.97604	0.02924
2801.69027	0.02905
2800.40450	0.02888
2799.11874	0.02883
2797.83297	0.02885
2796.54720	0.02878
2795.26143	0.02858
2793.97566	0.02837
2792.68989	0.02830
2791.40412	0.02838
2790.11835	0.02845
2788.83259	0.02835
2787.54682	0.02808
2786.26105	0.02782
2784.97528	0.02780
2783.68951	0.02802
2782.40374	0.02830
2781.11797	0.02842
2779.83220	0.02832
2778.54643	0.02811
2777.26067	0.02790
2775.97490	0.02769
2774.68913	0.02748
2773.40336	0.02734
2772.11759	0.02735
2770.83182	0.02750
2769.54605	0.02771
2768.26028	0.02787
2766.97452	0.02795
2765.68875	0.02800
2764.40298	0.02804
2763.11721	0.02804
2761.83144	0.02792
2760.54567	0.02767
2759.25990	0.02738
2757.97413	0.02724
2756.68836	0.02730
2755.40260	0.02750
2754.11683	0.02764
2752.83106	0.02761
2751.54529	0.02749
2750.25952	0.02747
2748.97375	0.02762
2747.68798	0.02779
2746.40221	0.02776
2745.11645	0.02743
2743.83068	0.02698
2742.54491	0.02671
2741.25914	0.02675
2739.97337	0.02696
2738.68760	0.02707
2737.40183	0.02694
2736.11606	0.02671
2734.83029	0.02657
2733.54453	0.02652
2732.25876	0.02641
2730.97299	0.02622
2729.68722	0.02612
2728.40145	0.02626
2727.11568	0.02649
2725.82991	0.02652
2724.54414	0.02622
2723.25838	0.02579
2721.97261	0.02549
2720.68684	0.02543
2719.40107	0.02558
2718.11530	0.02576
2716.82953	0.02579
2715.54376	0.02561
2714.25799	0.02538
2712.97222	0.02527
2711.68646	0.02536
2710.40069	0.02554
2709.11492	0.02571
2707.82915	0.02581
2706.54338	0.02586
2705.25761	0.02586
2703.97184	0.02584
2702.68607	0.02576
2701.40031	0.02559
2700.11454	0.02531
2698.82877	0.02501
2697.54300	0.02483
2696.25723	0.02482
2694.97146	0.02493
2693.68569	0.02508
2692.39992	0.02522
2691.11415	0.02532
2689.82839	0.02534
2688.54262	0.02521
2687.25685	0.02495
2685.97108	0.02466
2684.68531	0.02454
2683.39954	0.02468
2682.11377	0.02497
2680.82800	0.02522
2679.54224	0.02531
2678.25647	0.02524
2676.97070	0.02513
2675.68493	0.02505
2674.39916	0.02499
2673.11339	0.02490
2671.82762	0.02480
2670.54185	0.02473
2669.25608	0.02474
2667.97032	0.02479
2666.68455	0.02487
2665.39878	0.02500
2664.11301	0.02514
2662.82724	0.02523
2661.54147	0.02525
2660.25570	0.02520
2658.96993	0.02506
2657.68417	0.02485
2656.39840	0.02465
2655.11263	0.02455
2653.82686	0.02452
2652.54109	0.02442
2651.25532	0.02419
2649.96955	0.02395
2648.68378	0.02382
2647.39801	0.02381
2646.11225	0.02383
2644.82648	0.02380
2643.54071	0.02372
2642.25494	0.02364
2640.96917	0.02357
2639.68340	0.02347
2638.39763	0.02331
2637.11186	0.02314
2635.82609	0.02305
2634.54033	0.02306
2633.25456	0.02298
2631.96879	0.02264
2630.68302	0.02208
2629.39725	0.02159
2628.11148	0.02141
2626.82571	0.02152
2625.53994	0.02179
2624.25418	0.02213
2622.96841	0.02250
2621.68264	0.02276
2620.39687	0.02271
2619.11110	0.02237
2617.82533	0.02204
2616.53956	0.02199
2615.25379	0.02216
2613.96802	0.02221
2612.68226	0.02200
2611.39649	0.02171
2610.11072	0.02154
2608.82495	0.02140
2607.53918	0.02107
2606.25341	0.02049
2604.96764	0.01981
2603.68187	0.01921
2602.39611	0.01887
2601.11034	0.01896
2599.82457	0.01946
2598.53880	0.02019
2597.25303	0.02080
2595.96726	0.02110
2594.68149	0.02103
2593.39572	0.02066
2592.10995	0.02005
2590.82419	0.01933
2589.53842	0.01878
2588.25265	0.01868
2586.96688	0.01901
2585.68111	0.01947
2584.39534	0.01975
2583.10957	0.01981
2581.82380	0.01976
2580.53804	0.01974
2579.25227	0.01973
2577.96650	0.01962
2576.68073	0.01933
2575.39496	0.01897
2574.10919	0.01875
2572.82342	0.01878
2571.53765	0.01895
2570.25188	0.01904
2568.96612	0.01894
2567.68035	0.01864
2566.39458	0.01830
2565.10881	0.01816
2563.82304	0.01831
2562.53727	0.01853
2561.25150	0.01856
2559.96573	0.01832
2558.67997	0.01805
2557.39420	0.01799
2556.10843	0.01820
2554.82266	0.01856
2553.53689	0.01889
2552.25112	0.01912
2550.96535	0.01929
2549.67958	0.01951
2548.39381	0.01984
2547.10805	0.02027
2545.82228	0.02055
2544.53651	0.02039
2543.25074	0.01977
2541.96497	0.01898
2540.67920	0.01840
2539.39343	0.01821
2538.10766	0.01831
2536.82190	0.01848
2535.53613	0.01855
2534.25036	0.01844
2532.96459	0.01831
2531.67882	0.01840
2530.39305	0.01879
2529.10728	0.01920
2527.82151	0.01930
2526.53574	0.01896
2525.24998	0.01838
2523.96421	0.01786
2522.67844	0.01759
2521.39267	0.01762
2520.10690	0.01794
2518.82113	0.01843
2517.53536	0.01893
2516.24959	0.01917
2514.96383	0.01898
2513.67806	0.01841
2512.39229	0.01781
2511.10652	0.01751
2509.82075	0.01759
2508.53498	0.01782
2507.24921	0.01795
2505.96344	0.01795
2504.67767	0.01794
2503.39191	0.01801
2502.10614	0.01818
2500.82037	0.01840
2499.53460	0.01861
2498.24883	0.01869
2496.96306	0.01853
2495.67729	0.01818
2494.39152	0.01783
2493.10576	0.01766
2491.81999	0.01766
2490.53422	0.01772
2489.24845	0.01777
2487.96268	0.01791
2486.67691	0.01823
2485.39114	0.01862
2484.10537	0.01889
2482.81960	0.01898
2481.53384	0.01891
2480.24807	0.01864
2478.96230	0.01813
2477.67653	0.01748
2476.39076	0.01697
2475.10499	0.01677
2473.81922	0.01690
2472.53345	0.01727
2471.24769	0.01777
2469.96192	0.01818
2468.67615	0.01830
2467.39038	0.01813
2466.10461	0.01781
2464.81884	0.01747
2463.53307	0.01716
2462.24730	0.01693
2460.96153	0.01681
2459.67577	0.01680
2458.39000	0.01685
2457.10423	0.01697
2455.81846	0.01721
2454.53269	0.01754
2453.24692	0.01779
2451.96115	0.01779
2450.67538	0.01752
2449.38962	0.01721
2448.10385	0.01709
2446.81808	0.01720
2445.53231	0.01733
2444.24654	0.01730
2442.96077	0.01713
2441.67500	0.01699
2440.38923	0.01700
2439.10346	0.01721
2437.81770	0.01748
2436.53193	0.01760
2435.24616	0.01743
2433.96039	0.01702
2432.67462	0.01654
2431.38885	0.01619
2430.10308	0.01603
2428.81731	0.01597
2427.53155	0.01586
2426.24578	0.01576
2424.96001	0.01587
2423.67424	0.01625
2422.38847	0.01667
2421.10270	0.01685
2419.81693	0.01676
2418.53116	0.01662
2417.24539	0.01662
2415.95963	0.01674
2414.67386	0.01678
2413.38809	0.01663
2412.10232	0.01640
2410.81655	0.01627
2409.53078	0.01629
2408.24501	0.01629
2406.95924	0.01611
2405.67347	0.01579
2404.38771	0.01555
2403.10194	0.01554
2401.81617	0.01579
2400.53040	0.01618
2399.24463	0.01657
2397.95886	0.01664
2396.67309	0.01635
2395.38732	0.01590
2394.10156	0.01555
2392.81579	0.01544
2391.53002	0.01549
2390.24425	0.01557
2388.95848	0.01564
2387.67271	0.01574
2386.38694	0.01593
2385.10117	0.01619
2383.81540	0.01644
2382.52964	0.01661
2381.24387	0.01662
2379.95810	0.01641
2378.67233	0.01605
2377.38656	0.01566
2376.10079	0.01534
2374.81502	0.01513
2373.52925	0.01513
2372.24349	0.01531
2370.95772	0.01573
2369.67195	0.01613
2368.38618	0.01645
2367.10041	0.01674
2365.81464	0.01693
2364.52887	0.01674
2363.24310	0.01640
2361.95733	0.01622
2360.67157	0.01642
2359.38580	0.01665
2358.10003	0.01691
2356.81426	0.01706
2355.52849	0.01698
2354.24272	0.01672
2352.95695	0.01627
2351.67118	0.01595
2350.38542	0.01597
2349.09965	0.01605
2347.81388	0.01592
2346.52811	0.01598
2345.24234	0.01636
2343.95657	0.01677
2342.67080	0.01681
2341.38503	0.01679
2340.09926	0.01691
2338.81350	0.01679
2337.52773	0.01645
2336.24196	0.01629
2334.95619	0.01639
2333.67042	0.01646
2332.38465	0.01626
2331.09888	0.01654
2329.81311	0.01683
2328.52735	0.01634
2327.24158	0.01655
2325.95581	0.01724
2324.67004	0.01734
2323.38427	0.01760
2322.09850	0.01808
2320.81273	0.01777
2319.52696	0.01783
2318.24119	0.01814
2316.95543	0.01797
2315.66966	0.01797
2314.38389	0.01791
2313.09812	0.01756
2311.81235	0.01741
2310.52658	0.01703
2309.24081	0.01649
2307.95504	0.01592
2306.66928	0.01513
2305.38351	0.01463
2304.09774	0.01449
2302.81197	0.01472
2301.52620	0.01530
2300.24043	0.01589
2298.95466	0.01636
2297.66889	0.01651
2296.38312	0.01635
2295.09736	0.01606
2293.81159	0.01577
2292.52582	0.01571
2291.24005	0.01591
2289.95428	0.01629
2288.66851	0.01661
2287.38274	0.01663
2286.09697	0.01632
2284.81121	0.01580
2283.52544	0.01526
2282.23967	0.01485
2280.95390	0.01464
2279.66813	0.01458
2278.38236	0.01447
2277.09659	0.01412
2275.81082	0.01358
2274.52505	0.01314
2273.23929	0.01309
2271.95352	0.01345
2270.66775	0.01389
2269.38198	0.01407
2268.09621	0.01393
2266.81044	0.01363
2265.52467	0.01332
2264.23890	0.01307
2262.95314	0.01294
2261.66737	0.01300
2260.38160	0.01320
2259.09583	0.01329
2257.81006	0.01308
2256.52429	0.01255
2255.23852	0.01189
2253.95275	0.01140
2252.66698	0.01128
2251.38122	0.01152
2250.09545	0.01210
2248.80968	0.01284
2247.52391	0.01301
2246.23814	0.01266
2244.95237	0.01184
2243.66660	0.01100
2242.38083	0.01075
2241.09507	0.01133
2239.80930	0.01241
2238.52353	0.01332
2237.23776	0.01359
2235.95199	0.01330
2234.66622	0.01284
2233.38045	0.01252
2232.09468	0.01242
2230.80891	0.01251
2229.52315	0.01267
2228.23738	0.01265
2226.95161	0.01209
2225.66584	0.01102
2224.38007	0.00990
2223.09430	0.00933
2221.80853	0.00948
2220.52276	0.00992
2219.23700	0.01005
2217.95123	0.00961
2216.66546	0.00891
2215.37969	0.00843
2214.09392	0.00854
2212.80815	0.00924
2211.52238	0.01021
2210.23661	0.01090
2208.95084	0.01088
2207.66508	0.01028
2206.37931	0.00965
2205.09354	0.00933
2203.80777	0.00919
2202.52200	0.00895
2201.23623	0.00857
2199.95046	0.00820
2198.66469	0.00781
2197.37893	0.00722
2196.09316	0.00629
2194.80739	0.00516
2193.52162	0.00423
2192.23585	0.00400
2190.95008	0.00468
2189.66431	0.00588
2188.37854	0.00673
2187.09277	0.00660
2185.80701	0.00571
2184.52124	0.00480
2183.23547	0.00439
2181.94970	0.00450
2180.66393	0.00492
2179.37816	0.00538
2178.09239	0.00565
2176.80662	0.00569
2175.52085	0.00586
2174.23509	0.00661
2172.94932	0.00782
2171.66355	0.00868
2170.37778	0.00847
2169.09201	0.00725
2167.80624	0.00580
2166.52047	0.00502
2165.23470	0.00525
2163.94894	0.00610
2162.66317	0.00676
2161.37740	0.00646
2160.09163	0.00513
2158.80586	0.00359
2157.52009	0.00296
2156.23432	0.00356
2154.94855	0.00481
2153.66278	0.00594
2152.37702	0.00658
2151.09125	0.00680
2149.80548	0.00673
2148.51971	0.00633
2147.23394	0.00562
2145.94817	0.00489
2144.66240	0.00458
2143.37663	0.00489
2142.09087	0.00556
2140.80510	0.00618
2139.51933	0.00650
2138.23356	0.00658
2136.94779	0.00653
2135.66202	0.00639
2134.37625	0.00616
2133.09048	0.00604
2131.80471	0.00631
2130.51895	0.00698
2129.23318	0.00763
2127.94741	0.00783
2126.66164	0.00758
2125.37587	0.00730
2124.09010	0.00729
2122.80433	0.00755
2121.51856	0.00801
2120.23280	0.00861
2118.94703	0.00921
2117.66126	0.00954
2116.37549	0.00949
2115.08972	0.00917
2113.80395	0.00878
2112.51818	0.00842
2111.23241	0.00821
2109.94664	0.00828
2108.66088	0.00854
2107.37511	0.00861
2106.08934	0.00828
2104.80357	0.00773
2103.51780	0.00738
2102.23203	0.00735
2100.94626	0.00747
2099.66049	0.00781
2098.37473	0.00771
2097.08896	0.00723
2095.80319	0.00666
2094.51742	0.00628
2093.23165	0.00614
2091.94588	0.00611
2090.66011	0.00591
2089.37434	0.00546
2088.08857	0.00506
2086.80281	0.00507
2085.51704	0.00563
2084.23127	0.00645
2082.94550	0.00707
2081.65973	0.00719
2080.37396	0.00689
2079.08819	0.00652
2077.80242	0.00637
2076.51666	0.00649
2075.23089	0.00670
2073.94512	0.00680
2072.65935	0.00673
2071.37358	0.00666
2070.08781	0.00674
2068.80204	0.00688
2067.51627	0.00673
2066.23050	0.00608
2064.94474	0.00508
2063.65897	0.00411
2062.37320	0.00341
2061.08743	0.00303
2059.80166	0.00290
2058.51589	0.00298
2057.23012	0.00328
2055.94435	0.00382
2054.65859	0.00445
2053.37282	0.00492
2052.08705	0.00507
2050.80128	0.00503
2049.51551	0.00502
2048.22974	0.00507
2046.94397	0.00500
2045.65820	0.00465
2044.37243	0.00401
2043.08667	0.00324
2041.80090	0.00257
2040.51513	0.00217
2039.22936	0.00201
2037.94359	0.00184
2036.65782	0.00153
2035.37205	0.00125
2034.08628	0.00136
2032.80052	0.00208
2031.51475	0.00320
2030.22898	0.00413
2028.94321	0.00437
2027.65744	0.00396
2026.37167	0.00343
2025.08590	0.00317
2023.80013	0.00298
2022.51436	0.00248
2021.22860	0.00182
2019.94283	0.00155
2018.65706	0.00196
2017.37129	0.00279
2016.08552	0.00359
2014.79975	0.00409
2013.51398	0.00416
2012.22821	0.00386
2010.94245	0.00352
2009.65668	0.00367
2008.37091	0.00448
2007.08514	0.00549
2005.79937	0.00607
2004.51360	0.00606
2003.22783	0.00589
2001.94206	0.00602
2000.65629	0.00637
1999.37053	0.00646
1998.08476	0.00594
1996.79899	0.00504
1995.51322	0.00425
1994.22745	0.00383
1992.94168	0.00363
1991.65591	0.00352
1990.37014	0.00365
1989.08438	0.00412
1987.79861	0.00467
1986.51284	0.00487
1985.22707	0.00463
1983.94130	0.00429
1982.65553	0.00430
1981.36976	0.00482
1980.08399	0.00566
1978.79822	0.00642
1977.51246	0.00670
1976.22669	0.00638
1974.94092	0.00563
1973.65515	0.00480
1972.36938	0.00417
1971.08361	0.00400
1969.79784	0.00443
1968.51207	0.00531
1967.22631	0.00631
1965.94054	0.00715
1964.65477	0.00772
1963.36900	0.00804
1962.08323	0.00814
1960.79746	0.00809
1959.51169	0.00807
1958.22592	0.00821
1956.94015	0.00845
1955.65439	0.00866
1954.36862	0.00877
1953.08285	0.00879
1951.79708	0.00868
1950.51131	0.00844
1949.22554	0.00814
1947.93977	0.00791
1946.65400	0.00775
1945.36823	0.00753
1944.08247	0.00719
1942.79670	0.00691
1941.51093	0.00694
1940.22516	0.00728
1938.93939	0.00764
1937.65362	0.00769
1936.36785	0.00746
1935.08208	0.00726
1933.79632	0.00738
1932.51055	0.00776
1931.22478	0.00810
1929.93901	0.00820
1928.65324	0.00815
1927.36747	0.00811
1926.08170	0.00811
1924.79593	0.00809
1923.51016	0.00800
1922.22440	0.00795
1920.93863	0.00809
1919.65286	0.00838
1918.36709	0.00863
1917.08132	0.00864
1915.79555	0.00843
1914.50978	0.00824
1913.22401	0.00825
1911.93825	0.00847
1910.65248	0.00871
1909.36671	0.00882
1908.08094	0.00884
1906.79517	0.00890
1905.50940	0.00908
1904.22363	0.00925
1902.93786	0.00926
1901.65209	0.00920
1900.36633	0.00929
1899.08056	0.00962
1897.79479	0.00998
1896.50902	0.01005
1895.22325	0.00978
1893.93748	0.00938
1892.65171	0.00919
1891.36594	0.00928
1890.08018	0.00946
1888.79441	0.00952
1887.50864	0.00943
1886.22287	0.00930
1884.93710	0.00927
1883.65133	0.00932
1882.36556	0.00939
1881.07979	0.00932
1879.79402	0.00906
1878.50826	0.00872
1877.22249	0.00854
1875.93672	0.00866
1874.65095	0.00897
1873.36518	0.00925
1872.07941	0.00937
1870.79364	0.00934
1869.50787	0.00927
1868.22211	0.00926
1866.93634	0.00938
1865.65057	0.00957
1864.36480	0.00967
1863.07903	0.00954
1861.79326	0.00919
1860.50749	0.00885
1859.22172	0.00877
1857.93595	0.00896
1856.65019	0.00922
1855.36442	0.00935
1854.07865	0.00932
1852.79288	0.00927
1851.50711	0.00926
1850.22134	0.00927
1848.93557	0.00926
1847.64980	0.00923
1846.36404	0.00919
1845.07827	0.00912
1843.79250	0.00904
1842.50673	0.00905
1841.22096	0.00924
1839.93519	0.00954
1838.64942	0.00980
1837.36365	0.00993
1836.07788	0.00995
1834.79212	0.00998
1833.50635	0.01007
1832.22058	0.01019
1830.93481	0.01026
1829.64904	0.01025
1828.36327	0.01020
1827.07750	0.01016
1825.79173	0.01017
1824.50597	0.01019
1823.22020	0.01019
1821.93443	0.01019
1820.64866	0.01020
1819.36289	0.01018
1818.07712	0.01008
1816.79135	0.00992
1815.50558	0.00981
1814.21981	0.00983
1812.93405	0.00992
1811.64828	0.00994
1810.36251	0.00984
1809.07674	0.00967
1807.79097	0.00949
1806.50520	0.00939
1805.21943	0.00943
1803.93366	0.00964
1802.64790	0.00997
1801.36213	0.01029
1800.07636	0.01047
1798.79059	0.01048
1797.50482	0.01035
1796.21905	0.01013
1794.93328	0.00995
1793.64751	0.00990
1792.36174	0.01001
1791.07598	0.01022
1789.79021	0.01044
1788.50444	0.01063
1787.21867	0.01079
1785.93290	0.01087
1784.64713	0.01086
1783.36136	0.01078
1782.07559	0.01072
1780.78983	0.01076
1779.50406	0.01083
1778.21829	0.01088
1776.93252	0.01089
1775.64675	0.01094
1774.36098	0.01107
1773.07521	0.01121
1771.78944	0.01130
1770.50367	0.01134
1769.21791	0.01139
1767.93214	0.01148
1766.64637	0.01156
1765.36060	0.01157
1764.07483	0.01153
1762.78906	0.01148
1761.50329	0.01145
1760.21752	0.01143
1758.93176	0.01141
1757.64599	0.01140
1756.36022	0.01143
1755.07445	0.01154
1753.78868	0.01167
1752.50291	0.01178
1751.21714	0.01182
1749.93137	0.01177
1748.64560	0.01170
1747.35984	0.01168
1746.07407	0.01174
1744.78830	0.01185
1743.50253	0.01197
1742.21676	0.01206
1740.93099	0.01214
1739.64522	0.01221
1738.35945	0.01231
1737.07369	0.01245
1735.78792	0.01266
1734.50215	0.01288
1733.21638	0.01306
1731.93061	0.01317
1730.64484	0.01321
1729.35907	0.01323
1728.07330	0.01327
1726.78753	0.01337
1725.50177	0.01350
1724.21600	0.01362
1722.93023	0.01374
1721.64446	0.01388
1720.35869	0.01409
1719.07292	0.01434
1717.78715	0.01459
1716.50138	0.01480
1715.21561	0.01493
1713.92985	0.01501
1712.64408	0.01510
1711.35831	0.01524
1710.07254	0.01546
1708.78677	0.01573
1707.50100	0.01602
1706.21523	0.01629
1704.92946	0.01655
1703.64370	0.01685
1702.35793	0.01719
1701.07216	0.01753
1699.78639	0.01779
1698.50062	0.01795
1697.21485	0.01807
1695.92908	0.01821
1694.64331	0.01839
1693.35754	0.01862
1692.07178	0.01889
1690.78601	0.01921
1689.50024	0.01956
1688.21447	0.01992
1686.92870	0.02026
1685.64293	0.02057
1684.35716	0.02085
1683.07139	0.02109
1681.78563	0.02131
1680.49986	0.02152
1679.21409	0.02176
1677.92832	0.02204
1676.64255	0.02234
1675.35678	0.02266
1674.07101	0.02299
1672.78524	0.02331
1671.49947	0.02359
1670.21371	0.02383
1668.92794	0.02405
1667.64217	0.02431
1666.35640	0.02461
1665.07063	0.02496
1663.78486	0.02530
1662.49909	0.02559
1661.21332	0.02582
1659.92756	0.02602
1658.64179	0.02628
1657.35602	0.02662
1656.07025	0.02705
1654.78448	0.02749
1653.49871	0.02784
1652.21294	0.02803
1650.92717	0.02811
1649.64140	0.02816
1648.35564	0.02825
1647.06987	0.02840
1645.78410	0.02860
1644.49833	0.02880
1643.21256	0.02901
1641.92679	0.02919
1640.64102	0.02934
1639.35525	0.02947
1638.06949	0.02960
1636.78372	0.02977
1635.49795	0.02995
1634.21218	0.03010
1632.92641	0.03022
1631.64064	0.03036
1630.35487	0.03057
1629.06910	0.03082
1627.78333	0.03108
1626.49757	0.03135
1625.21180	0.03163
1623.92603	0.03195
1622.64026	0.03230
1621.35449	0.03266
1620.06872	0.03299
1618.78295	0.03329
1617.49718	0.03353
1616.21142	0.03376
1614.92565	0.03401
1613.63988	0.03431
1612.35411	0.03464
1611.06834	0.03496
1609.78257	0.03522
1608.49680	0.03548
1607.21103	0.03577
1605.92526	0.03614
1604.63950	0.03654
1603.35373	0.03692
1602.06796	0.03726
1600.78219	0.03756
1599.49642	0.03782
1598.21065	0.03804
1596.92488	0.03824
1595.63911	0.03844
1594.35335	0.03866
1593.06758	0.03892
1591.78181	0.03920
1590.49604	0.03944
1589.21027	0.03961
1587.92450	0.03970
1586.63873	0.03974
1585.35296	0.03979
1584.06719	0.03989
1582.78143	0.04006
1581.49566	0.04026
1580.20989	0.04041
1578.92412	0.04052
1577.63835	0.04061
1576.35258	0.04071
1575.06681	0.04083
1573.78104	0.04094
1572.49528	0.04100
1571.20951	0.04105
1569.92374	0.04110
1568.63797	0.04115
1567.35220	0.04116
1566.06643	0.04109
1564.78066	0.04097
1563.49489	0.04086
1562.20912	0.04077
1560.92336	0.04069
1559.63759	0.04060
1558.35182	0.04047
1557.06605	0.04032
1555.78028	0.04016
1554.49451	0.04002
1553.20874	0.03988
1551.92297	0.03975
1550.63721	0.03962
1549.35144	0.03946
1548.06567	0.03928
1546.77990	0.03910
1545.49413	0.03894
1544.20836	0.03881
1542.92259	0.03867
1541.63682	0.03848
1540.35105	0.03825
1539.06529	0.03802
1537.77952	0.03782
1536.49375	0.03769
1535.20798	0.03767
1533.92221	0.03771
1532.63644	0.03780
1531.35067	0.03792
1530.06490	0.03809
1528.77914	0.03835
1527.49337	0.03868
1526.20760	0.03909
1524.92183	0.03953
1523.63606	0.03998
1522.35029	0.04047
1521.06452	0.04101
1519.77875	0.04167
1518.49298	0.04246
1517.20722	0.04335
1515.92145	0.04427
1514.63568	0.04521
1513.34991	0.04617
1512.06414	0.04718
1510.77837	0.04826
1509.49260	0.04940
1508.20683	0.05053
1506.92107	0.05161
1505.63530	0.05265
1504.34953	0.05363
1503.06376	0.05457
1501.77799	0.05547
1500.49222	0.05634
1499.20645	0.05720
1497.92068	0.05807
1496.63491	0.05893
1495.34915	0.05973
1494.06338	0.06041
1492.77761	0.06097
1491.49184	0.06150
1490.20607	0.06209
1488.92030	0.06281
1487.63453	0.06366
1486.34876	0.06458
1485.06299	0.06554
1483.77723	0.06650
1482.49146	0.06747
1481.20569	0.06843
1479.91992	0.06937
1478.63415	0.07028
1477.34838	0.07115
1476.06261	0.07198
1474.77684	0.07275
1473.49108	0.07339
1472.20531	0.07386
1470.91954	0.07418
1469.63377	0.07440
1468.34800	0.07460
1467.06223	0.07482
1465.77646	0.07505
1464.49069	0.07526
1463.20492	0.07546
1461.91916	0.07568
1460.63339	0.07601
1459.34762	0.07647
1458.06185	0.07705
1456.77608	0.07764
1455.49031	0.07816
1454.20454	0.07858
1452.91877	0.07893
1451.63301	0.07921
1450.34724	0.07944
1449.06147	0.07962
1447.77570	0.07979
1446.48993	0.07991
1445.20416	0.07995
1443.91839	0.07989
1442.63262	0.07975
1441.34685	0.07959
1440.06109	0.07947
1438.77532	0.07945
1437.48955	0.07956
1436.20378	0.07982
1434.91801	0.08025
1433.63224	0.08087
1432.34647	0.08168
1431.06070	0.08265
1429.77494	0.08374
1428.48917	0.08493
1427.20340	0.08618
1425.91763	0.08747
1424.63186	0.08874
1423.34609	0.08998
1422.06032	0.09117
1420.77455	0.09230
1419.48878	0.09330
1418.20302	0.09411
1416.91725	0.09470
1415.63148	0.09508
1414.34571	0.09530
1413.05994	0.09535
1411.77417	0.09522
1410.48840	0.09490
1409.20263	0.09437
1407.91687	0.09367
1406.63110	0.09280
1405.34533	0.09176
1404.05956	0.09057
1402.77379	0.08927
1401.48802	0.08787
1400.20225	0.08636
1398.91648	0.08472
1397.63071	0.08294
1396.34495	0.08107
1395.05918	0.07917
1393.77341	0.07727
1392.48764	0.07539
1391.20187	0.07349
1389.91610	0.07157
1388.63033	0.06965
1387.34456	0.06776
1386.05880	0.06591
1384.77303	0.06410
1383.48726	0.06228
1382.20149	0.06047
1380.91572	0.05865
1379.62995	0.05686
1378.34418	0.05510
1377.05841	0.05336
1375.77264	0.05164
1374.48688	0.04996
1373.20111	0.04832
1371.91534	0.04674
1370.62957	0.04520
1369.34380	0.04369
1368.05803	0.04226
1366.77226	0.04096
1365.48649	0.03980
1364.20073	0.03875
1362.91496	0.03773
1361.62919	0.03672
1360.34342	0.03574
1359.05765	0.03480
1357.77188	0.03392
1356.48611	0.03308
1355.20034	0.03227
1353.91457	0.03153
1352.62881	0.03086
1351.34304	0.03025
1350.05727	0.02966
1348.77150	0.02907
1347.48573	0.02846
1346.19996	0.02789
1344.91419	0.02736
1343.62842	0.02687
1342.34266	0.02639
1341.05689	0.02592
1339.77112	0.02549
1338.48535	0.02511
1337.19958	0.02476
1335.91381	0.02440
1334.62804	0.02403
1333.34227	0.02365
1332.05650	0.02329
1330.77074	0.02295
1329.48497	0.02263
1328.19920	0.02237
1326.91343	0.02216
1325.62766	0.02198
1324.34189	0.02180
1323.05612	0.02158
1321.77035	0.02134
1320.48459	0.02110
1319.19882	0.02089
1317.91305	0.02071
1316.62728	0.02052
1315.34151	0.02027
1314.05574	0.01998
1312.76997	0.01969
1311.48420	0.01943
1310.19843	0.01925
1308.91267	0.01914
1307.62690	0.01908
1306.34113	0.01901
1305.05536	0.01890
1303.76959	0.01875
1302.48382	0.01859
1301.19805	0.01846
1299.91228	0.01836
1298.62652	0.01826
1297.34075	0.01814
1296.05498	0.01800
1294.76921	0.01788
1293.48344	0.01780
1292.19767	0.01775
1290.91190	0.01770
1289.62613	0.01763
1288.34036	0.01753
1287.05460	0.01742
1285.76883	0.01733
1284.48306	0.01723
1283.19729	0.01710
1281.91152	0.01693
1280.62575	0.01676
1279.33998	0.01665
1278.05421	0.01661
1276.76845	0.01658
1275.48268	0.01652
1274.19691	0.01644
1272.91114	0.01636
1271.62537	0.01633
1270.33960	0.01632
1269.05383	0.01629
1267.76806	0.01622
1266.48229	0.01613
1265.19653	0.01606
1263.91076	0.01599
1262.62499	0.01592
1261.33922	0.01583
1260.05345	0.01576
1258.76768	0.01574
1257.48191	0.01579
1256.19614	0.01586
1254.91037	0.01590
1253.62461	0.01587
1252.33884	0.01576
1251.05307	0.01561
1249.76730	0.01548
1248.48153	0.01541
1247.19576	0.01539
1245.90999	0.01539
1244.62422	0.01539
1243.33846	0.01537
1242.05269	0.01535
1240.76692	0.01533
1239.48115	0.01531
1238.19538	0.01532
1236.90961	0.01535
1235.62384	0.01537
1234.33807	0.01534
1233.05230	0.01528
1231.76654	0.01524
1230.48077	0.01524
1229.19500	0.01528
1227.90923	0.01533
1226.62346	0.01536
1225.33769	0.01538
1224.05192	0.01537
1222.76615	0.01536
1221.48039	0.01539
1220.19462	0.01547
1218.90885	0.01560
1217.62308	0.01575
1216.33731	0.01588
1215.05154	0.01595
1213.76577	0.01598
1212.48000	0.01599
1211.19423	0.01600
1209.90847	0.01604
1208.62270	0.01612
1207.33693	0.01625
1206.05116	0.01641
1204.76539	0.01659
1203.47962	0.01677
1202.19385	0.01692
1200.90808	0.01702
1199.62232	0.01706
1198.33655	0.01719
1197.05078	0.01733
1195.76501	0.01747
1194.47924	0.01757
1193.19347	0.01761
1191.90770	0.01765
1190.62193	0.01773
1189.33616	0.01786
1188.05040	0.01802
1186.76463	0.01816
1185.47886	0.01825
1184.19309	0.01828
1182.90732	0.01830
1181.62155	0.01836
1180.33578	0.01845
1179.05001	0.01852
1177.76425	0.01856
1176.47848	0.01860
1175.19271	0.01867
1173.90694	0.01879
1172.62117	0.01890
1171.33540	0.01898
1170.04963	0.01905
1168.76386	0.01916
1167.47809	0.01932
1166.19233	0.01951
1164.90656	0.01973
1163.62079	0.01995
1162.33502	0.02017
1161.04925	0.02040
1159.76348	0.02062
1158.47771	0.02084
1157.19194	0.02106
1155.90618	0.02128
1154.62041	0.02153
1153.33464	0.02183
1152.04887	0.02220
1150.76310	0.02268
1149.47733	0.02326
1148.19156	0.02390
1146.90579	0.02454
1145.62002	0.02512
1144.33426	0.02565
1143.04849	0.02620
1141.76272	0.02686
1140.47695	0.02769
1139.19118	0.02867
1137.90541	0.02973
1136.61964	0.03084
1135.33387	0.03201
1134.04811	0.03331
1132.76234	0.03478
1131.47657	0.03646
1130.19080	0.03834
1128.90503	0.04041
1127.61926	0.04269
1126.33349	0.04518
1125.04772	0.04788
1123.76195	0.05077
1122.47619	0.05376
1121.19042	0.05678
1119.90465	0.05978
1118.61888	0.06276
1117.33311	0.06573
1116.04734	0.06874
1114.76157	0.07179
1113.47580	0.07485
1112.19004	0.07788
1110.90427	0.08088
1109.61850	0.08387
1108.33273	0.08681
1107.04696	0.08966
1105.76119	0.09242
1104.47542	0.09511
1103.18965	0.09773
1101.90388	0.10028
1100.61812	0.10277
1099.33235	0.10519
1098.04658	0.10755
1096.76081	0.10984
1095.47504	0.11203
1094.18927	0.11411
1092.90350	0.11604
1091.61773	0.11787
1090.33197	0.11963
1089.04620	0.12137
1087.76043	0.12311
1086.47466	0.12482
1085.18889	0.12648
1083.90312	0.12817
1082.61735	0.13002
1081.33158	0.13212
1080.04581	0.13443
1078.76005	0.13688
1077.47428	0.13940
1076.18851	0.14202
1074.90274	0.14474
1073.61697	0.14757
1072.33120	0.15050
1071.04543	0.15356
1069.75966	0.15675
1068.47390	0.16006
1067.18813	0.16346
1065.90236	0.16691
1064.61659	0.17036
1063.33082	0.17381
1062.04505	0.17725
1060.75928	0.18071
1059.47351	0.18417
1058.18774	0.18764
1056.90198	0.19112
1055.61621	0.19457
1054.33044	0.19795
1053.04467	0.20126
1051.75890	0.20457
1050.47313	0.20795
1049.18736	0.21145
1047.90159	0.21508
1046.61583	0.21880
1045.33006	0.22255
1044.04429	0.22629
1042.75852	0.23003
1041.47275	0.23379
1040.18698	0.23757
1038.90121	0.24138
1037.61544	0.24519
1036.32967	0.24893
1035.04391	0.25254
1033.75814	0.25593
1032.47237	0.25905
1031.18660	0.26189
1029.90083	0.26443
1028.61506	0.26666
1027.32929	0.26853
1026.04352	0.26998
1024.75775	0.27098
1023.47199	0.27150
1022.18622	0.27152
1020.90045	0.27102
1019.61468	0.26994
1018.32891	0.26825
1017.04314	0.26592
1015.75737	0.26293
1014.47160	0.25930
1013.18584	0.25505
1011.90007	0.25022
1010.61430	0.24484
1009.32853	0.23895
1008.04276	0.23253
1006.75699	0.22558
1005.47122	0.21816
1004.18545	0.21038
1002.89968	0.20237
1001.61392	0.19423
1000.32815	0.18596
999.04238	0.17761
997.75661	0.16926
996.47084	0.16107
995.18507	0.15318
993.89930	0.14562
992.61353	0.13834
991.32777	0.13134
990.04200	0.12468
988.75623	0.11841
987.47046	0.11255
986.18469	0.10709
984.89892	0.10204
983.61315	0.09740
982.32738	0.09311
981.04161	0.08914
979.75585	0.08545
978.47008	0.08203
977.18431	0.07891
975.89854	0.07619
974.61277	0.07399
973.32700	0.07238
972.04123	0.07134
970.75546	0.07084
969.46970	0.07083
968.18393	0.07123
966.89816	0.07193
965.61239	0.07281
964.32662	0.07377
963.04085	0.07465
961.75508	0.07526
960.46931	0.07537
959.18354	0.07484
957.89778	0.07364
956.61201	0.07188
955.32624	0.06978
954.04047	0.06754
952.75470	0.06526
951.46893	0.06301
950.18316	0.06082
948.89739	0.05866
947.61163	0.05654
946.32586	0.05451
945.04009	0.05271
943.75432	0.05118
942.46855	0.04980
941.18278	0.04844
939.89701	0.04702
938.61124	0.04562
937.32547	0.04434
936.03971	0.04322
934.75394	0.04223
933.46817	0.04133
932.18240	0.04048
930.89663	0.03970
929.61086	0.03901
928.32509	0.03838
927.03932	0.03779
925.75356	0.03719
924.46779	0.03658
923.18202	0.03601
921.89625	0.03553
920.61048	0.03516
919.32471	0.03480
918.03894	0.03440
916.75317	0.03395
915.46740	0.03351
914.18164	0.03315
912.89587	0.03287
911.61010	0.03261
910.32433	0.03231
909.03856	0.03195
907.75279	0.03155
906.46702	0.03118
905.18125	0.03087
903.89549	0.03064
902.60972	0.03046
901.32395	0.03031
900.03818	0.03016
898.75241	0.03005
897.46664	0.03001
896.18087	0.03005
894.89510	0.03012
893.60933	0.03011
892.32357	0.02999
891.03780	0.02984
889.75203	0.02985
888.46626	0.03020
887.18049	0.03102
885.89472	0.03239
884.60895	0.03437
883.32318	0.03691
882.03742	0.03972
880.75165	0.04240
879.46588	0.04462
878.18011	0.04631
876.89434	0.04772
875.60857	0.04913
874.32280	0.05060
873.03703	0.05186
871.75126	0.05254
870.46550	0.05247
869.17973	0.05165
867.89396	0.05014
866.60819	0.04806
865.32242	0.04560
864.03665	0.04307
862.75088	0.04072
861.46511	0.03864
860.17935	0.03678
858.89358	0.03516
857.60781	0.03384
856.32204	0.03288
855.03627	0.03218
853.75050	0.03160
852.46473	0.03107
851.17896	0.03060
849.89319	0.03025
848.60743	0.03000
847.32166	0.02981
846.03589	0.02966
844.75012	0.02956
843.46435	0.02948
842.17858	0.02936
840.89281	0.02917
839.60704	0.02889
838.32128	0.02858
837.03551	0.02830
835.74974	0.02808
834.46397	0.02795
833.17820	0.02789
831.89243	0.02785
830.60666	0.02778
829.32089	0.02767
828.03512	0.02756
826.74936	0.02751
825.46359	0.02751
824.17782	0.02752
822.89205	0.02748
821.60628	0.02741
820.32051	0.02737
819.03474	0.02743
817.74897	0.02751
816.46321	0.02755
815.17744	0.02752
813.89167	0.02745
812.60590	0.02737
811.32013	0.02732
810.03436	0.02731
808.74859	0.02736
807.46282	0.02745
806.17705	0.02753
804.89129	0.02755
803.60552	0.02751
802.31975	0.02744
801.03398	0.02738
799.74821	0.02735
798.46244	0.02735
797.17667	0.02738
795.89090	0.02741
794.60513	0.02744
793.31937	0.02746
792.03360	0.02749
790.74783	0.02752
789.46206	0.02751
788.17629	0.02745
786.89052	0.02733
785.60475	0.02719
784.31898	0.02710
783.03322	0.02709
781.74745	0.02713
780.46168	0.02718
779.17591	0.02720
777.89014	0.02722
776.60437	0.02725
775.31860	0.02728
774.03283	0.02727
772.74706	0.02724
771.46130	0.02720
770.17553	0.02717
768.88976	0.02715
767.60399	0.02713
766.31822	0.02715
765.03245	0.02724
763.74668	0.02742
762.46091	0.02762
761.17515	0.02779
759.88938	0.02786
758.60361	0.02783
757.31784	0.02770
756.03207	0.02752
754.74630	0.02738
753.46053	0.02739
752.17476	0.02756
750.88899	0.02776
749.60323	0.02788
748.31746	0.02790
747.03169	0.02789
745.74592	0.02787
744.46015	0.02780
743.17438	0.02763
741.88861	0.02737
740.60284	0.02713
739.31708	0.02703
738.03131	0.02715
736.74554	0.02741
735.45977	0.02763
734.17400	0.02767
732.88823	0.02754
731.60246	0.02733
730.31669	0.02719
729.03092	0.02716
727.74516	0.02726
726.45939	0.02746
725.17362	0.02774
723.88785	0.02793
722.60208	0.02820
721.31631	0.02843
720.03054	0.02855
718.74477	0.02864
717.45901	0.02868
716.17324	0.02865
714.88747	0.02852
713.60170	0.02833
712.31593	0.02815
711.03016	0.02806
709.74439	0.02806
708.45862	0.02808
707.17285	0.02806
705.88709	0.02802
704.60132	0.02798
703.31555	0.02800
702.02978	0.02806
700.74401	0.02814
699.45824	0.02821
698.17247	0.02827
696.88670	0.02834
695.60094	0.02843
694.31517	0.02856
693.02940	0.02868
691.74363	0.02878
690.45786	0.02882
689.17209	0.02880
687.88632	0.02874
686.60055	0.02864
685.31478	0.02851
684.02902	0.02839
682.74325	0.02829
681.45748	0.02823
680.17171	0.02822
678.88594	0.02823
677.60017	0.02826
676.31440	0.02833
675.02863	0.02844
673.74287	0.02856
672.45710	0.02872
671.17133	0.02898
669.88556	0.02922
668.59979	0.02904
667.31402	0.02902
666.02825	0.02930
664.74248	0.02906
663.45671	0.02881
662.17095	0.02872
660.88518	0.02866
659.59941	0.02860
658.31364	0.02855
657.02787	0.02856
655.74210	0.02865
654.45633	0.02877
653.17056	0.02886
651.88480	0.02894
650.59903	0.02899
649.31326	0.02906
648.02749	0.02916
646.74172	0.02926
645.45595	0.02936
644.17018	0.02946
642.88441	0.02957
641.59864	0.02968
640.31288	0.02979
639.02711	0.02992
637.74134	0.03011
636.45557	0.03039
635.16980	0.03072
633.88403	0.03102
632.59826	0.03129
631.31249	0.03160
630.02673	0.03223
628.74096	0.03302
627.45519	0.03313
626.16942	0.03418
624.88365	0.03606
623.59788	0.03835
622.31211	0.04093
621.02634	0.04386
619.74057	0.04718
618.45481	0.05059
617.16904	0.05338
615.88327	0.05489
614.59750	0.05534
613.31173	0.05593
612.02596	0.05829
610.74019	0.06351
609.45442	0.07145
608.16866	0.08044
606.88289	0.08830
605.59712	0.09368
604.31135	0.09655
603.02558	0.09760
601.73981	0.09740
600.45404	0.09622
599.16827	0.09424
597.88250	0.09173
596.59674	0.08896
595.31097	0.08615
594.02520	0.08343
592.73943	0.08097
591.45366	0.07898
590.16789	0.07769
588.88212	0.07733
587.59635	0.07792
586.31059	0.07926
585.02482	0.08104
583.73905	0.08309
582.45328	0.08543
581.16751	0.08807
579.88174	0.09092
578.59597	0.09376
577.31020	0.09647
576.02443	0.09908
574.73867	0.10166
573.45290	0.10426
572.16713	0.10687
570.88136	0.10960
569.59559	0.11264
568.30982	0.11614
567.02405	0.12003
565.73828	0.12391
564.45251	0.12720
563.16675	0.12923
561.88098	0.12949
560.59521	0.12777
559.30944	0.12417
558.02367	0.11898
556.73790	0.11257
555.45213	0.10540
554.16636	0.09802
552.88060	0.09100
551.59483	0.08469
550.30906	0.07917
549.02329	0.07427
547.73752	0.06981
546.45175	0.06573
545.16598	0.06211
543.88021	0.05899
542.59444	0.05634
541.30868	0.05408
540.02291	0.05214
538.73714	0.05046
537.45137	0.04895
536.16560	0.04753
534.87983	0.04618
533.59406	0.04493
532.30829	0.04373
531.02253	0.04254
529.73676	0.04137
528.45099	0.04032
527.16522	0.03950
525.87945	0.03890
524.59368	0.03840
523.30791	0.03785
522.02214	0.03718
520.73637	0.03647
519.45061	0.03579
518.16484	0.03515
516.87907	0.03452
515.59330	0.03384
514.30753	0.03311
513.02176	0.03240
511.73599	0.03182
510.45022	0.03141
509.16446	0.03113
507.87869	0.03089
506.59292	0.03061
505.30715	0.03029
504.02138	0.02998
502.73561	0.02970
501.44984	0.02946
500.16407	0.02930
498.87830	0.02921
497.59254	0.02913
496.30677	0.02897
495.02100	0.02869
493.73523	0.02831
492.44946	0.02795
491.16369	0.02771
489.87792	0.02762
488.59215	0.02759
487.30639	0.02750
486.02062	0.02730
484.73485	0.02708
483.44908	0.02694
482.16331	0.02692
480.87754	0.02698
479.59177	0.02708
478.30600	0.02723
477.02023	0.02746
475.73447	0.02778
474.44870	0.02813
473.16293	0.02845
471.87716	0.02865
470.59139	0.02875
469.30562	0.02877
468.01985	0.02871
466.73408	0.02854
465.44832	0.02828
464.16255	0.02798
462.87678	0.02768
461.59101	0.02740
460.30524	0.02710
459.01947	0.02674
457.73370	0.02632
456.44793	0.02587
455.16216	0.02547
453.87640	0.02516
452.59063	0.02495
451.30486	0.02479
450.01909	0.02465
448.73332	0.02451
447.44755	0.02436
446.16178	0.02419
444.87601	0.02398
443.59025	0.02374
442.30448	0.02350
441.01871	0.02333
439.73294	0.02323
438.44717	0.02316
437.16140	0.02306
435.87563	0.02294
434.58986	0.02284
433.30409	0.02279
432.01833	0.02277
430.73256	0.02272
429.44679	0.02260
428.16102	0.02243
426.87525	0.02226
425.58948	0.02212
424.30371	0.02201
423.01794	0.02192
421.73218	0.02182
420.44641	0.02171
419.16064	0.02157
417.87487	0.02140
416.58910	0.02121
415.30333	0.02106
414.01756	0.02097
412.73179	0.02097
411.44602	0.02098
410.16026	0.02098
408.87449	0.02098
407.58872	0.02101
406.30295	0.02107
405.01718	0.02113
403.73141	0.02116
402.44564	0.02120
401.15987	0.02127
399.87411	0.02137
