3997.45528	0.01989
3996.16951	0.02032
3994.88374	0.02093
3993.59798	0.02144
3992.31221	0.02149
3991.02644	0.02103
3989.74067	0.02037
3988.45490	0.01987
3987.16913	0.01975
3985.88336	0.01991
3984.59759	0.02002
3983.31183	0.01977
3982.02606	0.01912
3980.74029	0.01843
3979.45452	0.01824
3978.16875	0.01887
3976.88298	0.02006
3975.59721	0.02112
3974.31144	0.02143
3973.02567	0.02091
3971.73991	0.02011
3970.45414	0.01976
3969.16837	0.02022
3967.88260	0.02120
3966.59683	0.02213
3965.31106	0.02255
3964.02529	0.02236
3962.73952	0.02160
3961.45376	0.02039
3960.16799	0.01907
3958.88222	0.01822
3957.59645	0.01827
3956.31068	0.01901
3955.02491	0.01979
3953.73914	0.02019
3952.45337	0.02039
3951.16760	0.02084
3949.88184	0.02167
3948.59607	0.02247
3947.31030	0.02275
3946.02453	0.02239
3944.73876	0.02173
3943.45299	0.02129
3942.16722	0.02131
3940.88145	0.02163
3939.59569	0.02201
3938.30992	0.02226
3937.02415	0.02227
3935.73838	0.02197
3934.45261	0.02137
3933.16684	0.02069
3931.88107	0.02022
3930.59530	0.02017
3929.30953	0.02049
3928.02377	0.02088
3926.73800	0.02096
3925.45223	0.02071
3924.16646	0.02053
3922.88069	0.02077
3921.59492	0.02133
3920.30915	0.02190
3919.02338	0.02229
3917.73762	0.02258
3916.45185	0.02282
3915.16608	0.02287
3913.88031	0.02263
3912.59454	0.02237
3911.30877	0.02243
3910.02300	0.02289
3908.73723	0.02356
3907.45146	0.02422
3906.16570	0.02467
3904.87993	0.02467
3903.59416	0.02393
3902.30839	0.02246
3901.02262	0.02080
3899.73685	0.01980
3898.45108	0.01982
3897.16531	0.02048
3895.87955	0.02120
3894.59378	0.02181
3893.30801	0.02230
3892.02224	0.02253
3890.73647	0.02230
3889.45070	0.02162
3888.16493	0.02079
3886.87916	0.02039
3885.59339	0.02081
3884.30763	0.02160
3883.02186	0.02194
3881.73609	0.02161
3880.45032	0.02131
3879.16455	0.02164
3877.87878	0.02242
3876.59301	0.02308
3875.30724	0.02333
3874.02148	0.02327
3872.73571	0.02298
3871.44994	0.02251
3870.16417	0.02219
3868.87840	0.02234
3867.59263	0.02257
3866.30686	0.02231
3865.02109	0.02158
3863.73532	0.02078
3862.44956	0.02017
3861.16379	0.01985
3859.87802	0.01983
3858.59225	0.02011
3857.30648	0.02069
3856.02071	0.02141
3854.73494	0.02201
3853.44917	0.02231
3852.16341	0.02216
3850.87764	0.02169
3849.59187	0.02146
3848.30610	0.02189
3847.02033	0.02275
3845.73456	0.02356
3844.44879	0.02406
3843.16302	0.02415
3841.87725	0.02373
3840.59149	0.02278
3839.30572	0.02163
3838.01995	0.02086
3836.73418	0.02072
3835.44841	0.02091
3834.16264	0.02109
3832.87687	0.02131
3831.59110	0.02166
3830.30534	0.02198
3829.01957	0.02195
3827.73380	0.02154
3826.44803	0.02115
3825.16226	0.02108
3823.87649	0.02117
3822.59072	0.02116
3821.30495	0.02122
3820.01918	0.02171
3818.73342	0.02245
3817.44765	0.02290
3816.16188	0.02289
3814.87611	0.02262
3813.59034	0.02228
3812.30457	0.02216
3811.01880	0.02250
3809.73303	0.02289
3808.44726	0.02269
3807.16150	0.02204
3805.87573	0.02166
3804.58996	0.02181
3803.30419	0.02212
3802.01842	0.02233
3800.73265	0.02247
3799.44688	0.02248
3798.16111	0.02228
3796.87535	0.02213
3795.58958	0.02224
3794.30381	0.02240
3793.01804	0.02236
3791.73227	0.02217
3790.44650	0.02194
3789.16073	0.02168
3787.87496	0.02148
3786.58919	0.02158
3785.30343	0.02223
3784.01766	0.02326
3782.73189	0.02408
3781.44612	0.02414
3780.16035	0.02350
3778.87458	0.02268
3777.58881	0.02205
3776.30304	0.02165
3775.01728	0.02140
3773.73151	0.02121
3772.44574	0.02101
3771.15997	0.02089
3769.87420	0.02118
3768.58843	0.02198
3767.30266	0.02293
3766.01689	0.02368
3764.73112	0.02411
3763.44536	0.02419
3762.15959	0.02389
3760.87382	0.02325
3759.58805	0.02239
3758.30228	0.02144
3757.01651	0.02059
3755.73074	0.02010
3754.44497	0.01996
3753.15921	0.02006
3751.87344	0.02034
3750.58767	0.02067
3749.30190	0.02106
3748.01613	0.02155
3746.73036	0.02174
3745.44459	0.02135
3744.15882	0.02086
3742.87305	0.02066
3741.58729	0.02066
3740.30152	0.02082
3739.01575	0.02103
3737.72998	0.02103
3736.44421	0.02090
3735.15844	0.02097
3733.87267	0.02108
3732.58690	0.02090
3731.30114	0.02054
3730.01537	0.02042
3728.72960	0.02070
3727.44383	0.02122
3726.15806	0.02165
3724.87229	0.02161
3723.58652	0.02103
3722.30075	0.02019
3721.01498	0.01947
3719.72922	0.01910
3718.44345	0.01924
3717.15768	0.02001
3715.87191	0.02125
3714.58614	0.02245
3713.30037	0.02305
3712.01460	0.02288
3710.72883	0.02215
3709.44307	0.02118
3708.15730	0.02034
3706.87153	0.01981
3705.58576	0.01958
3704.29999	0.01961
3703.01422	0.01997
3701.72845	0.02067
3700.44268	0.02154
3699.15691	0.02229
3697.87115	0.02274
3696.58538	0.02279
3695.29961	0.02232
3694.01384	0.02139
3692.72807	0.02046
3691.44230	0.01988
3690.15653	0.01964
3688.87076	0.01979
3687.58500	0.02044
3686.29923	0.02124
3685.01346	0.02168
3683.72769	0.02165
3682.44192	0.02151
3681.15615	0.02166
3679.87038	0.02226
3678.58461	0.02308
3677.29884	0.02358
3676.01308	0.02352
3674.72731	0.02304
3673.44154	0.02225
3672.15577	0.02131
3670.87000	0.02084
3669.58423	0.02133
3668.29846	0.02238
3667.01269	0.02325
3665.72693	0.02359
3664.44116	0.02343
3663.15539	0.02301
3661.86962	0.02266
3660.58385	0.02261
3659.29808	0.02276
3658.01231	0.02289
3656.72654	0.02302
3655.44077	0.02343
3654.15501	0.02412
3652.86924	0.02473
3651.58347	0.02504
3650.29770	0.02512
3649.01193	0.02506
3647.72616	0.02482
3646.44039	0.02440
3645.15462	0.02397
3643.86886	0.02377
3642.58309	0.02388
3641.29732	0.02426
3640.01155	0.02475
3638.72578	0.02528
3637.44001	0.02579
3636.15424	0.02625
3634.86847	0.02667
3633.58270	0.02698
3632.29694	0.02687
3631.01117	0.02617
3629.72540	0.02530
3628.43963	0.02507
3627.15386	0.02569
3625.86809	0.02678
3624.58232	0.02804
3623.29655	0.02921
3622.01079	0.02981
3620.72502	0.02950
3619.43925	0.02867
3618.15348	0.02810
3616.86771	0.02817
3615.58194	0.02865
3614.29617	0.02913
3613.01040	0.02946
3611.72463	0.02974
3610.43887	0.03000
3609.15310	0.03019
3607.86733	0.03028
3606.58156	0.03021
3605.29579	0.02999
3604.01002	0.02988
3602.72425	0.03026
3601.43848	0.03124
3600.15272	0.03244
3598.86695	0.03329
3597.58118	0.03363
3596.29541	0.03374
3595.00964	0.03393
3593.72387	0.03429
3592.43810	0.03480
3591.15233	0.03535
3589.86656	0.03570
3588.58080	0.03569
3587.29503	0.03532
3586.00926	0.03469
3584.72349	0.03397
3583.43772	0.03348
3582.15195	0.03348
3580.86618	0.03401
3579.58041	0.03482
3578.29464	0.03565
3577.00888	0.03641
3575.72311	0.03712
3574.43734	0.03769
3573.15157	0.03793
3571.86580	0.03781
3570.58003	0.03753
3569.29426	0.03744
3568.00849	0.03776
3566.72273	0.03846
3565.43696	0.03932
3564.15119	0.04005
3562.86542	0.04052
3561.57965	0.04069
3560.29388	0.04057
3559.00811	0.04028
3557.72234	0.04001
3556.43657	0.03990
3555.15081	0.03992
3553.86504	0.03993
3552.57927	0.03996
3551.29350	0.04020
3550.00773	0.04076
3548.72196	0.04154
3547.43619	0.04235
3546.15042	0.04305
3544.86466	0.04354
3543.57889	0.04377
3542.29312	0.04384
3541.00735	0.04401
3539.72158	0.04445
3538.43581	0.04498
3537.15004	0.04526
3535.86427	0.04520
3534.57850	0.04510
3533.29274	0.04527
3532.00697	0.04569
3530.72120	0.04608
3529.43543	0.04629
3528.14966	0.04650
3526.86389	0.04695
3525.57812	0.04760
3524.29235	0.04811
3523.00659	0.04819
3521.72082	0.04790
3520.43505	0.04758
3519.14928	0.04749
3517.86351	0.04759
3516.57774	0.04775
3515.29197	0.04793
3514.00620	0.04821
3512.72043	0.04859
3511.43467	0.04895
3510.14890	0.04925
3508.86313	0.04957
3507.57736	0.04999
3506.29159	0.05043
3505.00582	0.05068
3503.72005	0.05062
3502.43428	0.05036
3501.14852	0.05017
3499.86275	0.05026
3498.57698	0.05065
3497.29121	0.05109
3496.00544	0.05131
3494.71967	0.05130
3493.43390	0.05127
3492.14813	0.05143
3490.86236	0.05175
3489.57660	0.05202
3488.29083	0.05216
3487.00506	0.05223
3485.71929	0.05232
3484.43352	0.05247
3483.14775	0.05276
3481.86198	0.05324
3480.57621	0.05385
3479.29045	0.05447
3478.00468	0.05500
3476.71891	0.05539
3475.43314	0.05564
3474.14737	0.05570
3472.86160	0.05556
3471.57583	0.05537
3470.29006	0.05538
3469.00429	0.05570
3467.71853	0.05624
3466.43276	0.05677
3465.14699	0.05714
3463.86122	0.05732
3462.57545	0.05732
3461.28968	0.05717
3460.00391	0.05688
3458.71814	0.05653
3457.43238	0.05627
3456.14661	0.05626
3454.86084	0.05663
3453.57507	0.05736
3452.28930	0.05825
3451.00353	0.05895
3449.71776	0.05920
3448.43199	0.05899
3447.14622	0.05851
3445.86046	0.05800
3444.57469	0.05765
3443.28892	0.05764
3442.00315	0.05799
3440.71738	0.05849
3439.43161	0.05886
3438.14584	0.05906
3436.86007	0.05923
3435.57431	0.05953
3434.28854	0.05984
3433.00277	0.06001
3431.71700	0.05996
3430.43123	0.05986
3429.14546	0.05992
3427.85969	0.06020
3426.57392	0.06059
3425.28815	0.06085
3424.00239	0.06088
3422.71662	0.06075
3421.43085	0.06063
3420.14508	0.06058
3418.85931	0.06054
3417.57354	0.06038
3416.28777	0.06014
3415.00200	0.05999
3413.71624	0.06001
3412.43047	0.06006
3411.14470	0.06004
3409.85893	0.06005
3408.57316	0.06036
3407.28739	0.06104
3406.00162	0.06185
3404.71585	0.06248
3403.43008	0.06280
3402.14432	0.06288
3400.85855	0.06287
3399.57278	0.06289
3398.28701	0.06293
3397.00124	0.06303
3395.71547	0.06326
3394.42970	0.06360
3393.14393	0.06391
3391.85817	0.06399
3390.57240	0.06375
3389.28663	0.06338
3388.00086	0.06316
3386.71509	0.06318
3385.42932	0.06330
3384.14355	0.06332
3382.85778	0.06320
3381.57201	0.06302
3380.28625	0.06291
3379.00048	0.06305
3377.71471	0.06350
3376.42894	0.06415
3375.14317	0.06468
3373.85740	0.06485
3372.57163	0.06477
3371.28586	0.06476
3370.00010	0.06504
3368.71433	0.06554
3367.42856	0.06597
3366.14279	0.06597
3364.85702	0.06535
3363.57125	0.06422
3362.28548	0.06302
3360.99971	0.06224
3359.71394	0.06212
3358.42818	0.06258
3357.14241	0.06332
3355.85664	0.06400
3354.57087	0.06438
3353.28510	0.06448
3351.99933	0.06441
3350.71356	0.06428
3349.42779	0.06409
3348.14202	0.06381
3346.85626	0.06343
3345.57049	0.06310
3344.28472	0.06306
3342.99895	0.06348
3341.71318	0.06420
3340.42741	0.06478
3339.14164	0.06479
3337.85587	0.06417
3336.57011	0.06326
3335.28434	0.06252
3333.99857	0.06219
3332.71280	0.06212
3331.42703	0.06206
3330.14126	0.06197
3328.85549	0.06201
3327.56972	0.06229
3326.28395	0.06267
3324.99819	0.06301
3323.71242	0.06319
3322.42665	0.06317
3321.14088	0.06289
3319.85511	0.06239
3318.56934	0.06182
3317.28357	0.06147
3315.99780	0.06153
3314.71204	0.06194
3313.42627	0.06250
3312.14050	0.06294
3310.85473	0.06312
3309.56896	0.06300
3308.28319	0.06273
3306.99742	0.06249
3305.71165	0.06242
3304.42588	0.06253
3303.14012	0.06272
3301.85435	0.06287
3300.56858	0.06288
3299.28281	0.06271
3297.99704	0.06236
3296.71127	0.06183
3295.42550	0.06126
3294.13973	0.06084
3292.85397	0.06066
3291.56820	0.06063
3290.28243	0.06059
3288.99666	0.06055
3287.71089	0.06059
3286.42512	0.06079
3285.13935	0.06113
3283.85358	0.06150
3282.56781	0.06175
3281.28205	0.06176
3279.99628	0.06158
3278.71051	0.06136
3277.42474	0.06125
3276.13897	0.06116
3274.85320	0.06091
3273.56743	0.06042
3272.28166	0.05983
3270.99590	0.05942
3269.71013	0.05946
3268.42436	0.05995
3267.13859	0.06070
3265.85282	0.06138
3264.56705	0.06181
3263.28128	0.06202
3261.99551	0.06208
3260.70974	0.06198
3259.42398	0.06157
3258.13821	0.06086
3256.85244	0.06010
3255.56667	0.05956
3254.28090	0.05930
3252.99513	0.05920
3251.70936	0.05911
3250.42359	0.05904
3249.13783	0.05907
3247.85206	0.05923
3246.56629	0.05942
3245.28052	0.05953
3243.99475	0.05947
3242.70898	0.05932
3241.42321	0.05923
3240.13744	0.05928
3238.85167	0.05935
3237.56591	0.05924
3236.28014	0.05894
3234.99437	0.05858
3233.70860	0.05834
3232.42283	0.05834
3231.13706	0.05856
3229.85129	0.05883
3228.56552	0.05895
3227.27976	0.05884
3225.99399	0.05852
3224.70822	0.05806
3223.42245	0.05758
3222.13668	0.05725
3220.85091	0.05716
3219.56514	0.05723
3218.27937	0.05727
3216.99360	0.05716
3215.70784	0.05700
3214.42207	0.05688
3213.13630	0.05677
3211.85053	0.05653
3210.56476	0.05620
3209.27899	0.05607
3207.99322	0.05644
3206.70745	0.05726
3205.42169	0.05804
3204.13592	0.05823
3202.85015	0.05765
3201.56438	0.05667
3200.27861	0.05583
3198.99284	0.05540
3197.70707	0.05525
3196.42130	0.05515
3195.13553	0.05506
3193.84977	0.05509
3192.56400	0.05527
3191.27823	0.05537
3189.99246	0.05516
3188.70669	0.05477
3187.42092	0.05460
3186.13515	0.05485
3184.84938	0.05526
3183.56362	0.05533
3182.27785	0.05493
3180.99208	0.05440
3179.70631	0.05409
3178.42054	0.05405
3177.13477	0.05412
3175.84900	0.05418
3174.56323	0.05420
3173.27746	0.05414
3171.99170	0.05399
3170.70593	0.05379
3169.42016	0.05364
3168.13439	0.05351
3166.84862	0.05334
3165.56285	0.05310
3164.27708	0.05288
3162.99131	0.05279
3161.70555	0.05279
3160.41978	0.05274
3159.13401	0.05254
3157.84824	0.05230
3156.56247	0.05215
3155.27670	0.05209
3153.99093	0.05196
3152.70516	0.05161
3151.41939	0.05111
3150.13363	0.05072
3148.84786	0.05065
3147.56209	0.05081
3146.27632	0.05100
3144.99055	0.05115
3143.70478	0.05129
3142.41901	0.05142
3141.13324	0.05141
3139.84748	0.05118
3138.56171	0.05079
3137.27594	0.05034
3135.99017	0.04992
3134.70440	0.04965
3133.41863	0.04967
3132.13286	0.04995
3130.84709	0.05024
3129.56132	0.05027
3128.27556	0.05000
3126.98979	0.04964
3125.70402	0.04945
3124.41825	0.04956
3123.13248	0.04985
3121.84671	0.05009
3120.56094	0.05000
3119.27517	0.04952
3117.98940	0.04884
3116.70364	0.04832
3115.41787	0.04819
3114.13210	0.04840
3112.84633	0.04867
3111.56056	0.04882
3110.27479	0.04881
3108.98902	0.04870
3107.70325	0.04844
3106.41749	0.04799
3105.13172	0.04750
3103.84595	0.04722
3102.56018	0.04725
3101.27441	0.04746
3099.98864	0.04767
3098.70287	0.04782
3097.41710	0.04790
3096.13133	0.04792
3094.84557	0.04788
3093.55980	0.04779
3092.27403	0.04766
3090.98826	0.04745
3089.70249	0.04713
3088.41672	0.04678
3087.13095	0.04656
3085.84518	0.04657
3084.55942	0.04674
3083.27365	0.04689
3081.98788	0.04694
3080.70211	0.04691
3079.41634	0.04684
3078.13057	0.04669
3076.84480	0.04646
3075.55903	0.04628
3074.27326	0.04627
3072.98750	0.04642
3071.70173	0.04654
3070.41596	0.04646
3069.13019	0.04615
3067.84442	0.04580
3066.55865	0.04565
3065.27288	0.04579
3063.98711	0.04607
3062.70135	0.04626
3061.41558	0.04623
3060.12981	0.04605
3058.84404	0.04584
3057.55827	0.04567
3056.27250	0.04556
3054.98673	0.04556
3053.70096	0.04562
3052.41519	0.04561
3051.12943	0.04537
3049.84366	0.04485
3048.55789	0.04418
3047.27212	0.04364
3045.98635	0.04335
3044.70058	0.04328
3043.41481	0.04327
3042.12904	0.04322
3040.84328	0.04317
3039.55751	0.04319
3038.27174	0.04340
3036.98597	0.04375
3035.70020	0.04407
3034.41443	0.04411
3033.12866	0.04377
3031.84289	0.04322
3030.55712	0.04277
3029.27136	0.04261
3027.98559	0.04271
3026.69982	0.04285
3025.41405	0.04283
3024.12828	0.04261
3022.84251	0.04233
3021.55674	0.04217
3020.27097	0.04217
3018.98521	0.04217
3017.69944	0.04201
3016.41367	0.04168
3015.12790	0.04132
3013.84213	0.04105
3012.55636	0.04089
3011.27059	0.04077
3009.98482	0.04062
3008.69905	0.04043
3007.41329	0.04035
3006.12752	0.04051
3004.84175	0.04086
3003.55598	0.04123
3002.27021	0.04146
3000.98444	0.04153
2999.69867	0.04150
2998.41290	0.04141
2997.12714	0.04132
2995.84137	0.04132
2994.55560	0.04136
2993.26983	0.04130
2991.98406	0.04106
2990.69829	0.04072
2989.41252	0.04044
2988.12675	0.04032
2986.84098	0.04037
2985.55522	0.04047
2984.26945	0.04047
2982.98368	0.04033
2981.69791	0.04015
2980.41214	0.04009
2979.12637	0.04014
2977.84060	0.04012
2976.55483	0.03995
2975.26907	0.03975
2973.98330	0.03965
2972.69753	0.03961
2971.41176	0.03952
2970.12599	0.03937
2968.84022	0.03923
2967.55445	0.03917
2966.26868	0.03917
2964.98291	0.03916
2963.69715	0.03909
2962.41138	0.03898
2961.12561	0.03895
2959.83984	0.03902
2958.55407	0.03913
2957.26830	0.03916
2955.98253	0.03919
2954.69676	0.03937
2953.41100	0.03968
2952.12523	0.03992
2950.83946	0.03990
2949.55369	0.03968
2948.26792	0.03944
2946.98215	0.03925
2945.69638	0.03906
2944.41061	0.03890
2943.12484	0.03890
2941.83908	0.03904
2940.55331	0.03906
2939.26754	0.03873
2937.98177	0.03812
2936.69600	0.03747
2935.41023	0.03689
2934.12446	0.03636
2932.83869	0.03580
2931.55293	0.03520
2930.26716	0.03451
2928.98139	0.03375
2927.69562	0.03300
2926.40985	0.03232
2925.12408	0.03167
2923.83831	0.03094
2922.55254	0.03003
2921.26677	0.02894
2919.98101	0.02777
2918.69524	0.02673
2917.40947	0.02609
2916.12370	0.02611
2914.83793	0.02689
2913.55216	0.02828
2912.26639	0.02994
2910.98062	0.03151
2909.69486	0.03273
2908.40909	0.03355
2907.12332	0.03413
2905.83755	0.03464
2904.55178	0.03513
2903.26601	0.03554
2901.98024	0.03587
2900.69447	0.03618
2899.40870	0.03645
2898.12294	0.03663
2896.83717	0.03671
2895.55140	0.03680
2894.26563	0.03695
2892.97986	0.03709
2891.69409	0.03712
2890.40832	0.03701
2889.12255	0.03680
2887.83678	0.03654
2886.55102	0.03625
2885.26525	0.03606
2883.97948	0.03609
2882.69371	0.03635
2881.40794	0.03666
2880.12217	0.03684
2878.83640	0.03688
2877.55063	0.03686
2876.26487	0.03680
2874.97910	0.03670
2873.69333	0.03658
2872.40756	0.03652
2871.12179	0.03650
2869.83602	0.03643
2868.55025	0.03623
2867.26448	0.03599
2865.97871	0.03582
2864.69295	0.03569
2863.40718	0.03551
2862.12141	0.03520
2860.83564	0.03473
2859.54987	0.03411
2858.26410	0.03329
2856.97833	0.03225
2855.69256	0.03106
2854.40680	0.02986
2853.12103	0.02874
2851.83526	0.02776
2850.54949	0.02707
2849.26372	0.02693
2847.97795	0.02753
2846.69218	0.02872
2845.40641	0.03013
2844.12064	0.03137
2842.83488	0.03227
2841.54911	0.03280
2840.26334	0.03303
2838.97757	0.03308
2837.69180	0.03306
2836.40603	0.03306
2835.12026	0.03308
2833.83449	0.03312
2832.54873	0.03315
2831.26296	0.03313
2829.97719	0.03303
2828.69142	0.03296
2827.40565	0.03299
2826.11988	0.03309
2824.83411	0.03318
2823.54834	0.03319
2822.26257	0.03311
2820.97681	0.03297
2819.69104	0.03281
2818.40527	0.03267
2817.11950	0.03257
2815.83373	0.03249
2814.54796	0.03240
2813.26219	0.03231
2811.97642	0.03230
2810.69066	0.03245
2809.40489	0.03267
2808.11912	0.03276
2806.83335	0.03267
2805.54758	0.03250
2804.26181	0.03239
2802.97604	0.03234
2801.69027	0.03232
2800.40450	0.03235
2799.11874	0.03240
2797.83297	0.03237
2796.54720	0.03216
2795.26143	0.03188
2793.97566	0.03177
2792.68989	0.03194
2791.40412	0.03223
2790.11835	0.03236
2788.83259	0.03216
2787.54682	0.03167
2786.26105	0.03110
2784.97528	0.03070
2783.68951	0.03057
2782.40374	0.03071
2781.11797	0.03102
2779.83220	0.03142
2778.54643	0.03182
2777.26067	0.03216
2775.97490	0.03236
2774.68913	0.03237
2773.40336	0.03219
2772.11759	0.03187
2770.83182	0.03152
2769.54605	0.03120
2768.26028	0.03091
2766.97452	0.03071
2765.68875	0.03068
2764.40298	0.03084
2763.11721	0.03106
2761.83144	0.03121
2760.54567	0.03121
2759.25990	0.03104
2757.97413	0.03072
2756.68836	0.03033
2755.40260	0.03010
2754.11683	0.03011
2752.83106	0.03023
2751.54529	0.03026
2750.25952	0.03016
2748.97375	0.03007
2747.68798	0.03008
2746.40221	0.03013
2745.11645	0.03008
2743.83068	0.02992
2742.54491	0.02975
2741.25914	0.02968
2739.97337	0.02967
2738.68760	0.02966
2737.40183	0.02962
2736.11606	0.02955
2734.83029	0.02949
2733.54453	0.02948
2732.25876	0.02954
2730.97299	0.02963
2729.68722	0.02966
2728.40145	0.02960
2727.11568	0.02951
2725.82991	0.02951
2724.54414	0.02964
2723.25838	0.02983
2721.97261	0.02992
2720.68684	0.02983
2719.40107	0.02960
2718.11530	0.02933
2716.82953	0.02916
2715.54376	0.02913
2714.25799	0.02922
2712.97222	0.02940
2711.68646	0.02960
2710.40069	0.02972
2709.11492	0.02967
2707.82915	0.02942
2706.54338	0.02906
2705.25761	0.02874
2703.97184	0.02859
2702.68607	0.02864
2701.40031	0.02879
2700.11454	0.02887
2698.82877	0.02879
2697.54300	0.02857
2696.25723	0.02837
2694.97146	0.02829
2693.68569	0.02830
2692.39992	0.02832
2691.11415	0.02834
2689.82839	0.02837
2688.54262	0.02841
2687.25685	0.02839
2685.97108	0.02828
2684.68531	0.02811
2683.39954	0.02794
2682.11377	0.02782
2680.82800	0.02776
2679.54224	0.02775
2678.25647	0.02771
2676.97070	0.02763
2675.68493	0.02757
2674.39916	0.02762
2673.11339	0.02776
2671.82762	0.02785
2670.54185	0.02782
2669.25608	0.02769
2667.97032	0.02758
2666.68455	0.02759
2665.39878	0.02776
2664.11301	0.02800
2662.82724	0.02812
2661.54147	0.02806
2660.25570	0.02788
2658.96993	0.02773
2657.68417	0.02764
2656.39840	0.02759
2655.11263	0.02756
2653.82686	0.02755
2652.54109	0.02749
2651.25532	0.02728
2649.96955	0.02692
2648.68378	0.02659
2647.39801	0.02645
2646.11225	0.02652
2644.82648	0.02673
2643.54071	0.02697
2642.25494	0.02706
2640.96917	0.02688
2639.68340	0.02651
2638.39763	0.02621
2637.11186	0.02613
2635.82609	0.02617
2634.54033	0.02612
2633.25456	0.02590
2631.96879	0.02555
2630.68302	0.02519
2629.39725	0.02487
2628.11148	0.02455
2626.82571	0.02422
2625.53994	0.02395
2624.25418	0.02386
2622.96841	0.02399
2621.68264	0.02428
2620.39687	0.02454
2619.11110	0.02456
2617.82533	0.02423
2616.53956	0.02366
2615.25379	0.02318
2613.96802	0.02304
2612.68226	0.02323
2611.39649	0.02354
2610.11072	0.02375
2608.82495	0.02380
2607.53918	0.02378
2606.25341	0.02383
2604.96764	0.02405
2603.68187	0.02434
2602.39611	0.02447
2601.11034	0.02430
2599.82457	0.02393
2598.53880	0.02361
2597.25303	0.02346
2595.96726	0.02342
2594.68149	0.02334
2593.39572	0.02322
2592.10995	0.02317
2590.82419	0.02327
2589.53842	0.02336
2588.25265	0.02322
2586.96688	0.02283
2585.68111	0.02239
2584.39534	0.02215
2583.10957	0.02213
2581.82380	0.02211
2580.53804	0.02195
2579.25227	0.02170
2577.96650	0.02159
2576.68073	0.02169
2575.39496	0.02189
2574.10919	0.02199
2572.82342	0.02192
2571.53765	0.02176
2570.25188	0.02160
2568.96612	0.02145
2567.68035	0.02134
2566.39458	0.02135
2565.10881	0.02150
2563.82304	0.02168
2562.53727	0.02180
2561.25150	0.02186
2559.96573	0.02194
2558.67997	0.02209
2557.39420	0.02220
2556.10843	0.02212
2554.82266	0.02184
2553.53689	0.02153
2552.25112	0.02138
2550.96535	0.02138
2549.67958	0.02142
2548.39381	0.02144
2547.10805	0.02152
2545.82228	0.02163
2544.53651	0.02157
2543.25074	0.02125
2541.96497	0.02081
2540.67920	0.02050
2539.39343	0.02041
2538.10766	0.02044
2536.82190	0.02047
2535.53613	0.02050
2534.25036	0.02056
2532.96459	0.02060
2531.67882	0.02060
2530.39305	0.02063
2529.10728	0.02082
2527.82151	0.02121
2526.53574	0.02167
2525.24998	0.02195
2523.96421	0.02184
2522.67844	0.02134
2521.39267	0.02068
2520.10690	0.02014
2518.82113	0.01980
2517.53536	0.01959
2516.24959	0.01946
2514.96383	0.01948
2513.67806	0.01976
2512.39229	0.02023
2511.10652	0.02067
2509.82075	0.02093
2508.53498	0.02107
2507.24921	0.02119
2505.96344	0.02127
2504.67767	0.02114
2503.39191	0.02077
2502.10614	0.02038
2500.82037	0.02022
2499.53460	0.02031
2498.24883	0.02045
2496.96306	0.02045
2495.67729	0.02034
2494.39152	0.02023
2493.10576	0.02018
2491.81999	0.02011
2490.53422	0.01999
2489.24845	0.01986
2487.96268	0.01981
2486.67691	0.01983
2485.39114	0.01989
2484.10537	0.01988
2482.81960	0.01977
2481.53384	0.01962
2480.24807	0.01952
2478.96230	0.01952
2477.67653	0.01960
2476.39076	0.01978
2475.10499	0.02006
2473.81922	0.02030
2472.53345	0.02037
2471.24769	0.02030
2469.96192	0.02025
2468.67615	0.02032
2467.39038	0.02043
2466.10461	0.02038
2464.81884	0.02007
2463.53307	0.01966
2462.24730	0.01944
2460.96153	0.01955
2459.67577	0.01978
2458.39000	0.01980
2457.10423	0.01962
2455.81846	0.01956
2454.53269	0.01983
2453.24692	0.02018
2451.96115	0.02022
2450.67538	0.01995
2449.38962	0.01974
2448.10385	0.01981
2446.81808	0.01994
2445.53231	0.01983
2444.24654	0.01953
2442.96077	0.01931
2441.67500	0.01917
2440.38923	0.01890
2439.10346	0.01847
2437.81770	0.01814
2436.53193	0.01811
2435.24616	0.01832
2433.96039	0.01848
2432.67462	0.01845
2431.38885	0.01831
2430.10308	0.01824
2428.81731	0.01834
2427.53155	0.01854
2426.24578	0.01879
2424.96001	0.01900
2423.67424	0.01913
2422.38847	0.01915
2421.10270	0.01911
2419.81693	0.01899
2418.53116	0.01879
2417.24539	0.01852
2415.95963	0.01826
2414.67386	0.01812
2413.38809	0.01814
2412.10232	0.01828
2410.81655	0.01845
2409.53078	0.01858
2408.24501	0.01865
2406.95924	0.01873
2405.67347	0.01888
2404.38771	0.01906
2403.10194	0.01913
2401.81617	0.01901
2400.53040	0.01882
2399.24463	0.01879
2397.95886	0.01891
2396.67309	0.01900
2395.38732	0.01888
2394.10156	0.01864
2392.81579	0.01852
2391.53002	0.01872
2390.24425	0.01916
2388.95848	0.01961
2387.67271	0.01988
2386.38694	0.01998
2385.10117	0.01998
2383.81540	0.01993
2382.52964	0.01981
2381.24387	0.01962
2379.95810	0.01944
2378.67233	0.01941
2377.38656	0.01959
2376.10079	0.01989
2374.81502	0.02013
2373.52925	0.02022
2372.24349	0.02023
2370.95772	0.02042
2369.67195	0.02080
2368.38618	0.02119
2367.10041	0.02135
2365.81464	0.02130
2364.52887	0.02104
2363.24310	0.02082
2361.95733	0.02078
2360.67157	0.02098
2359.38580	0.02114
2358.10003	0.02124
2356.81426	0.02126
2355.52849	0.02120
2354.24272	0.02108
2352.95695	0.02085
2351.67118	0.02066
2350.38542	0.02063
2349.09965	0.02060
2347.81388	0.02043
2346.52811	0.02038
2345.24234	0.02046
2343.95657	0.02048
2342.67080	0.02040
2341.38503	0.02068
2340.09926	0.02139
2338.81350	0.02186
2337.52773	0.02183
2336.24196	0.02186
2334.95619	0.02193
2333.67042	0.02151
2332.38465	0.02079
2331.09888	0.02079
2329.81311	0.02105
2328.52735	0.02084
2327.24158	0.02135
2325.95581	0.02218
2324.67004	0.02221
2323.38427	0.02221
2322.09850	0.02231
2320.81273	0.02160
2319.52696	0.02102
2318.24119	0.02060
2316.95543	0.01984
2315.66966	0.01943
2314.38389	0.01922
2313.09812	0.01885
2311.81235	0.01871
2310.52658	0.01853
2309.24081	0.01845
2307.95504	0.01858
2306.66928	0.01856
2305.38351	0.01852
2304.09774	0.01848
2302.81197	0.01852
2301.52620	0.01873
2300.24043	0.01886
2298.95466	0.01884
2297.66889	0.01864
2296.38312	0.01837
2295.09736	0.01815
2293.81159	0.01799
2292.52582	0.01787
2291.24005	0.01771
2289.95428	0.01749
2288.66851	0.01729
2287.38274	0.01727
2286.09697	0.01752
2284.81121	0.01790
2283.52544	0.01813
2282.23967	0.01802
2280.95390	0.01764
2279.66813	0.01724
2278.38236	0.01686
2277.09659	0.01636
2275.81082	0.01568
2274.52505	0.01508
2273.23929	0.01490
2271.95352	0.01520
2270.66775	0.01565
2269.38198	0.01585
2268.09621	0.01558
2266.81044	0.01502
2265.52467	0.01459
2264.23890	0.01466
2262.95314	0.01522
2261.66737	0.01576
2260.38160	0.01569
2259.09583	0.01493
2257.81006	0.01394
2256.52429	0.01326
2255.23852	0.01304
2253.95275	0.01320
2252.66698	0.01358
2251.38122	0.01406
2250.09545	0.01449
2248.80968	0.01464
2247.52391	0.01435
2246.23814	0.01359
2244.95237	0.01259
2243.66660	0.01169
2242.38083	0.01119
2241.09507	0.01113
2239.80930	0.01140
2238.52353	0.01177
2237.23776	0.01204
2235.95199	0.01204
2234.66622	0.01185
2233.38045	0.01171
2232.09468	0.01179
2230.80891	0.01193
2229.52315	0.01180
2228.23738	0.01138
2226.95161	0.01087
2225.66584	0.01035
2224.38007	0.00976
2223.09430	0.00922
2221.80853	0.00907
2220.52276	0.00936
2219.23700	0.00968
2217.95123	0.00969
2216.66546	0.00959
2215.37969	0.00973
2214.09392	0.01009
2212.80815	0.01022
2211.52238	0.00987
2210.23661	0.00938
2208.95084	0.00932
2207.66508	0.00975
2206.37931	0.01013
2205.09354	0.01005
2203.80777	0.00973
2202.52200	0.00971
2201.23623	0.01012
2199.95046	0.01061
2198.66469	0.01074
2197.37893	0.01039
2196.09316	0.00969
2194.80739	0.00888
2193.52162	0.00830
2192.23585	0.00817
2190.95008	0.00843
2189.66431	0.00875
2188.37854	0.00898
2187.09277	0.00916
2185.80701	0.00920
2184.52124	0.00874
2183.23547	0.00758
2181.94970	0.00617
2180.66393	0.00527
2179.37816	0.00521
2178.09239	0.00569
2176.80662	0.00638
2175.52085	0.00710
2174.23509	0.00768
2172.94932	0.00779
2171.66355	0.00726
2170.37778	0.00629
2169.09201	0.00529
2167.80624	0.00443
2166.52047	0.00374
2165.23470	0.00335
2163.94894	0.00330
2162.66317	0.00327
2161.37740	0.00277
2160.09163	0.00188
2158.80586	0.00137
2157.52009	0.00174
2156.23432	0.00263
2154.94855	0.00333
2153.66278	0.00351
2152.37702	0.00335
2151.09125	0.00327
2149.80548	0.00363
2148.51971	0.00452
2147.23394	0.00571
2145.94817	0.00684
2144.66240	0.00756
2143.37663	0.00764
2142.09087	0.00713
2140.80510	0.00644
2139.51933	0.00608
2138.23356	0.00616
2136.94779	0.00640
2135.66202	0.00652
2134.37625	0.00657
2133.09048	0.00675
2131.80471	0.00721
2130.51895	0.00783
2129.23318	0.00838
2127.94741	0.00868
2126.66164	0.00877
2125.37587	0.00878
2124.09010	0.00883
2122.80433	0.00889
2121.51856	0.00889
2120.23280	0.00879
2118.94703	0.00869
2117.66126	0.00867
2116.37549	0.00874
2115.08972	0.00883
2113.80395	0.00893
2112.51818	0.00907
2111.23241	0.00924
2109.94664	0.00933
2108.66088	0.00933
2107.37511	0.00928
2106.08934	0.00921
2104.80357	0.00901
2103.51780	0.00864
2102.23203	0.00812
2100.94626	0.00751
2099.66049	0.00762
2098.37473	0.00738
2097.08896	0.00696
2095.80319	0.00676
2094.51742	0.00680
2093.23165	0.00697
2091.94588	0.00717
2090.66011	0.00730
2089.37434	0.00735
2088.08857	0.00736
2086.80281	0.00745
2085.51704	0.00771
2084.23127	0.00809
2082.94550	0.00838
2081.65973	0.00841
2080.37396	0.00823
2079.08819	0.00816
2077.80242	0.00846
2076.51666	0.00897
2075.23089	0.00930
2073.94512	0.00924
2072.65935	0.00897
2071.37358	0.00877
2070.08781	0.00875
2068.80204	0.00881
2067.51627	0.00879
2066.23050	0.00856
2064.94474	0.00799
2063.65897	0.00715
2062.37320	0.00637
2061.08743	0.00602
2059.80166	0.00609
2058.51589	0.00616
2057.23012	0.00584
2055.94435	0.00518
2054.65859	0.00457
2053.37282	0.00432
2052.08705	0.00439
2050.80128	0.00449
2049.51551	0.00438
2048.22974	0.00414
2046.94397	0.00408
2045.65820	0.00447
2044.37243	0.00520
2043.08667	0.00581
2041.80090	0.00572
2040.51513	0.00473
2039.22936	0.00314
2037.94359	0.00155
2036.65782	0.00054
2035.37205	0.00043
2034.08628	0.00118
2032.80052	0.00224
2031.51475	0.00291
2030.22898	0.00292
2028.94321	0.00273
2027.65744	0.00301
2026.37167	0.00383
2025.08590	0.00456
2023.80013	0.00469
2022.51436	0.00422
2021.22860	0.00349
2019.94283	0.00281
2018.65706	0.00232
2017.37129	0.00209
2016.08552	0.00204
2014.79975	0.00206
2013.51398	0.00220
2012.22821	0.00274
2010.94245	0.00373
2009.65668	0.00477
2008.37091	0.00532
2007.08514	0.00537
2005.79937	0.00536
2004.51360	0.00556
2003.22783	0.00574
2001.94206	0.00561
2000.65629	0.00538
1999.37053	0.00548
1998.08476	0.00596
1996.79899	0.00638
1995.51322	0.00650
1994.22745	0.00658
1992.94168	0.00702
1991.65591	0.00783
1990.37014	0.00865
1989.08438	0.00912
1987.79861	0.00910
1986.51284	0.00861
1985.22707	0.00780
1983.94130	0.00714
1982.65553	0.00715
1981.36976	0.00798
1980.08399	0.00918
1978.79822	0.01006
1977.51246	0.01032
1976.22669	0.01020
1974.94092	0.01007
1973.65515	0.00995
1972.36938	0.00963
1971.08361	0.00903
1969.79784	0.00837
1968.51207	0.00781
1967.22631	0.00728
1965.94054	0.00669
1964.65477	0.00612
1963.36900	0.00571
1962.08323	0.00550
1960.79746	0.00537
1959.51169	0.00526
1958.22592	0.00535
1956.94015	0.00591
1955.65439	0.00695
1954.36862	0.00813
1953.08285	0.00896
1951.79708	0.00922
1950.51131	0.00910
1949.22554	0.00897
1947.93977	0.00902
1946.65400	0.00914
1945.36823	0.00920
1944.08247	0.00924
1942.79670	0.00945
1941.51093	0.00987
1940.22516	0.01028
1938.93939	0.01045
1937.65362	0.01034
1936.36785	0.01011
1935.08208	0.00982
1933.79632	0.00955
1932.51055	0.00944
1931.22478	0.00967
1929.93901	0.01023
1928.65324	0.01086
1927.36747	0.01126
1926.08170	0.01126
1924.79593	0.01091
1923.51016	0.01048
1922.22440	0.01022
1920.93863	0.01020
1919.65286	0.01030
1918.36709	0.01046
1917.08132	0.01069
1915.79555	0.01097
1914.50978	0.01123
1913.22401	0.01140
1911.93825	0.01150
1910.65248	0.01155
1909.36671	0.01156
1908.08094	0.01154
1906.79517	0.01147
1905.50940	0.01141
1904.22363	0.01140
1902.93786	0.01144
1901.65209	0.01143
1900.36633	0.01127
1899.08056	0.01093
1897.79479	0.01056
1896.50902	0.01038
1895.22325	0.01048
1893.93748	0.01073
1892.65171	0.01095
1891.36594	0.01101
1890.08018	0.01096
1888.79441	0.01086
1887.50864	0.01069
1886.22287	0.01036
1884.93710	0.00989
1883.65133	0.00947
1882.36556	0.00928
1881.07979	0.00947
1879.79402	0.00997
1878.50826	0.01063
1877.22249	0.01121
1875.93672	0.01155
1874.65095	0.01163
1873.36518	0.01156
1872.07941	0.01144
1870.79364	0.01133
1869.50787	0.01126
1868.22211	0.01127
1866.93634	0.01138
1865.65057	0.01153
1864.36480	0.01167
1863.07903	0.01178
1861.79326	0.01181
1860.50749	0.01175
1859.22172	0.01159
1857.93595	0.01140
1856.65019	0.01121
1855.36442	0.01109
1854.07865	0.01109
1852.79288	0.01120
1851.50711	0.01140
1850.22134	0.01160
1848.93557	0.01171
1847.64980	0.01171
1846.36404	0.01160
1845.07827	0.01149
1843.79250	0.01145
1842.50673	0.01145
1841.22096	0.01139
1839.93519	0.01125
1838.64942	0.01114
1837.36365	0.01113
1836.07788	0.01118
1834.79212	0.01123
1833.50635	0.01127
1832.22058	0.01135
1830.93481	0.01149
1829.64904	0.01166
1828.36327	0.01184
1827.07750	0.01193
1825.79173	0.01195
1824.50597	0.01196
1823.22020	0.01202
1821.93443	0.01210
1820.64866	0.01220
1819.36289	0.01225
1818.07712	0.01223
1816.79135	0.01214
1815.50558	0.01202
1814.21981	0.01188
1812.93405	0.01173
1811.64828	0.01160
1810.36251	0.01152
1809.07674	0.01149
1807.79097	0.01153
1806.50520	0.01163
1805.21943	0.01181
1803.93366	0.01201
1802.64790	0.01220
1801.36213	0.01234
1800.07636	0.01240
1798.79059	0.01234
1797.50482	0.01223
1796.21905	0.01218
1794.93328	0.01225
1793.64751	0.01240
1792.36174	0.01259
1791.07598	0.01276
1789.79021	0.01285
1788.50444	0.01286
1787.21867	0.01286
1785.93290	0.01289
1784.64713	0.01292
1783.36136	0.01292
1782.07559	0.01285
1780.78983	0.01274
1779.50406	0.01267
1778.21829	0.01270
1776.93252	0.01285
1775.64675	0.01304
1774.36098	0.01315
1773.07521	0.01314
1771.78944	0.01313
1770.50367	0.01314
1769.21791	0.01310
1767.93214	0.01306
1766.64637	0.01307
1765.36060	0.01310
1764.07483	0.01312
1762.78906	0.01315
1761.50329	0.01322
1760.21752	0.01328
1758.93176	0.01321
1757.64599	0.01304
1756.36022	0.01292
1755.07445	0.01289
1753.78868	0.01281
1752.50291	0.01260
1751.21714	0.01230
1749.93137	0.01202
1748.64560	0.01175
1747.35984	0.01144
1746.07407	0.01114
1744.78830	0.01090
1743.50253	0.01075
1742.21676	0.01064
1740.93099	0.01052
1739.64522	0.01048
1738.35945	0.01064
1737.07369	0.01096
1735.78792	0.01126
1734.50215	0.01154
1733.21638	0.01184
1731.93061	0.01210
1730.64484	0.01216
1729.35907	0.01215
1728.07330	0.01225
1726.78753	0.01252
1725.50177	0.01288
1724.21600	0.01328
1722.93023	0.01369
1721.64446	0.01416
1720.35869	0.01460
1719.07292	0.01494
1717.78715	0.01521
1716.50138	0.01548
1715.21561	0.01576
1713.92985	0.01606
1712.64408	0.01640
1711.35831	0.01676
1710.07254	0.01709
1708.78677	0.01738
1707.50100	0.01765
1706.21523	0.01798
1704.92946	0.01847
1703.64370	0.01908
1702.35793	0.01965
1701.07216	0.02019
1699.78639	0.02089
1698.50062	0.02162
1697.21485	0.02202
1695.92908	0.02217
1694.64331	0.02239
1693.35754	0.02269
1692.07178	0.02294
1690.78601	0.02323
1689.50024	0.02372
1688.21447	0.02439
1686.92870	0.02503
1685.64293	0.02551
1684.35716	0.02596
1683.07139	0.02646
1681.78563	0.02688
1680.49986	0.02722
1679.21409	0.02765
1677.92832	0.02819
1676.64255	0.02873
1675.35678	0.02922
1674.07101	0.02976
1672.78524	0.03032
1671.49947	0.03083
1670.21371	0.03128
1668.92794	0.03172
1667.64217	0.03214
1666.35640	0.03253
1665.07063	0.03288
1663.78486	0.03323
1662.49909	0.03361
1661.21332	0.03399
1659.92756	0.03436
1658.64179	0.03478
1657.35602	0.03536
1656.07025	0.03599
1654.78448	0.03643
1653.49871	0.03671
1652.21294	0.03704
1650.92717	0.03740
1649.64140	0.03758
1648.35564	0.03759
1647.06987	0.03762
1645.78410	0.03779
1644.49833	0.03801
1643.21256	0.03816
1641.92679	0.03824
1640.64102	0.03836
1639.35525	0.03855
1638.06949	0.03875
1636.78372	0.03887
1635.49795	0.03894
1634.21218	0.03901
1632.92641	0.03904
1631.64064	0.03901
1630.35487	0.03901
1629.06910	0.03909
1627.78333	0.03924
1626.49757	0.03936
1625.21180	0.03939
1623.92603	0.03937
1622.64026	0.03943
1621.35449	0.03959
1620.06872	0.03974
1618.78295	0.03979
1617.49718	0.03977
1616.21142	0.03984
1614.92565	0.04001
1613.63988	0.04012
1612.35411	0.04014
1611.06834	0.04021
1609.78257	0.04034
1608.49680	0.04051
1607.21103	0.04067
1605.92526	0.04083
1604.63950	0.04098
1603.35373	0.04112
1602.06796	0.04124
1600.78219	0.04135
1599.49642	0.04150
1598.21065	0.04170
1596.92488	0.04195
1595.63911	0.04222
1594.35335	0.04249
1593.06758	0.04276
1591.78181	0.04302
1590.49604	0.04325
1589.21027	0.04343
1587.92450	0.04358
1586.63873	0.04373
1585.35296	0.04393
1584.06719	0.04419
1582.78143	0.04449
1581.49566	0.04482
1580.20989	0.04518
1578.92412	0.04548
1577.63835	0.04565
1576.35258	0.04577
1575.06681	0.04601
1573.78104	0.04631
1572.49528	0.04650
1571.20951	0.04656
1569.92374	0.04659
1568.63797	0.04664
1567.35220	0.04665
1566.06643	0.04661
1564.78066	0.04662
1563.49489	0.04681
1562.20912	0.04707
1560.92336	0.04725
1559.63759	0.04737
1558.35182	0.04754
1557.06605	0.04766
1555.78028	0.04757
1554.49451	0.04739
1553.20874	0.04729
1551.92297	0.04728
1550.63721	0.04722
1549.35144	0.04712
1548.06567	0.04705
1546.77990	0.04700
1545.49413	0.04697
1544.20836	0.04698
1542.92259	0.04698
1541.63682	0.04688
1540.35105	0.04671
1539.06529	0.04660
1537.77952	0.04664
1536.49375	0.04670
1535.20798	0.04672
1533.92221	0.04680
1532.63644	0.04703
1531.35067	0.04732
1530.06490	0.04762
1528.77914	0.04797
1527.49337	0.04845
1526.20760	0.04910
1524.92183	0.04989
1523.63606	0.05072
1522.35029	0.05151
1521.06452	0.05236
1519.77875	0.05330
1518.49298	0.05422
1517.20722	0.05513
1515.92145	0.05613
1514.63568	0.05724
1513.34991	0.05837
1512.06414	0.05955
1510.77837	0.06087
1509.49260	0.06227
1508.20683	0.06363
1506.92107	0.06493
1505.63530	0.06621
1504.34953	0.06742
1503.06376	0.06847
1501.77799	0.06944
1500.49222	0.07051
1499.20645	0.07164
1497.92068	0.07268
1496.63491	0.07358
1495.34915	0.07440
1494.06338	0.07524
1492.77761	0.07608
1491.49184	0.07695
1490.20607	0.07789
1488.92030	0.07886
1487.63453	0.07984
1486.34876	0.08083
1485.06299	0.08186
1483.77723	0.08296
1482.49146	0.08411
1481.20569	0.08531
1479.91992	0.08652
1478.63415	0.08766
1477.34838	0.08873
1476.06261	0.08969
1474.77684	0.09049
1473.49108	0.09108
1472.20531	0.09156
1470.91954	0.09198
1469.63377	0.09234
1468.34800	0.09261
1467.06223	0.09283
1465.77646	0.09306
1464.49069	0.09335
1463.20492	0.09373
1461.91916	0.09422
1460.63339	0.09479
1459.34762	0.09539
1458.06185	0.09594
1456.77608	0.09649
1455.49031	0.09708
1454.20454	0.09760
1452.91877	0.09798
1451.63301	0.09831
1450.34724	0.09865
1449.06147	0.09896
1447.77570	0.09922
1446.48993	0.09943
1445.20416	0.09958
1443.91839	0.09967
1442.63262	0.09976
1441.34685	0.09992
1440.06109	0.10016
1438.77532	0.10041
1437.48955	0.10067
1436.20378	0.10110
1434.91801	0.10176
1433.63224	0.10261
1432.34647	0.10359
1431.06070	0.10472
1429.77494	0.10598
1428.48917	0.10738
1427.20340	0.10887
1425.91763	0.11041
1424.63186	0.11197
1423.34609	0.11353
1422.06032	0.11500
1420.77455	0.11631
1419.48878	0.11745
1418.20302	0.11840
1416.91725	0.11910
1415.63148	0.11950
1414.34571	0.11971
1413.05994	0.11978
1411.77417	0.11966
1410.48840	0.11929
1409.20263	0.11872
1407.91687	0.11797
1406.63110	0.11702
1405.34533	0.11584
1404.05956	0.11445
1402.77379	0.11287
1401.48802	0.11112
1400.20225	0.10922
1398.91648	0.10719
1397.63071	0.10509
1396.34495	0.10290
1395.05918	0.10065
1393.77341	0.09834
1392.48764	0.09597
1391.20187	0.09354
1389.91610	0.09111
1388.63033	0.08874
1387.34456	0.08643
1386.05880	0.08415
1384.77303	0.08185
1383.48726	0.07954
1382.20149	0.07723
1380.91572	0.07492
1379.62995	0.07262
1378.34418	0.07036
1377.05841	0.06817
1375.77264	0.06603
1374.48688	0.06395
1373.20111	0.06194
1371.91534	0.06000
1370.62957	0.05811
1369.34380	0.05629
1368.05803	0.05457
1366.77226	0.05297
1365.48649	0.05145
1364.20073	0.04997
1362.91496	0.04855
1361.62919	0.04719
1360.34342	0.04591
1359.05765	0.04470
1357.77188	0.04361
1356.48611	0.04264
1355.20034	0.04175
1353.91457	0.04089
1352.62881	0.04003
1351.34304	0.03919
1350.05727	0.03840
1348.77150	0.03765
1347.48573	0.03692
1346.19996	0.03623
1344.91419	0.03559
1343.62842	0.03504
1342.34266	0.03455
1341.05689	0.03407
1339.77112	0.03359
1338.48535	0.03309
1337.19958	0.03259
1335.91381	0.03210
1334.62804	0.03164
1333.34227	0.03120
1332.05650	0.03080
1330.77074	0.03041
1329.48497	0.03003
1328.19920	0.02966
1326.91343	0.02931
1325.62766	0.02899
1324.34189	0.02872
1323.05612	0.02849
1321.77035	0.02826
1320.48459	0.02797
1319.19882	0.02765
1317.91305	0.02733
1316.62728	0.02706
1315.34151	0.02682
1314.05574	0.02661
1312.76997	0.02641
1311.48420	0.02619
1310.19843	0.02595
1308.91267	0.02567
1307.62690	0.02540
1306.34113	0.02513
1305.05536	0.02487
1303.76959	0.02463
1302.48382	0.02442
1301.19805	0.02425
1299.91228	0.02412
1298.62652	0.02398
1297.34075	0.02384
1296.05498	0.02369
1294.76921	0.02355
1293.48344	0.02340
1292.19767	0.02326
1290.91190	0.02313
1289.62613	0.02300
1288.34036	0.02285
1287.05460	0.02268
1285.76883	0.02252
1284.48306	0.02241
1283.19729	0.02236
1281.91152	0.02230
1280.62575	0.02220
1279.33998	0.02205
1278.05421	0.02188
1276.76845	0.02172
1275.48268	0.02159
1274.19691	0.02148
1272.91114	0.02139
1271.62537	0.02133
1270.33960	0.02126
1269.05383	0.02116
1267.76806	0.02100
1266.48229	0.02081
1265.19653	0.02061
1263.91076	0.02045
1262.62499	0.02032
1261.33922	0.02022
1260.05345	0.02016
1258.76768	0.02013
1257.48191	0.02013
1256.19614	0.02013
1254.91037	0.02010
1253.62461	0.02004
1252.33884	0.01994
1251.05307	0.01985
1249.76730	0.01977
1248.48153	0.01973
1247.19576	0.01972
1245.90999	0.01974
1244.62422	0.01977
1243.33846	0.01983
1242.05269	0.01988
1240.76692	0.01991
1239.48115	0.01989
1238.19538	0.01986
1236.90961	0.01982
1235.62384	0.01978
1234.33807	0.01976
1233.05230	0.01975
1231.76654	0.01977
1230.48077	0.01979
1229.19500	0.01975
1227.90923	0.01965
1226.62346	0.01953
1225.33769	0.01947
1224.05192	0.01953
1222.76615	0.01966
1221.48039	0.01979
1220.19462	0.01987
1218.90885	0.01991
1217.62308	0.01995
1216.33731	0.02002
1215.05154	0.02011
1213.76577	0.02022
1212.48000	0.02033
1211.19423	0.02045
1209.90847	0.02055
1208.62270	0.02063
1207.33693	0.02071
1206.05116	0.02082
1204.76539	0.02097
1203.47962	0.02114
1202.19385	0.02130
1200.90808	0.02137
1199.62232	0.02134
1198.33655	0.02143
1197.05078	0.02156
1195.76501	0.02173
1194.47924	0.02194
1193.19347	0.02216
1191.90770	0.02235
1190.62193	0.02247
1189.33616	0.02250
1188.05040	0.02247
1186.76463	0.02240
1185.47886	0.02232
1184.19309	0.02225
1182.90732	0.02219
1181.62155	0.02216
1180.33578	0.02214
1179.05001	0.02217
1177.76425	0.02227
1176.47848	0.02241
1175.19271	0.02254
1173.90694	0.02259
1172.62117	0.02259
1171.33540	0.02261
1170.04963	0.02272
1168.76386	0.02295
1167.47809	0.02325
1166.19233	0.02354
1164.90656	0.02376
1163.62079	0.02392
1162.33502	0.02409
1161.04925	0.02435
1159.76348	0.02466
1158.47771	0.02496
1157.19194	0.02520
1155.90618	0.02545
1154.62041	0.02575
1153.33464	0.02613
1152.04887	0.02656
1150.76310	0.02699
1149.47733	0.02745
1148.19156	0.02795
1146.90579	0.02852
1145.62002	0.02916
1144.33426	0.02985
1143.04849	0.03058
1141.76272	0.03138
1140.47695	0.03227
1139.19118	0.03325
1137.90541	0.03432
1136.61964	0.03550
1135.33387	0.03685
1134.04811	0.03841
1132.76234	0.04019
1131.47657	0.04218
1130.19080	0.04435
1128.90503	0.04673
1127.61926	0.04937
1126.33349	0.05233
1125.04772	0.05551
1123.76195	0.05882
1122.47619	0.06219
1121.19042	0.06564
1119.90465	0.06921
1118.61888	0.07285
1117.33311	0.07649
1116.04734	0.08004
1114.76157	0.08348
1113.47580	0.08679
1112.19004	0.09002
1110.90427	0.09319
1109.61850	0.09631
1108.33273	0.09935
1107.04696	0.10231
1105.76119	0.10518
1104.47542	0.10797
1103.18965	0.11072
1101.90388	0.11341
1100.61812	0.11603
1099.33235	0.11858
1098.04658	0.12105
1096.76081	0.12344
1095.47504	0.12574
1094.18927	0.12794
1092.90350	0.13007
1091.61773	0.13209
1090.33197	0.13394
1089.04620	0.13563
1087.76043	0.13725
1086.47466	0.13895
1085.18889	0.14076
1083.90312	0.14268
1082.61735	0.14470
1081.33158	0.14692
1080.04581	0.14937
1078.76005	0.15203
1077.47428	0.15485
1076.18851	0.15781
1074.90274	0.16092
1073.61697	0.16413
1072.33120	0.16742
1071.04543	0.17077
1069.75966	0.17422
1068.47390	0.17776
1067.18813	0.18140
1065.90236	0.18513
1064.61659	0.18893
1063.33082	0.19278
1062.04505	0.19665
1060.75928	0.20055
1059.47351	0.20445
1058.18774	0.20831
1056.90198	0.21208
1055.61621	0.21580
1054.33044	0.21951
1053.04467	0.22326
1051.75890	0.22708
1050.47313	0.23100
1049.18736	0.23506
1047.90159	0.23929
1046.61583	0.24367
1045.33006	0.24818
1044.04429	0.25273
1042.75852	0.25729
1041.47275	0.26185
1040.18698	0.26640
1038.90121	0.27091
1037.61544	0.27531
1036.32967	0.27961
1035.04391	0.28383
1033.75814	0.28791
1032.47237	0.29177
1031.18660	0.29533
1029.90083	0.29855
1028.61506	0.30137
1027.32929	0.30371
1026.04352	0.30549
1024.75775	0.30666
1023.47199	0.30719
1022.18622	0.30706
1020.90045	0.30622
1019.61468	0.30461
1018.32891	0.30224
1017.04314	0.29916
1015.75737	0.29539
1014.47160	0.29088
1013.18584	0.28554
1011.90007	0.27937
1010.61430	0.27244
1009.32853	0.26480
1008.04276	0.25653
1006.75699	0.24773
1005.47122	0.23845
1004.18545	0.22876
1002.89968	0.21877
1001.61392	0.20862
1000.32815	0.19847
999.04238	0.18840
997.75661	0.17847
996.47084	0.16878
995.18507	0.15947
993.89930	0.15068
992.61353	0.14244
991.32777	0.13475
990.04200	0.12759
988.75623	0.12096
987.47046	0.11479
986.18469	0.10904
984.89892	0.10368
983.61315	0.09873
982.32738	0.09416
981.04161	0.08995
979.75585	0.08613
978.47008	0.08278
977.18431	0.07994
975.89854	0.07758
974.61277	0.07568
973.32700	0.07422
972.04123	0.07324
970.75546	0.07275
969.46970	0.07279
968.18393	0.07335
966.89816	0.07438
965.61239	0.07568
964.32662	0.07700
963.04085	0.07806
961.75508	0.07859
960.46931	0.07837
959.18354	0.07735
957.89778	0.07567
956.61201	0.07355
955.32624	0.07122
954.04047	0.06884
952.75470	0.06650
951.46893	0.06426
950.18316	0.06210
948.89739	0.06000
947.61163	0.05792
946.32586	0.05590
945.04009	0.05403
943.75432	0.05238
942.46855	0.05092
941.18278	0.04956
939.89701	0.04823
938.61124	0.04691
937.32547	0.04565
936.03971	0.04451
934.75394	0.04354
933.46817	0.04269
932.18240	0.04192
930.89663	0.04117
929.61086	0.04042
928.32509	0.03966
927.03932	0.03893
925.75356	0.03829
924.46779	0.03779
923.18202	0.03739
921.89625	0.03702
920.61048	0.03663
919.32471	0.03628
918.03894	0.03602
916.75317	0.03583
915.46740	0.03564
914.18164	0.03537
912.89587	0.03501
911.61010	0.03459
910.32433	0.03420
909.03856	0.03390
907.75279	0.03371
906.46702	0.03355
905.18125	0.03335
903.89549	0.03310
902.60972	0.03285
901.32395	0.03264
900.03818	0.03248
898.75241	0.03228
897.46664	0.03198
896.18087	0.03164
894.89510	0.03136
893.60933	0.03125
892.32357	0.03135
891.03780	0.03163
889.75203	0.03212
888.46626	0.03294
887.18049	0.03423
885.89472	0.03606
884.60895	0.03848
883.32318	0.04150
882.03742	0.04496
880.75165	0.04845
879.46588	0.05147
878.18011	0.05386
876.89434	0.05591
875.60857	0.05800
874.32280	0.06011
873.03703	0.06174
871.75126	0.06232
870.46550	0.06164
869.17973	0.05985
867.89396	0.05726
866.60819	0.05422
865.32242	0.05105
864.03665	0.04801
862.75088	0.04523
861.46511	0.04277
860.17935	0.04062
858.89358	0.03879
857.60781	0.03734
856.32204	0.03629
855.03627	0.03555
853.75050	0.03501
852.46473	0.03455
851.17896	0.03414
849.89319	0.03383
848.60743	0.03360
847.32166	0.03337
846.03589	0.03307
844.75012	0.03272
843.46435	0.03237
842.17858	0.03205
840.89281	0.03174
839.60704	0.03144
838.32128	0.03120
837.03551	0.03105
835.74974	0.03096
834.46397	0.03093
833.17820	0.03091
831.89243	0.03090
830.60666	0.03086
829.32089	0.03084
828.03512	0.03081
826.74936	0.03073
825.46359	0.03055
824.17782	0.03028
822.89205	0.03001
821.60628	0.02984
820.32051	0.02980
819.03474	0.02987
817.74897	0.03000
816.46321	0.03015
815.17744	0.03027
813.89167	0.03034
812.60590	0.03034
811.32013	0.03031
810.03436	0.03026
808.74859	0.03023
807.46282	0.03020
806.17705	0.03016
804.89129	0.03007
803.60552	0.02997
802.31975	0.02992
801.03398	0.02997
799.74821	0.03007
798.46244	0.03015
797.17667	0.03017
795.89090	0.03016
794.60513	0.03014
793.31937	0.03012
792.03360	0.03006
790.74783	0.02994
789.46206	0.02978
788.17629	0.02966
786.89052	0.02964
785.60475	0.02973
784.31898	0.02985
783.03322	0.02993
781.74745	0.02997
780.46168	0.02999
779.17591	0.03006
777.89014	0.03013
776.60437	0.03017
775.31860	0.03013
774.03283	0.03005
772.74706	0.03000
771.46130	0.03003
770.17553	0.03010
768.88976	0.03018
767.60399	0.03024
766.31822	0.03029
765.03245	0.03036
763.74668	0.03047
762.46091	0.03056
761.17515	0.03064
759.88938	0.03070
758.60361	0.03080
757.31784	0.03093
756.03207	0.03105
754.74630	0.03111
753.46053	0.03109
752.17476	0.03104
750.88899	0.03101
749.60323	0.03101
748.31746	0.03099
747.03169	0.03090
745.74592	0.03076
744.46015	0.03062
743.17438	0.03049
741.88861	0.03038
740.60284	0.03028
739.31708	0.03023
738.03131	0.03031
736.74554	0.03051
735.45977	0.03075
734.17400	0.03095
732.88823	0.03105
731.60246	0.03106
730.31669	0.03101
729.03092	0.03098
727.74516	0.03104
726.45939	0.03122
725.17362	0.03145
723.88785	0.03165
722.60208	0.03177
721.31631	0.03185
720.03054	0.03192
718.74477	0.03201
717.45901	0.03210
716.17324	0.03220
714.88747	0.03232
713.60170	0.03242
712.31593	0.03246
711.03016	0.03241
709.74439	0.03230
708.45862	0.03215
707.17285	0.03203
705.88709	0.03194
704.60132	0.03188
703.31555	0.03185
702.02978	0.03185
700.74401	0.03186
699.45824	0.03187
698.17247	0.03187
696.88670	0.03191
695.60094	0.03199
694.31517	0.03209
693.02940	0.03220
691.74363	0.03230
690.45786	0.03239
689.17209	0.03245
687.88632	0.03245
686.60055	0.03238
685.31478	0.03226
684.02902	0.03212
682.74325	0.03198
681.45748	0.03186
680.17171	0.03173
678.88594	0.03162
677.60017	0.03155
676.31440	0.03153
675.02863	0.03159
673.74287	0.03172
672.45710	0.03193
671.17133	0.03221
669.88556	0.03251
668.59979	0.03263
667.31402	0.03270
666.02825	0.03282
664.74248	0.03261
663.45671	0.03238
662.17095	0.03223
660.88518	0.03214
659.59941	0.03207
658.31364	0.03198
657.02787	0.03189
655.74210	0.03186
654.45633	0.03192
653.17056	0.03205
651.88480	0.03224
650.59903	0.03244
649.31326	0.03265
648.02749	0.03284
646.74172	0.03295
645.45595	0.03300
644.17018	0.03302
642.88441	0.03307
641.59864	0.03319
640.31288	0.03334
639.02711	0.03351
637.74134	0.03367
636.45557	0.03385
635.16980	0.03407
633.88403	0.03436
632.59826	0.03469
631.31249	0.03516
630.02673	0.03621
628.74096	0.03758
627.45519	0.03755
626.16942	0.03945
624.88365	0.04294
623.59788	0.04687
622.31211	0.05050
621.02634	0.05328
619.74057	0.05528
618.45481	0.05733
617.16904	0.06011
615.88327	0.06371
614.59750	0.06796
613.31173	0.07295
612.02596	0.07889
610.74019	0.08550
609.45442	0.09190
608.16866	0.09731
606.88289	0.10172
605.59712	0.10558
604.31135	0.10898
603.02558	0.11126
601.73981	0.11158
600.45404	0.10965
599.16827	0.10603
597.88250	0.10169
596.59674	0.09746
595.31097	0.09374
594.02520	0.09060
592.73943	0.08806
591.45366	0.08622
590.16789	0.08525
588.88212	0.08523
587.59635	0.08608
586.31059	0.08753
585.02482	0.08932
583.73905	0.09137
582.45328	0.09369
581.16751	0.09629
579.88174	0.09909
578.59597	0.10203
577.31020	0.10500
576.02443	0.10789
574.73867	0.11057
573.45290	0.11307
572.16713	0.11559
570.88136	0.11842
569.59559	0.12185
568.30982	0.12595
567.02405	0.13050
565.73828	0.13496
564.45251	0.13871
563.16675	0.14119
561.88098	0.14187
560.59521	0.14029
559.30944	0.13624
558.02367	0.12999
556.73790	0.12222
555.45213	0.11373
554.16636	0.10517
552.88060	0.09702
551.59483	0.08959
550.30906	0.08308
549.02329	0.07755
547.73752	0.07289
546.45175	0.06895
545.16598	0.06557
543.88021	0.06266
542.59444	0.06014
541.30868	0.05794
540.02291	0.05601
538.73714	0.05429
537.45137	0.05273
536.16560	0.05130
534.87983	0.04999
533.59406	0.04880
532.30829	0.04772
531.02253	0.04673
529.73676	0.04583
528.45099	0.04496
527.16522	0.04407
525.87945	0.04316
524.59368	0.04228
523.30791	0.04149
522.02214	0.04078
520.73637	0.04008
519.45061	0.03936
518.16484	0.03865
516.87907	0.03800
515.59330	0.03741
514.30753	0.03685
513.02176	0.03631
511.73599	0.03583
510.45022	0.03542
509.16446	0.03508
507.87869	0.03480
506.59292	0.03452
505.30715	0.03423
504.02138	0.03389
502.73561	0.03352
501.44984	0.03315
500.16407	0.03281
498.87830	0.03250
497.59254	0.03223
496.30677	0.03198
495.02100	0.03172
493.73523	0.03146
492.44946	0.03121
491.16369	0.03099
489.87792	0.03084
488.59215	0.03080
487.30639	0.03086
486.02062	0.03096
484.73485	0.03101
483.44908	0.03100
482.16331	0.03099
480.87754	0.03101
479.59177	0.03104
478.30600	0.03110
477.02023	0.03122
475.73447	0.03140
474.44870	0.03163
473.16293	0.03186
471.87716	0.03209
470.59139	0.03224
469.30562	0.03220
468.01985	0.03194
466.73408	0.03153
465.44832	0.03109
464.16255	0.03071
462.87678	0.03039
461.59101	0.03011
460.30524	0.02986
459.01947	0.02962
457.73370	0.02937
456.44793	0.02910
455.16216	0.02880
453.87640	0.02847
452.59063	0.02814
451.30486	0.02784
450.01909	0.02762
448.73332	0.02748
447.44755	0.02739
446.16178	0.02728
444.87601	0.02711
443.59025	0.02688
442.30448	0.02664
441.01871	0.02644
439.73294	0.02629
438.44717	0.02617
437.16140	0.02605
435.87563	0.02595
434.58986	0.02587
433.30409	0.02581
432.01833	0.02574
430.73256	0.02565
429.44679	0.02553
428.16102	0.02540
426.87525	0.02526
425.58948	0.02513
424.30371	0.02499
423.01794	0.02486
421.73218	0.02472
420.44641	0.02459
419.16064	0.02446
417.87487	0.02433
416.58910	0.02417
415.30333	0.02400
414.01756	0.02387
412.73179	0.02378
411.44602	0.02367
410.16026	0.02356
408.87449	0.02352
407.58872	0.02363
406.30295	0.02384
405.01718	0.02407
403.73141	0.02420
402.44564	0.02425
401.15987	0.02429
399.87411	0.02438
