3997.45528 0.05294
3996.16951 0.05228
3994.88374 0.05168
3993.59798 0.05104
3992.31221 0.05066
3991.02644 0.05101
3989.74067 0.05235
3988.45490 0.05435
3987.16913 0.05617
3985.88336 0.05693
3984.59759 0.05643
3983.31183 0.05520
3982.02606 0.05400
3980.74029 0.05311
3979.45452 0.05226
3978.16875 0.05122
3976.88298 0.05022
3975.59721 0.04978
3974.31144 0.05010
3973.02567 0.05093
3971.73991 0.05189
3970.45414 0.05276
3969.16837 0.05333
3967.88260 0.05335
3966.59683 0.05275
3965.31106 0.05176
3964.02529 0.05084
3962.73952 0.05026
3961.45376 0.05010
3960.16799 0.05041
3958.88222 0.05121
3957.59645 0.05226
3956.31068 0.05310
3955.02491 0.05332
3953.73914 0.05297
3952.45337 0.05253
3951.16760 0.05248
3949.88184 0.05292
3948.59607 0.05360
3947.31030 0.05416
3946.02453 0.05438
3944.73876 0.05432
3943.45299 0.05427
3942.16722 0.05428
3940.88145 0.05401
3939.59569 0.05309
3938.30992 0.05174
3937.02415 0.05059
3935.73838 0.05005
3934.45261 0.05012
3933.16684 0.05056
3931.88107 0.05115
3930.59530 0.05167
3929.30953 0.05192
3928.02377 0.05182
3926.73800 0.05149
3925.45223 0.05126
3924.16646 0.05143
3922.88069 0.05199
3921.59492 0.05266
3920.30915 0.05331
3919.02338 0.05398
3917.73762 0.05463
3916.45185 0.05502
3915.16608 0.05483
3913.88031 0.05410
3912.59454 0.05319
3911.30877 0.05258
3910.02300 0.05259
3908.73723 0.05327
3907.45146 0.05428
3906.16570 0.05507
3904.87993 0.05523
3903.59416 0.05472
3902.30839 0.05372
3901.02262 0.05261
3899.73685 0.05184
3898.45108 0.05157
3897.16531 0.05146
3895.87955 0.05115
3894.59378 0.05085
3893.30801 0.05103
3892.02224 0.05173
3890.73647 0.05241
3889.45070 0.05252
3888.16493 0.05212
3886.87916 0.05185
3885.59339 0.05211
3884.30763 0.05236
3883.02186 0.05174
3881.73609 0.05023
3880.45032 0.04891
3879.16455 0.04880
3877.87878 0.04981
3876.59301 0.05112
3875.30724 0.05197
3874.02148 0.05209
3872.73571 0.05148
3871.44994 0.05036
3870.16417 0.04936
3868.87840 0.04906
3867.59263 0.04939
3866.30686 0.04996
3865.02109 0.05053
3863.73532 0.05100
3862.44956 0.05122
3861.16379 0.05109
3859.87802 0.05070
3858.59225 0.05027
3857.30648 0.04998
3856.02071 0.04977
3854.73494 0.04961
3853.44917 0.04975
3852.16341 0.05043
3850.87764 0.05145
3849.59187 0.05233
3848.30610 0.05279
3847.02033 0.05278
3845.73456 0.05238
3844.44879 0.05158
3843.16302 0.05047
3841.87725 0.04942
3840.59149 0.04884
3839.30572 0.04894
3838.01995 0.04954
3836.73418 0.05021
3835.44841 0.05048
3834.16264 0.05028
3832.87687 0.04996
3831.59110 0.04985
3830.30534 0.04987
3829.01957 0.04986
3827.73380 0.04978
3826.44803 0.04978
3825.16226 0.04983
3823.87649 0.04972
3822.59072 0.04956
3821.30495 0.04980
3820.01918 0.05046
3818.73342 0.05087
3817.44765 0.05047
3816.16188 0.04958
3814.87611 0.04881
3813.59034 0.04824
3812.30457 0.04778
3811.01880 0.04755
3809.73303 0.04756
3808.44726 0.04762
3807.16150 0.04777
3805.87573 0.04811
3804.58996 0.04834
3803.30419 0.04809
3802.01842 0.04751
3800.73265 0.04706
3799.44688 0.04680
3798.16111 0.04654
3796.87535 0.04643
3795.58958 0.04676
3794.30381 0.04755
3793.01804 0.04856
3791.73227 0.04951
3790.44650 0.05014
3789.16073 0.05040
3787.87496 0.05043
3786.58919 0.05039
3785.30343 0.05009
3784.01766 0.04930
3782.73189 0.04812
3781.44612 0.04704
3780.16035 0.04645
3778.87458 0.04630
3777.58881 0.04623
3776.30304 0.04611
3775.01728 0.04622
3773.73151 0.04679
3772.44574 0.04764
3771.15997 0.04833
3769.87420 0.04857
3768.58843 0.04839
3767.30266 0.04809
3766.01689 0.04821
3764.73112 0.04897
3763.44536 0.04991
3762.15959 0.05023
3760.87382 0.04967
3759.58805 0.04862
3758.30228 0.04760
3757.01651 0.04693
3755.73074 0.04677
3754.44497 0.04721
3753.15921 0.04818
3751.87344 0.04925
3750.58767 0.04986
3749.30190 0.04991
3748.01613 0.04968
3746.73036 0.04921
3745.44459 0.04851
3744.15882 0.04800
3742.87305 0.04797
3741.58729 0.04815
3740.30152 0.04838
3739.01575 0.04866
3737.72998 0.04881
3736.44421 0.04850
3735.15844 0.04754
3733.87267 0.04613
3732.58690 0.04500
3731.30114 0.04489
3730.01537 0.04563
3728.72960 0.04631
3727.44383 0.04644
3726.15806 0.04635
3724.87229 0.04652
3723.58652 0.04691
3722.30075 0.04713
3721.01498 0.04681
3719.72922 0.04588
3718.44345 0.04473
3717.15768 0.04399
3715.87191 0.04402
3714.58614 0.04461
3713.30037 0.04533
3712.01460 0.04592
3710.72883 0.04641
3709.44307 0.04682
3708.15730 0.04716
3706.87153 0.04749
3705.58576 0.04784
3704.29999 0.04819
3703.01422 0.04863
3701.72845 0.04917
3700.44268 0.04933
3699.15691 0.04836
3697.87115 0.04638
3696.58538 0.04457
3695.29961 0.04398
3694.01384 0.04462
3692.72807 0.04577
3691.44230 0.04641
3690.15653 0.04588
3688.87076 0.04442
3687.58500 0.04284
3686.29923 0.04174
3685.01346 0.04144
3683.72769 0.04190
3682.44192 0.04271
3681.15615 0.04352
3679.87038 0.04435
3678.58461 0.04528
3677.29884 0.04607
3676.01308 0.04644
3674.72731 0.04632
3673.44154 0.04580
3672.15577 0.04514
3670.87000 0.04486
3669.58423 0.04509
3668.29846 0.04531
3667.01269 0.04509
3665.72693 0.04465
3664.44116 0.04447
3663.15539 0.04463
3661.86962 0.04489
3660.58385 0.04508
3659.29808 0.04521
3658.01231 0.04546
3656.72654 0.04605
3655.44077 0.04692
3654.15501 0.04759
3652.86924 0.04758
3651.58347 0.04700
3650.29770 0.04640
3649.01193 0.04605
3647.72616 0.04569
3646.44039 0.04499
3645.15462 0.04407
3643.86886 0.04344
3642.58309 0.04352
3641.29732 0.04434
3640.01155 0.04568
3638.72578 0.04723
3637.44001 0.04857
3636.15424 0.04909
3634.86847 0.04859
3633.58270 0.04765
3632.29694 0.04707
3631.01117 0.04716
3629.72540 0.04758
3628.43963 0.04786
3627.15386 0.04772
3625.86809 0.04726
3624.58232 0.04693
3623.29655 0.04699
3622.01079 0.04723
3620.72502 0.04745
3619.43925 0.04789
3618.15348 0.04875
3616.86771 0.04977
3615.58194 0.05031
3614.29617 0.05008
3613.01040 0.04943
3611.72463 0.04891
3610.43887 0.04880
3609.15310 0.04906
3607.86733 0.04964
3606.58156 0.05051
3605.29579 0.05149
3604.01002 0.05235
3602.72425 0.05293
3601.43848 0.05321
3600.15272 0.05326
3598.86695 0.05319
3597.58118 0.05321
3596.29541 0.05344
3595.00964 0.05368
3593.72387 0.05365
3592.43810 0.05355
3591.15233 0.05383
3589.86656 0.05452
3588.58080 0.05520
3587.29503 0.05533
3586.00926 0.05467
3584.72349 0.05350
3583.43772 0.05251
3582.15195 0.05219
3580.86618 0.05251
3579.58041 0.05317
3578.29464 0.05388
3577.00888 0.05446
3575.72311 0.05484
3574.43734 0.05504
3573.15157 0.05516
3571.86580 0.05524
3570.58003 0.05510
3569.29426 0.05461
3568.00849 0.05410
3566.72273 0.05413
3565.43696 0.05492
3564.15119 0.05592
3562.86542 0.05646
3561.57965 0.05645
3560.29388 0.05636
3559.00811 0.05667
3557.72234 0.05739
3556.43657 0.05821
3555.15081 0.05878
3553.86504 0.05890
3552.57927 0.05858
3551.29350 0.05805
3550.00773 0.05763
3548.72196 0.05747
3547.43619 0.05751
3546.15042 0.05775
3544.86466 0.05834
3543.57889 0.05937
3542.29312 0.06052
3541.00735 0.06122
3539.72158 0.06117
3538.43581 0.06052
3537.15004 0.05964
3535.86427 0.05875
3534.57850 0.05796
3533.29274 0.05751
3532.00697 0.05768
3530.72120 0.05856
3529.43543 0.05986
3528.14966 0.06111
3526.86389 0.06198
3525.57812 0.06245
3524.29235 0.06264
3523.00659 0.06269
3521.72082 0.06275
3520.43505 0.06300
3519.14928 0.06353
3517.86351 0.06409
3516.57774 0.06433
3515.29197 0.06414
3514.00620 0.06384
3512.72043 0.06370
3511.43467 0.06369
3510.14890 0.06366
3508.86313 0.06366
3507.57736 0.06380
3506.29159 0.06399
3505.00582 0.06400
3503.72005 0.06372
3502.43428 0.06327
3501.14852 0.06288
3499.86275 0.06278
3498.57698 0.06310
3497.29121 0.06383
3496.00544 0.06472
3494.71967 0.06538
3493.43390 0.06549
3492.14813 0.06508
3490.86236 0.06459
3489.57660 0.06447
3488.29083 0.06476
3487.00506 0.06518
3485.71929 0.06553
3484.43352 0.06591
3483.14775 0.06644
3481.86198 0.06699
3480.57621 0.06721
3479.29045 0.06696
3478.00468 0.06642
3476.71891 0.06589
3475.43314 0.06561
3474.14737 0.06570
3472.86160 0.06621
3471.57583 0.06700
3470.29006 0.06769
3469.00429 0.06789
3467.71853 0.06756
3466.43276 0.06695
3465.14699 0.06629
3463.86122 0.06569
3462.57545 0.06533
3461.28968 0.06537
3460.00391 0.06582
3458.71814 0.06642
3457.43238 0.06684
3456.14661 0.06690
3454.86084 0.06671
3453.57507 0.06656
3452.28930 0.06671
3451.00353 0.06722
3449.71776 0.06795
3448.43199 0.06868
3447.14622 0.06922
3445.86046 0.06948
3444.57469 0.06954
3443.28892 0.06955
3442.00315 0.06962
3440.71738 0.06972
3439.43161 0.06987
3438.14584 0.07017
3436.86007 0.07063
3435.57431 0.07096
3434.28854 0.07089
3433.00277 0.07042
3431.71700 0.06992
3430.43123 0.06978
3429.14546 0.07009
3427.85969 0.07057
3426.57392 0.07084
3425.28815 0.07081
3424.00239 0.07075
3422.71662 0.07099
3421.43085 0.07154
3420.14508 0.07204
3418.85931 0.07213
3417.57354 0.07191
3416.28777 0.07179
3415.00200 0.07203
3413.71624 0.07246
3412.43047 0.07273
3411.14470 0.07262
3409.85893 0.07218
3408.57316 0.07167
3407.28739 0.07145
3406.00162 0.07182
3404.71585 0.07268
3403.43008 0.07356
3402.14432 0.07409
3400.85855 0.07431
3399.57278 0.07410
3398.28701 0.07381
3397.00124 0.07391
3395.71547 0.07403
3394.42970 0.07382
3393.14393 0.07340
3391.85817 0.07311
3390.57240 0.07323
3389.28663 0.07380
3388.00086 0.07464
3386.71509 0.07552
3385.42932 0.07634
3384.14355 0.07702
3382.85778 0.07741
3381.57201 0.07737
3380.28625 0.07696
3379.00048 0.07640
3377.71471 0.07592
3376.42894 0.07563
3375.14317 0.07556
3373.85740 0.07571
3372.57163 0.07595
3371.28586 0.07614
3370.00010 0.07615
3368.71433 0.07597
3367.42856 0.07573
3366.14279 0.07554
3364.85702 0.07544
3363.57125 0.07539
3362.28548 0.07538
3360.99971 0.07553
3359.71394 0.07584
3358.42818 0.07622
3357.14241 0.07652
3355.85664 0.07674
3354.57087 0.07698
3353.28510 0.07723
3351.99933 0.07740
3350.71356 0.07738
3349.42779 0.07717
3348.14202 0.07678
3346.85626 0.07630
3345.57049 0.07600
3344.28472 0.07621
3342.99895 0.07695
3341.71318 0.07778
3340.42741 0.07813
3339.14164 0.07784
3337.85587 0.07726
3336.57011 0.07687
3335.28434 0.07693
3333.99857 0.07739
3332.71280 0.07808
3331.42703 0.07867
3330.14126 0.07890
3328.85549 0.07873
3327.56972 0.07845
3326.28395 0.07835
3324.99819 0.07845
3323.71242 0.07859
3322.42665 0.07877
3321.14088 0.07911
3319.85511 0.07967
3318.56934 0.08022
3317.28357 0.08048
3315.99780 0.08038
3314.71204 0.08007
3313.42627 0.07962
3312.14050 0.07898
3310.85473 0.07829
3309.56896 0.07794
3308.28319 0.07823
3306.99742 0.07896
3305.71165 0.07951
3304.42588 0.07947
3303.14012 0.07899
3301.85435 0.07855
3300.56858 0.07842
3299.28281 0.07851
3297.99704 0.07857
3296.71127 0.07843
3295.42550 0.07810
3294.13973 0.07781
3292.85397 0.07782
3291.56820 0.07822
3290.28243 0.07880
3288.99666 0.07929
3287.71089 0.07960
3286.42512 0.07979
3285.13935 0.07991
3283.85358 0.07991
3282.56781 0.07971
3281.28205 0.07938
3279.99628 0.07910
3278.71051 0.07895
3277.42474 0.07884
3276.13897 0.07868
3274.85320 0.07852
3273.56743 0.07857
3272.28166 0.07892
3270.99590 0.07939
3269.71013 0.07976
3268.42436 0.07998
3267.13859 0.08016
3265.85282 0.08035
3264.56705 0.08045
3263.28128 0.08040
3261.99551 0.08025
3260.70974 0.08016
3259.42398 0.08012
3258.13821 0.08003
3256.85244 0.07977
3255.56667 0.07941
3254.28090 0.07905
3252.99513 0.07877
3251.70936 0.07860
3250.42359 0.07863
3249.13783 0.07886
3247.85206 0.07901
3246.56629 0.07876
3245.28052 0.07808
3243.99475 0.07731
3242.70898 0.07683
3241.42321 0.07676
3240.13744 0.07695
3238.85167 0.07713
3237.56591 0.07714
3236.28014 0.07696
3234.99437 0.07672
3233.70860 0.07653
3232.42283 0.07641
3231.13706 0.07638
3229.85129 0.07644
3228.56552 0.07664
3227.27976 0.07694
3225.99399 0.07722
3224.70822 0.07734
3223.42245 0.07720
3222.13668 0.07685
3220.85091 0.07651
3219.56514 0.07636
3218.27937 0.07644
3216.99360 0.07662
3215.70784 0.07673
3214.42207 0.07667
3213.13630 0.07641
3211.85053 0.07600
3210.56476 0.07564
3209.27899 0.07552
3207.99322 0.07568
3206.70745 0.07586
3205.42169 0.07582
3204.13592 0.07560
3202.85015 0.07554
3201.56438 0.07587
3200.27861 0.07641
3198.99284 0.07677
3197.70707 0.07681
3196.42130 0.07674
3195.13553 0.07677
3193.84977 0.07684
3192.56400 0.07676
3191.27823 0.07651
3189.99246 0.07629
3188.70669 0.07624
3187.42092 0.07630
3186.13515 0.07630
3184.84938 0.07621
3183.56362 0.07615
3182.27785 0.07620
3180.99208 0.07630
3179.70631 0.07627
3178.42054 0.07601
3177.13477 0.07556
3175.84900 0.07504
3174.56323 0.07459
3173.27746 0.07423
3171.99170 0.07384
3170.70593 0.07335
3169.42016 0.07290
3168.13439 0.07274
3166.84862 0.07290
3165.56285 0.07310
3164.27708 0.07307
3162.99131 0.07281
3161.70555 0.07258
3160.41978 0.07248
3159.13401 0.07241
3157.84824 0.07219
3156.56247 0.07182
3155.27670 0.07148
3153.99093 0.07132
3152.70516 0.07137
3151.41939 0.07156
3150.13363 0.07171
3148.84786 0.07169
3147.56209 0.07151
3146.27632 0.07134
3144.99055 0.07141
3143.70478 0.07174
3142.41901 0.07214
3141.13324 0.07232
3139.84748 0.07217
3138.56171 0.07181
3137.27594 0.07144
3135.99017 0.07121
3134.70440 0.07112
3133.41863 0.07117
3132.13286 0.07143
3130.84709 0.07186
3129.56132 0.07222
3128.27556 0.07219
3126.98979 0.07166
3125.70402 0.07090
3124.41825 0.07026
3123.13248 0.06989
3121.84671 0.06967
3120.56094 0.06948
3119.27517 0.06928
3117.98940 0.06915
3116.70364 0.06908
3115.41787 0.06911
3114.13210 0.06932
3112.84633 0.06975
3111.56056 0.07022
3110.27479 0.07047
3108.98902 0.07041
3107.70325 0.07016
3106.41749 0.06979
3105.13172 0.06932
3103.84595 0.06882
3102.56018 0.06857
3101.27441 0.06876
3099.98864 0.06923
3098.70287 0.06961
3097.41710 0.06967
3096.13133 0.06953
3094.84557 0.06947
3093.55980 0.06968
3092.27403 0.07008
3090.98826 0.07039
3089.70249 0.07034
3088.41672 0.06991
3087.13095 0.06935
3085.84518 0.06891
3084.55942 0.06869
3083.27365 0.06859
3081.98788 0.06853
3080.70211 0.06856
3079.41634 0.06869
3078.13057 0.06886
3076.84480 0.06901
3075.55903 0.06914
3074.27326 0.06919
3072.98750 0.06909
3071.70173 0.06880
3070.41596 0.06849
3069.13019 0.06834
3067.84442 0.06836
3066.55865 0.06842
3065.27288 0.06841
3063.98711 0.06832
3062.70135 0.06815
3061.41558 0.06795
3060.12981 0.06780
3058.84404 0.06774
3057.55827 0.06770
3056.27250 0.06749
3054.98673 0.06707
3053.70096 0.06665
3052.41519 0.06650
3051.12943 0.06668
3049.84366 0.06699
3048.55789 0.06719
3047.27212 0.06718
3045.98635 0.06702
3044.70058 0.06680
3043.41481 0.06660
3042.12904 0.06651
3040.84328 0.06652
3039.55751 0.06655
3038.27174 0.06647
3036.98597 0.06630
3035.70020 0.06614
3034.41443 0.06598
3033.12866 0.06572
3031.84289 0.06534
3030.55712 0.06500
3029.27136 0.06490
3027.98559 0.06506
3026.69982 0.06524
3025.41405 0.06521
3024.12828 0.06493
3022.84251 0.06456
3021.55674 0.06432
3020.27097 0.06422
3018.98521 0.06420
3017.69944 0.06417
3016.41367 0.06415
3015.12790 0.06413
3013.84213 0.06409
3012.55636 0.06401
3011.27059 0.06389
3009.98482 0.06373
3008.69905 0.06362
3007.41329 0.06367
3006.12752 0.06382
3004.84175 0.06386
3003.55598 0.06367
3002.27021 0.06345
3000.98444 0.06327
2999.69867 0.06272
2998.41290 0.06261
2997.12714 0.06259
2995.84137 0.06263
2994.55560 0.06271
2993.26983 0.06281
2991.98406 0.06293
2990.69829 0.06312
2989.41252 0.06332
2988.12675 0.06338
2986.84098 0.06325
2985.55522 0.06301
2984.26945 0.06287
2982.98368 0.06293
2981.69791 0.06317
2980.41214 0.06356
2979.12637 0.06409
2977.84060 0.06466
2976.55483 0.06504
2975.26907 0.06512
2973.98330 0.06512
2972.69753 0.06545
2971.41176 0.06635
2970.12599 0.06767
2968.84022 0.06902
2967.55445 0.07009
2966.26868 0.07085
2964.98291 0.07144
2963.69715 0.07200
2962.41138 0.07256
2961.12561 0.07316
2959.83984 0.07388
2958.55407 0.07470
2957.26830 0.07553
2955.98253 0.07624
2954.69676 0.07673
2953.41100 0.07691
2952.12523 0.07689
2950.83946 0.07691
2949.55369 0.07717
2948.26792 0.07756
2946.98215 0.07770
2945.69638 0.07737
2944.41061 0.07670
2943.12484 0.07607
2941.83908 0.07580
2940.55331 0.07600
2939.26754 0.07661
2937.98177 0.07742
2936.69600 0.07820
2935.41023 0.07877
2934.12446 0.07911
2932.83869 0.07940
2931.55293 0.07984
2930.26716 0.08049
2928.98139 0.08124
2927.69562 0.08199
2926.40985 0.08264
2925.12408 0.08308
2923.83831 0.08322
2922.55254 0.08309
2921.26677 0.08283
2919.98101 0.08247
2918.69524 0.08199
2917.40947 0.08140
2916.12370 0.08084
2914.83793 0.08036
2913.55216 0.07988
2912.26639 0.07929
2910.98062 0.07867
2909.69486 0.07814
2908.40909 0.07768
2907.12332 0.07715
2905.83755 0.07645
2904.55178 0.07570
2903.26601 0.07513
2901.98024 0.07493
2900.69447 0.07505
2899.40870 0.07521
2898.12294 0.07505
2896.83717 0.07442
2895.55140 0.07347
2894.26563 0.07249
2892.97986 0.07166
2891.69409 0.07096
2890.40832 0.07033
2889.12255 0.06974
2887.83678 0.06920
2886.55102 0.06879
2885.26525 0.06854
2883.97948 0.06844
2882.69371 0.06845
2881.40794 0.06851
2880.12217 0.06854
2878.83640 0.06851
2877.55063 0.06850
2876.26487 0.06873
2874.97910 0.06928
2873.69333 0.07001
2872.40756 0.07062
2871.12179 0.07100
2869.83602 0.07121
2868.55025 0.07133
2867.26448 0.07126
2865.97871 0.07099
2864.69295 0.07065
2863.40718 0.07043
2862.12141 0.07028
2860.83564 0.07001
2859.54987 0.06964
2858.26410 0.06941
2856.97833 0.06947
2855.69256 0.06970
2854.40680 0.06985
2853.12103 0.06980
2851.83526 0.06955
2850.54949 0.06911
2849.26372 0.06853
2847.97795 0.06794
2846.69218 0.06752
2845.40641 0.06736
2844.12064 0.06727
2842.83488 0.06701
2841.54911 0.06638
2840.26334 0.06539
2838.97757 0.06424
2837.69180 0.06314
2836.40603 0.06222
2835.12026 0.06149
2833.83449 0.06096
2832.54873 0.06059
2831.26296 0.06034
2829.97719 0.06009
2828.69142 0.05980
2827.40565 0.05955
2826.11988 0.05938
2824.83411 0.05926
2823.54834 0.05910
2822.26257 0.05887
2820.97681 0.05861
2819.69104 0.05832
2818.40527 0.05804
2817.11950 0.05781
2815.83373 0.05769
2814.54796 0.05762
2813.26219 0.05752
2811.97642 0.05734
2810.69066 0.05704
2809.40489 0.05665
2808.11912 0.05622
2806.83335 0.05585
2805.54758 0.05552
2804.26181 0.05517
2802.97604 0.05481
2801.69027 0.05460
2800.40450 0.05472
2799.11874 0.05504
2797.83297 0.05531
2796.54720 0.05534
2795.26143 0.05522
2793.97566 0.05514
2792.68989 0.05521
2791.40412 0.05535
2790.11835 0.05544
2788.83259 0.05535
2787.54682 0.05504
2786.26105 0.05466
2784.97528 0.05439
2783.68951 0.05431
2782.40374 0.05432
2781.11797 0.05425
2779.83220 0.05412
2778.54643 0.05409
2777.26067 0.05426
2775.97490 0.05444
2774.68913 0.05437
2773.40336 0.05396
2772.11759 0.05339
2770.83182 0.05295
2769.54605 0.05281
2768.26028 0.05292
2766.97452 0.05304
2765.68875 0.05301
2764.40298 0.05285
2763.11721 0.05270
2761.83144 0.05263
2760.54567 0.05260
2759.25990 0.05251
2757.97413 0.05229
2756.68836 0.05197
2755.40260 0.05172
2754.11683 0.05172
2752.83106 0.05192
2751.54529 0.05210
2750.25952 0.05212
2748.97375 0.05205
2747.68798 0.05207
2746.40221 0.05213
2745.11645 0.05204
2743.83068 0.05174
2742.54491 0.05141
2741.25914 0.05128
2739.97337 0.05133
2738.68760 0.05142
2737.40183 0.05140
2736.11606 0.05125
2734.83029 0.05099
2733.54453 0.05071
2732.25876 0.05054
2730.97299 0.05055
2729.68722 0.05069
2728.40145 0.05087
2727.11568 0.05098
2725.82991 0.05093
2724.54414 0.05068
2723.25838 0.05030
2721.97261 0.04998
2720.68684 0.04985
2719.40107 0.04989
2718.11530 0.04999
2716.82953 0.05004
2715.54376 0.05003
2714.25799 0.05002
2712.97222 0.05004
2711.68646 0.05004
2710.40069 0.04997
2709.11492 0.04982
2707.82915 0.04963
2706.54338 0.04944
2705.25761 0.04922
2703.97184 0.04894
2702.68607 0.04868
2701.40031 0.04853
2700.11454 0.04847
2698.82877 0.04841
2697.54300 0.04832
2696.25723 0.04830
2694.97146 0.04842
2693.68569 0.04861
2692.39992 0.04872
2691.11415 0.04870
2689.82839 0.04869
2688.54262 0.04876
2687.25685 0.04878
2685.97108 0.04860
2684.68531 0.04827
2683.39954 0.04803
2682.11377 0.04801
2680.82800 0.04812
2679.54224 0.04818
2678.25647 0.04812
2676.97070 0.04798
2675.68493 0.04787
2674.39916 0.04779
2673.11339 0.04773
2671.82762 0.04769
2670.54185 0.04771
2669.25608 0.04782
2667.97032 0.04788
2666.68455 0.04773
2665.39878 0.04739
2664.11301 0.04712
2662.82724 0.04709
2661.54147 0.04727
2660.25570 0.04747
2658.96993 0.04758
2657.68417 0.04757
2656.39840 0.04745
2655.11263 0.04730
2653.82686 0.04719
2652.54109 0.04713
2651.25532 0.04698
2649.96955 0.04663
2648.68378 0.04606
2647.39801 0.04541
2646.11225 0.04490
2644.82648 0.04469
2643.54071 0.04483
2642.25494 0.04520
2640.96917 0.04557
2639.68340 0.04578
2638.39763 0.04580
2637.11186 0.04566
2635.82609 0.04535
2634.54033 0.04488
2633.25456 0.04443
2631.96879 0.04417
2630.68302 0.04419
2629.39725 0.04436
2628.11148 0.04444
2626.82571 0.04432
2625.53994 0.04403
2624.25418 0.04365
2622.96841 0.04323
2621.68264 0.04285
2620.39687 0.04257
2619.11110 0.04245
2617.82533 0.04244
2616.53956 0.04249
2615.25379 0.04260
2613.96802 0.04276
2612.68226 0.04287
2611.39649 0.04281
2610.11072 0.04256
2608.82495 0.04225
2607.53918 0.04201
2606.25341 0.04192
2604.96764 0.04192
2603.68187 0.04191
2602.39611 0.04176
2601.11034 0.04149
2599.82457 0.04112
2598.53880 0.04068
2597.25303 0.04020
2595.96726 0.03982
2594.68149 0.03966
2593.39572 0.03969
2592.10995 0.03980
2590.82419 0.03992
2589.53842 0.04000
2588.25265 0.03998
2586.96688 0.03986
2585.68111 0.03976
2584.39534 0.03978
2583.10957 0.03993
2581.82380 0.04000
2580.53804 0.03980
2579.25227 0.03933
2577.96650 0.03885
2576.68073 0.03864
2575.39496 0.03871
2574.10919 0.03886
2572.82342 0.03893
2571.53765 0.03895
2570.25188 0.03909
2568.96612 0.03938
2567.68035 0.03965
2566.39458 0.03971
2565.10881 0.03951
2563.82304 0.03917
2562.53727 0.03881
2561.25150 0.03854
2559.96573 0.03839
2558.67997 0.03825
2557.39420 0.03800
2556.10843 0.03769
2554.82266 0.03753
2553.53689 0.03757
2552.25112 0.03760
2550.96535 0.03751
2549.67958 0.03742
2548.39381 0.03742
2547.10805 0.03743
2545.82228 0.03732
2544.53651 0.03717
2543.25074 0.03717
2541.96497 0.03737
2540.67920 0.03765
2539.39343 0.03780
2538.10766 0.03769
2536.82190 0.03736
2535.53613 0.03701
2534.25036 0.03681
2532.96459 0.03682
2531.67882 0.03693
2530.39305 0.03692
2529.10728 0.03663
2527.82151 0.03621
2526.53574 0.03605
2525.24998 0.03644
2523.96421 0.03724
2522.67844 0.03796
2521.39267 0.03821
2520.10690 0.03794
2518.82113 0.03743
2517.53536 0.03707
2516.24959 0.03702
2514.96383 0.03714
2513.67806 0.03721
2512.39229 0.03716
2511.10652 0.03710
2509.82075 0.03712
2508.53498 0.03708
2507.24921 0.03676
2505.96344 0.03616
2504.67767 0.03555
2503.39191 0.03514
2502.10614 0.03485
2500.82037 0.03453
2499.53460 0.03430
2498.24883 0.03440
2496.96306 0.03487
2495.67729 0.03544
2494.39152 0.03590
2493.10576 0.03624
2491.81999 0.03644
2490.53422 0.03645
2489.24845 0.03622
2487.96268 0.03581
2486.67691 0.03544
2485.39114 0.03525
2484.10537 0.03534
2482.81960 0.03564
2481.53384 0.03599
2480.24807 0.03616
2478.96230 0.03595
2477.67653 0.03538
2476.39076 0.03471
2475.10499 0.03425
2473.81922 0.03411
2472.53345 0.03413
2471.24769 0.03414
2469.96192 0.03412
2468.67615 0.03419
2467.39038 0.03446
2466.10461 0.03487
2464.81884 0.03528
2463.53307 0.03559
2462.24730 0.03581
2460.96153 0.03596
2459.67577 0.03592
2458.39000 0.03558
2457.10423 0.03506
2455.81846 0.03463
2454.53269 0.03446
2453.24692 0.03456
2451.96115 0.03487
2450.67538 0.03528
2449.38962 0.03557
2448.10385 0.03561
2446.81808 0.03555
2445.53231 0.03564
2444.24654 0.03593
2442.96077 0.03616
2441.67500 0.03605
2440.38923 0.03564
2439.10346 0.03522
2437.81770 0.03505
2436.53193 0.03512
2435.24616 0.03521
2433.96039 0.03524
2432.67462 0.03535
2431.38885 0.03565
2430.10308 0.03600
2428.81731 0.03607
2427.53155 0.03570
2426.24578 0.03502
2424.96001 0.03436
2423.67424 0.03399
2422.38847 0.03391
2421.10270 0.03394
2419.81693 0.03391
2418.53116 0.03376
2417.24539 0.03354
2415.95963 0.03332
2414.67386 0.03321
2413.38809 0.03328
2412.10232 0.03347
2410.81655 0.03369
2409.53078 0.03387
2408.24501 0.03399
2406.95924 0.03394
2405.67347 0.03365
2404.38771 0.03328
2403.10194 0.03310
2401.81617 0.03317
2400.53040 0.03331
2399.24463 0.03413
2397.95886 0.03346
2396.67309 0.03308
2395.38732 0.03340
2394.10156 0.03398
2392.81579 0.03443
2391.53002 0.03453
2390.24425 0.03426
2388.95848 0.03379
2387.67271 0.03338
2386.38694 0.03323
2385.10117 0.03340
2383.81540 0.03376
2382.52964 0.03404
2381.24387 0.03409
2379.95810 0.03394
2378.67233 0.03385
2377.38656 0.03383
2376.10079 0.03376
2374.81502 0.03362
2373.52925 0.03373
2372.24349 0.03415
2370.95772 0.03460
2369.67195 0.03481
2368.38618 0.03482
2367.10041 0.03488
2365.81464 0.03496
2364.52887 0.03510
2363.24310 0.03530
2361.95733 0.03563
2360.67157 0.03617
2359.38580 0.03651
2358.10003 0.03634
2356.81426 0.03584
2355.52849 0.03525
2354.24272 0.03470
2352.95695 0.03435
2351.67118 0.03444
2350.38542 0.03465
2349.09965 0.03455
2347.81388 0.03440
2346.52811 0.03476
2345.24234 0.03521
2343.95657 0.03489
2342.67080 0.03410
2341.38503 0.03460
2340.09926 0.03613
2338.81350 0.03626
2337.52773 0.03498
2336.24196 0.03500
2334.95619 0.03588
2333.67042 0.03528
2332.38465 0.03393
2331.09888 0.03451
2329.81311 0.03498
2328.52735 0.03407
2327.24158 0.03426
2325.95581 0.03511
2324.67004 0.03497
2323.38427 0.03475
2322.09850 0.03508
2320.81273 0.03472
2319.52696 0.03459
2318.24119 0.03469
2316.95543 0.03428
2315.66966 0.03391
2314.38389 0.03352
2313.09812 0.03303
2311.81235 0.03288
2310.52658 0.03265
2309.24081 0.03231
2307.95504 0.03213
2306.66928 0.03193
2305.38351 0.03180
2304.09774 0.03167
2302.81197 0.03161
2301.52620 0.03177
2300.24043 0.03199
2298.95466 0.03214
2297.66889 0.03214
2296.38312 0.03205
2295.09736 0.03197
2293.81159 0.03184
2292.52582 0.03157
2291.24005 0.03120
2289.95428 0.03090
2288.66851 0.03078
2287.38274 0.03077
2286.09697 0.03069
2284.81121 0.03042
2283.52544 0.03005
2282.23967 0.02979
2280.95390 0.02972
2279.66813 0.02968
2278.38236 0.02940
2277.09659 0.02887
2275.81082 0.02838
2274.52505 0.02819
2273.23929 0.02820
2271.95352 0.02800
2270.66775 0.02734
2269.38198 0.02645
2268.09621 0.02579
2266.81044 0.02574
2265.52467 0.02627
2264.23890 0.02700
2262.95314 0.02749
2261.66737 0.02747
2260.38160 0.02686
2259.09583 0.02585
2257.81006 0.02477
2256.52429 0.02394
2255.23852 0.02363
2253.95275 0.02395
2252.66698 0.02468
2251.38122 0.02508
2250.09545 0.02504
2248.80968 0.02571
2247.52391 0.02477
2246.23814 0.02388
2244.95237 0.02360
2243.66660 0.02388
2242.38083 0.02430
2241.09507 0.02451
2239.80930 0.02457
2238.52353 0.02470
2237.23776 0.02495
2235.95199 0.02517
2234.66622 0.02515
2233.38045 0.02484
2232.09468 0.02443
2230.80891 0.02416
2229.52315 0.02410
2228.23738 0.02402
2226.95161 0.02365
2225.66584 0.02293
2224.38007 0.02207
2223.09430 0.02140
2221.80853 0.02119
2220.52276 0.02144
2219.23700 0.02199
2217.95123 0.02265
2216.66546 0.02318
2215.37969 0.02335
2214.09392 0.02315
2212.80815 0.02287
2211.52238 0.02284
2210.23661 0.02307
2208.95084 0.02333
2207.66508 0.02336
2206.37931 0.02301
2205.09354 0.02224
2203.80777 0.02121
2202.52200 0.02008
2201.23623 0.01890
2199.95046 0.01763
2198.66469 0.01648
2197.37893 0.01583
2196.09316 0.01579
2194.80739 0.01613
2193.52162 0.01659
2192.23585 0.01712
2190.95008 0.01784
2189.66431 0.01883
2188.37854 0.01987
2187.09277 0.02051
2185.80701 0.02041
2184.52124 0.01981
2183.23547 0.01932
2181.94970 0.01930
2180.66393 0.01951
2179.37816 0.01933
2178.09239 0.01831
2176.80662 0.01659
2175.52085 0.01492
2174.23509 0.01404
2172.94932 0.01402
2171.66355 0.01463
2170.37778 0.01585
2169.09201 0.01767
2167.80624 0.01938
2166.52047 0.01992
2165.23470 0.01895
2163.94894 0.01698
2162.66317 0.01452
2161.37740 0.01177
2160.09163 0.00933
2158.80586 0.00832
2157.52009 0.00918
2156.23432 0.01098
2154.94855 0.01234
2153.66278 0.01264
2152.37702 0.01226
2151.09125 0.01206
2149.80548 0.01263
2148.51971 0.01392
2147.23394 0.01540
2145.94817 0.01657
2144.66240 0.01728
2143.37663 0.01763
2142.09087 0.01782
2140.80510 0.01788
2139.51933 0.01765
2138.23356 0.01704
2136.94779 0.01627
2135.66202 0.01584
2134.37625 0.01602
2133.09048 0.01663
2131.80471 0.01725
2130.51895 0.01769
2129.23318 0.01803
2127.94741 0.01832
2126.66164 0.01852
2125.37587 0.01879
2124.09010 0.01931
2122.80433 0.01996
2121.51856 0.02029
2120.23280 0.02005
2118.94703 0.01958
2117.66126 0.01943
2116.37549 0.01973
2115.08972 0.02013
2113.80395 0.02023
2112.51818 0.02001
2111.23241 0.01977
2109.94664 0.01982
2108.66088 0.02020
2107.37511 0.02064
2106.08934 0.02075
2104.80357 0.02035
2103.51780 0.01964
2102.23203 0.01901
2100.94626 0.01868
2099.66049 0.01890
2098.37473 0.01950
2097.08896 0.01966
2095.80319 0.01928
2094.51742 0.01859
2093.23165 0.01797
2091.94588 0.01768
2090.66011 0.01761
2089.37434 0.01743
2088.08857 0.01699
2086.80281 0.01647
2085.51704 0.01614
2084.23127 0.01612
2082.94550 0.01637
2081.65973 0.01678
2080.37396 0.01722
2079.08819 0.01752
2077.80242 0.01753
2076.51666 0.01723
2075.23089 0.01684
2073.94512 0.01665
2072.65935 0.01681
2071.37358 0.01715
2070.08781 0.01746
2068.80204 0.01765
2067.51627 0.01768
2066.23050 0.01740
2064.94474 0.01662
2063.65897 0.01547
2062.37320 0.01436
2061.08743 0.01368
2059.80166 0.01350
2058.51589 0.01364
2057.23012 0.01380
2055.94435 0.01381
2054.65859 0.01372
2053.37282 0.01382
2052.08705 0.01429
2050.80128 0.01487
2049.51551 0.01499
2048.22974 0.01425
2046.94397 0.01272
2045.65820 0.01086
2044.37243 0.00922
2043.08667 0.00824
2041.80090 0.00821
2040.51513 0.00916
2039.22936 0.01074
2037.94359 0.01221
2036.65782 0.01285
2035.37205 0.01251
2034.08628 0.01177
2032.80052 0.01121
2031.51475 0.01079
2030.22898 0.01004
2028.94321 0.00886
2027.65744 0.00782
2026.37167 0.00757
2025.08590 0.00818
2023.80013 0.00917
2022.51436 0.01003
2021.22860 0.01040
2019.94283 0.01013
2018.65706 0.00943
2017.37129 0.00889
2016.08552 0.00902
2014.79975 0.00978
2013.51398 0.01064
2012.22821 0.01110
2010.94245 0.01107
2009.65668 0.01083
2008.37091 0.01066
2007.08514 0.01068
2005.79937 0.01081
2004.51360 0.01098
2003.22783 0.01123
2001.94206 0.01168
2000.65629 0.01252
1999.37053 0.01375
1998.08476 0.01489
1996.79899 0.01519
1995.51322 0.01449
1994.22745 0.01348
1992.94168 0.01303
1991.65591 0.01329
1990.37014 0.01374
1989.08438 0.01387
1987.79861 0.01370
1986.51284 0.01347
1985.22707 0.01333
1983.94130 0.01325
1982.65553 0.01323
1981.36976 0.01330
1980.08399 0.01342
1978.79822 0.01338
1977.51246 0.01310
1976.22669 0.01276
1974.94092 0.01267
1973.65515 0.01288
1972.36938 0.01324
1971.08361 0.01360
1969.79784 0.01395
1968.51207 0.01423
1967.22631 0.01441
1965.94054 0.01453
1964.65477 0.01473
1963.36900 0.01497
1962.08323 0.01496
1960.79746 0.01450
1959.51169 0.01389
1958.22592 0.01362
1956.94015 0.01382
1955.65439 0.01422
1954.36862 0.01463
1953.08285 0.01518
1951.79708 0.01604
1950.51131 0.01707
1949.22554 0.01792
1947.93977 0.01834
1946.65400 0.01834
1945.36823 0.01815
1944.08247 0.01800
1942.79670 0.01799
1941.51093 0.01815
1940.22516 0.01847
1938.93939 0.01888
1937.65362 0.01926
1936.36785 0.01943
1935.08208 0.01928
1933.79632 0.01891
1932.51055 0.01850
1931.22478 0.01823
1929.93901 0.01825
1928.65324 0.01865
1927.36747 0.01929
1926.08170 0.01981
1924.79593 0.01998
1923.51016 0.01991
1922.22440 0.01992
1920.93863 0.02008
1919.65286 0.02016
1918.36709 0.01994
1917.08132 0.01950
1915.79555 0.01901
1914.50978 0.01866
1913.22401 0.01856
1911.93825 0.01875
1910.65248 0.01914
1909.36671 0.01955
1908.08094 0.01974
1906.79517 0.01958
1905.50940 0.01913
1904.22363 0.01864
1902.93786 0.01835
1901.65209 0.01838
1900.36633 0.01870
1899.08056 0.01920
1897.79479 0.01979
1896.50902 0.02035
1895.22325 0.02077
1893.93748 0.02095
1892.65171 0.02082
1891.36594 0.02041
1890.08018 0.01990
1888.79441 0.01951
1887.50864 0.01933
1886.22287 0.01934
1884.93710 0.01944
1883.65133 0.01952
1882.36556 0.01955
1881.07979 0.01955
1879.79402 0.01953
1878.50826 0.01954
1877.22249 0.01958
1875.93672 0.01967
1874.65095 0.01981
1873.36518 0.01992
1872.07941 0.01995
1870.79364 0.01985
1869.50787 0.01965
1868.22211 0.01944
1866.93634 0.01934
1865.65057 0.01941
1864.36480 0.01960
1863.07903 0.01976
1861.79326 0.01975
1860.50749 0.01959
1859.22172 0.01938
1857.93595 0.01924
1856.65019 0.01918
1855.36442 0.01916
1854.07865 0.01918
1852.79288 0.01925
1851.50711 0.01936
1850.22134 0.01945
1848.93557 0.01953
1847.64980 0.01962
1846.36404 0.01974
1845.07827 0.01988
1843.79250 0.02005
1842.50673 0.02020
1841.22096 0.02029
1839.93519 0.02032
1838.64942 0.02032
1837.36365 0.02032
1836.07788 0.02032
1834.79212 0.02034
1833.50635 0.02036
1832.22058 0.02032
1830.93481 0.02021
1829.64904 0.02017
1828.36327 0.02027
1827.07750 0.02047
1825.79173 0.02068
1824.50597 0.02085
1823.22020 0.02089
1821.93443 0.02077
1820.64866 0.02053
1819.36289 0.02026
1818.07712 0.02001
1816.79135 0.01980
1815.50558 0.01964
1814.21981 0.01952
1812.93405 0.01945
1811.64828 0.01946
1810.36251 0.01959
1809.07674 0.01983
1807.79097 0.02006
1806.50520 0.02023
1805.21943 0.02036
1803.93366 0.02045
1802.64790 0.02046
1801.36213 0.02035
1800.07636 0.02017
1798.79059 0.02004
1797.50482 0.02002
1796.21905 0.02009
1794.93328 0.02013
1793.64751 0.02014
1792.36174 0.02018
1791.07598 0.02036
1789.79021 0.02062
1788.50444 0.02081
1787.21867 0.02086
1785.93290 0.02082
1784.64713 0.02076
1783.36136 0.02072
1782.07559 0.02067
1780.78983 0.02061
1779.50406 0.02055
1778.21829 0.02050
1776.93252 0.02048
1775.64675 0.02048
1774.36098 0.02046
1773.07521 0.02045
1771.78944 0.02053
1770.50367 0.02065
1769.21791 0.02070
1767.93214 0.02068
1766.64637 0.02069
1765.36060 0.02078
1764.07483 0.02086
1762.78906 0.02090
1761.50329 0.02091
1760.21752 0.02087
1758.93176 0.02077
1757.64599 0.02066
1756.36022 0.02066
1755.07445 0.02074
1753.78868 0.02077
1752.50291 0.02070
1751.21714 0.02067
1749.93137 0.02075
1748.64560 0.02090
1747.35984 0.02099
1746.07407 0.02101
1744.78830 0.02100
1743.50253 0.02102
1742.21676 0.02106
1740.93099 0.02112
1739.64522 0.02126
1738.35945 0.02149
1737.07369 0.02164
1735.78792 0.02159
1734.50215 0.02150
1733.21638 0.02157
1731.93061 0.02175
1730.64484 0.02183
1729.35907 0.02178
1728.07330 0.02174
1726.78753 0.02175
1725.50177 0.02182
1724.21600 0.02198
1722.93023 0.02227
1721.64446 0.02267
1720.35869 0.02302
1719.07292 0.02327
1717.78715 0.02349
1716.50138 0.02377
1715.21561 0.02406
1713.92985 0.02430
1712.64408 0.02457
1711.35831 0.02494
1710.07254 0.02545
1708.78677 0.02604
1707.50100 0.02665
1706.21523 0.02727
1704.92946 0.02798
1703.64370 0.02873
1702.35793 0.02938
1701.07216 0.03001
1699.78639 0.03084
1698.50062 0.03177
1697.21485 0.03254
1695.92908 0.03320
1694.64331 0.03399
1693.35754 0.03483
1692.07178 0.03554
1690.78601 0.03621
1689.50024 0.03704
1688.21447 0.03799
1686.92870 0.03881
1685.64293 0.03946
1684.35716 0.04018
1683.07139 0.04111
1681.78563 0.04206
1680.49986 0.04286
1679.21409 0.04357
1677.92832 0.04426
1676.64255 0.04495
1675.35678 0.04577
1674.07101 0.04675
1672.78524 0.04778
1671.49947 0.04867
1670.21371 0.04940
1668.92794 0.05010
1667.64217 0.05083
1666.35640 0.05158
1665.07063 0.05231
1663.78486 0.05309
1662.49909 0.05395
1661.21332 0.05482
1659.92756 0.05558
1658.64179 0.05627
1657.35602 0.05700
1656.07025 0.05771
1654.78448 0.05827
1653.49871 0.05879
1652.21294 0.05942
1650.92717 0.06002
1649.64140 0.06029
1648.35564 0.06023
1647.06987 0.06014
1645.78410 0.06026
1644.49833 0.06048
1643.21256 0.06059
1641.92679 0.06050
1640.64102 0.06029
1639.35525 0.06006
1638.06949 0.05982
1636.78372 0.05958
1635.49795 0.05940
1634.21218 0.05924
1632.92641 0.05896
1631.64064 0.05846
1630.35487 0.05783
1629.06910 0.05724
1627.78333 0.05677
1626.49757 0.05634
1625.21180 0.05586
1623.92603 0.05528
1622.64026 0.05470
1621.35449 0.05419
1620.06872 0.05370
1618.78295 0.05315
1617.49718 0.05260
1616.21142 0.05219
1614.92565 0.05188
1613.63988 0.05153
1612.35411 0.05108
1611.06834 0.05062
1609.78257 0.05023
1608.49680 0.04990
1607.21103 0.04963
1605.92526 0.04941
1604.63950 0.04924
1603.35373 0.04913
1602.06796 0.04909
1600.78219 0.04909
1599.49642 0.04909
1598.21065 0.04909
1596.92488 0.04910
1595.63911 0.04917
1594.35335 0.04931
1593.06758 0.04948
1591.78181 0.04962
1590.49604 0.04971
1589.21027 0.04979
1587.92450 0.04991
1586.63873 0.05010
1585.35296 0.05032
1584.06719 0.05055
1582.78143 0.05083
1581.49566 0.05119
1580.20989 0.05163
1578.92412 0.05205
1577.63835 0.05234
1576.35258 0.05262
1575.06681 0.05306
1573.78104 0.05361
1572.49528 0.05406
1571.20951 0.05435
1569.92374 0.05460
1568.63797 0.05491
1567.35220 0.05524
1566.06643 0.05558
1564.78066 0.05597
1563.49489 0.05642
1562.20912 0.05680
1560.92336 0.05700
1559.63759 0.05718
1558.35182 0.05758
1557.06605 0.05810
1555.78028 0.05843
1554.49451 0.05852
1553.20874 0.05854
1551.92297 0.05857
1550.63721 0.05862
1549.35144 0.05871
1548.06567 0.05884
1546.77990 0.05895
1545.49413 0.05902
1544.20836 0.05909
1542.92259 0.05909
1541.63682 0.05898
1540.35105 0.05877
1539.06529 0.05864
1537.77952 0.05861
1536.49375 0.05854
1535.20798 0.05835
1533.92221 0.05819
1532.63644 0.05819
1531.35067 0.05831
1530.06490 0.05842
1528.77914 0.05850
1527.49337 0.05860
1526.20760 0.05877
1524.92183 0.05904
1523.63606 0.05932
1522.35029 0.05959
1521.06452 0.05996
1519.77875 0.06049
1518.49298 0.06106
1517.20722 0.06159
1515.92145 0.06215
1514.63568 0.06283
1513.34991 0.06361
1512.06414 0.06452
1510.77837 0.06552
1509.49260 0.06644
1508.20683 0.06719
1506.92107 0.06788
1505.63530 0.06867
1504.34953 0.06953
1503.06376 0.07026
1501.77799 0.07082
1500.49222 0.07131
1499.20645 0.07179
1497.92068 0.07223
1496.63491 0.07266
1495.34915 0.07313
1494.06338 0.07362
1492.77761 0.07405
1491.49184 0.07447
1490.20607 0.07499
1488.92030 0.07567
1487.63453 0.07641
1486.34876 0.07718
1485.06299 0.07796
1483.77723 0.07879
1482.49146 0.07968
1481.20569 0.08066
1479.91992 0.08170
1478.63415 0.08279
1477.34838 0.08390
1476.06261 0.08503
1474.77684 0.08614
1473.49108 0.08719
1472.20531 0.08820
1470.91954 0.08916
1469.63377 0.08998
1468.34800 0.09062
1467.06223 0.09113
1465.77646 0.09161
1464.49069 0.09214
1463.20492 0.09274
1461.91916 0.09340
1460.63339 0.09405
1459.34762 0.09465
1458.06185 0.09525
1456.77608 0.09595
1455.49031 0.09675
1454.20454 0.09745
1452.91877 0.09795
1451.63301 0.09829
1450.34724 0.09858
1449.06147 0.09881
1447.77570 0.09894
1446.48993 0.09895
1445.20416 0.09881
1443.91839 0.09856
1442.63262 0.09830
1441.34685 0.09808
1440.06109 0.09788
1438.77532 0.09762
1437.48955 0.09734
1436.20378 0.09718
1434.91801 0.09724
1433.63224 0.09747
1432.34647 0.09785
1431.06070 0.09843
1429.77494 0.09923
1428.48917 0.10021
1427.20340 0.10132
1425.91763 0.10252
1424.63186 0.10381
1423.34609 0.10516
1422.06032 0.10647
1420.77455 0.10764
1419.48878 0.10873
1418.20302 0.10980
1416.91725 0.11079
1415.63148 0.11160
1414.34571 0.11220
1413.05994 0.11264
1411.77417 0.11294
1410.48840 0.11304
1409.20263 0.11293
1407.91687 0.11256
1406.63110 0.11196
1405.34533 0.11121
1404.05956 0.11033
1402.77379 0.10930
1401.48802 0.10804
1400.20225 0.10657
1398.91648 0.10499
1397.63071 0.10339
1396.34495 0.10175
1395.05918 0.10007
1393.77341 0.09837
1392.48764 0.09664
1391.20187 0.09487
1389.91610 0.09306
1388.63033 0.09128
1387.34456 0.08958
1386.05880 0.08798
1384.77303 0.08639
1383.48726 0.08472
1382.20149 0.08299
1380.91572 0.08127
1379.62995 0.07962
1378.34418 0.07800
1377.05841 0.07632
1375.77264 0.07450
1374.48688 0.07255
1373.20111 0.07055
1371.91534 0.06857
1370.62957 0.06665
1369.34380 0.06483
1368.05803 0.06313
1366.77226 0.06154
1365.48649 0.06003
1364.20073 0.05857
1362.91496 0.05715
1361.62919 0.05579
1360.34342 0.05449
1359.05765 0.05327
1357.77188 0.05216
1356.48611 0.05116
1355.20034 0.05023
1353.91457 0.04935
1352.62881 0.04854
1351.34304 0.04781
1350.05727 0.04716
1348.77150 0.04654
1347.48573 0.04592
1346.19996 0.04533
1344.91419 0.04479
1343.62842 0.04433
1342.34266 0.04390
1341.05689 0.04346
1339.77112 0.04300
1338.48535 0.04253
1337.19958 0.04206
1335.91381 0.04163
1334.62804 0.04122
1333.34227 0.04084
1332.05650 0.04049
1330.77074 0.04016
1329.48497 0.03982
1328.19920 0.03946
1326.91343 0.03906
1325.62766 0.03865
1324.34189 0.03825
1323.05612 0.03791
1321.77035 0.03761
1320.48459 0.03733
1319.19882 0.03706
1317.91305 0.03678
1316.62728 0.03648
1315.34151 0.03616
1314.05574 0.03583
1312.76997 0.03552
1311.48420 0.03523
1310.19843 0.03495
1308.91267 0.03469
1307.62690 0.03441
1306.34113 0.03414
1305.05536 0.03388
1303.76959 0.03364
1302.48382 0.03343
1301.19805 0.03323
1299.91228 0.03301
1298.62652 0.03274
1297.34075 0.03240
1296.05498 0.03203
1294.76921 0.03170
1293.48344 0.03145
1292.19767 0.03129
1290.91190 0.03121
1289.62613 0.03116
1288.34036 0.03110
1287.05460 0.03100
1285.76883 0.03085
1284.48306 0.03067
1283.19729 0.03053
1281.91152 0.03044
1280.62575 0.03039
1279.33998 0.03031
1278.05421 0.03018
1276.76845 0.02997
1275.48268 0.02973
1274.19691 0.02951
1272.91114 0.02934
1271.62537 0.02924
1270.33960 0.02917
1269.05383 0.02914
1267.76806 0.02916
1266.48229 0.02920
1265.19653 0.02919
1263.91076 0.02913
1262.62499 0.02901
1261.33922 0.02887
1260.05345 0.02873
1258.76768 0.02861
1257.48191 0.02850
1256.19614 0.02840
1254.91037 0.02831
1253.62461 0.02824
1252.33884 0.02818
1251.05307 0.02814
1249.76730 0.02811
1248.48153 0.02806
1247.19576 0.02798
1245.90999 0.02788
1244.62422 0.02781
1243.33846 0.02778
1242.05269 0.02778
1240.76692 0.02776
1239.48115 0.02769
1238.19538 0.02758
1236.90961 0.02748
1235.62384 0.02738
1234.33807 0.02728
1233.05230 0.02717
1231.76654 0.02706
1230.48077 0.02694
1229.19500 0.02678
1227.90923 0.02658
1226.62346 0.02638
1225.33769 0.02619
1224.05192 0.02601
1222.76615 0.02579
1221.48039 0.02551
1220.19462 0.02519
1218.90885 0.02491
1217.62308 0.02471
1216.33731 0.02458
1215.05154 0.02449
1213.76577 0.02441
1212.48000 0.02435
1211.19423 0.02430
1209.90847 0.02425
1208.62270 0.02418
1207.33693 0.02412
1206.05116 0.02408
1204.76539 0.02407
1203.47962 0.02406
1202.19385 0.02396
1200.90808 0.02376
1199.62232 0.02376
1198.33655 0.02365
1197.05078 0.02356
1195.76501 0.02351
1194.47924 0.02349
1193.19347 0.02347
1191.90770 0.02338
1190.62193 0.02320
1189.33616 0.02298
1188.05040 0.02279
1186.76463 0.02268
1185.47886 0.02260
1184.19309 0.02253
1182.90732 0.02246
1181.62155 0.02244
1180.33578 0.02247
1179.05001 0.02249
1177.76425 0.02248
1176.47848 0.02247
1175.19271 0.02253
1173.90694 0.02266
1172.62117 0.02282
1171.33540 0.02295
1170.04963 0.02301
1168.76386 0.02302
1167.47809 0.02305
1166.19233 0.02315
1164.90656 0.02332
1163.62079 0.02349
1162.33502 0.02362
1161.04925 0.02367
1159.76348 0.02365
1158.47771 0.02366
1157.19194 0.02383
1155.90618 0.02414
1154.62041 0.02451
1153.33464 0.02484
1152.04887 0.02509
1150.76310 0.02529
1149.47733 0.02549
1148.19156 0.02572
1146.90579 0.02602
1145.62002 0.02645
1144.33426 0.02702
1143.04849 0.02772
1141.76272 0.02848
1140.47695 0.02927
1139.19118 0.03008
1137.90541 0.03100
1136.61964 0.03208
1135.33387 0.03334
1134.04811 0.03472
1132.76234 0.03617
1131.47657 0.03769
1130.19080 0.03937
1128.90503 0.04128
1127.61926 0.04346
1126.33349 0.04590
1125.04772 0.04853
1123.76195 0.05131
1122.47619 0.05424
1121.19042 0.05727
1119.90465 0.06035
1118.61888 0.06342
1117.33311 0.06652
1116.04734 0.06968
1114.76157 0.07292
1113.47580 0.07618
1112.19004 0.07938
1110.90427 0.08246
1109.61850 0.08541
1108.33273 0.08828
1107.04696 0.09112
1105.76119 0.09392
1104.47542 0.09668
1103.18965 0.09935
1101.90388 0.10187
1100.61812 0.10422
1099.33235 0.10647
1098.04658 0.10873
1096.76081 0.11100
1095.47504 0.11324
1094.18927 0.11533
1092.90350 0.11723
1091.61773 0.11892
1090.33197 0.12042
1089.04620 0.12186
1087.76043 0.12338
1086.47466 0.12504
1085.18889 0.12678
1083.90312 0.12846
1082.61735 0.13008
1081.33158 0.13173
1080.04581 0.13353
1078.76005 0.13557
1077.47428 0.13783
1076.18851 0.14025
1074.90274 0.14271
1073.61697 0.14517
1072.33120 0.14765
1071.04543 0.15023
1069.75966 0.15298
1068.47390 0.15584
1067.18813 0.15877
1065.90236 0.16178
1064.61659 0.16486
1063.33082 0.16798
1062.04505 0.17110
1060.75928 0.17421
1059.47351 0.17729
1058.18774 0.18028
1056.90198 0.18313
1055.61621 0.18587
1054.33044 0.18861
1053.04467 0.19143
1051.75890 0.19437
1050.47313 0.19738
1049.18736 0.20042
1047.90159 0.20348
1046.61583 0.20656
1045.33006 0.20969
1044.04429 0.21285
1042.75852 0.21608
1041.47275 0.21940
1040.18698 0.22287
1038.90121 0.22647
1037.61544 0.23010
1036.32967 0.23364
1035.04391 0.23707
1033.75814 0.24041
1032.47237 0.24364
1031.18660 0.24668
1029.90083 0.24946
1028.61506 0.25200
1027.32929 0.25437
1026.04352 0.25658
1024.75775 0.25857
1023.47199 0.26028
1022.18622 0.26170
1020.90045 0.26283
1019.61468 0.26368
1018.32891 0.26418
1017.04314 0.26430
1015.75737 0.26403
1014.47160 0.26337
1013.18584 0.26230
1011.90007 0.26077
1010.61430 0.25877
1009.32853 0.25635
1008.04276 0.25360
1006.75699 0.25055
1005.47122 0.24713
1004.18545 0.24325
1002.89968 0.23893
1001.61392 0.23424
1000.32815 0.22931
999.04238 0.22419
997.75661 0.21888
996.47084 0.21335
995.18507 0.20759
993.89930 0.20167
992.61353 0.19568
991.32777 0.18970
990.04200 0.18379
988.75623 0.17793
987.47046 0.17214
986.18469 0.16648
984.89892 0.16105
983.61315 0.15588
982.32738 0.15099
981.04161 0.14632
979.75585 0.14186
978.47008 0.13759
977.18431 0.13352
975.89854 0.12965
974.61277 0.12607
973.32700 0.12291
972.04123 0.12032
970.75546 0.11838
969.46970 0.11708
968.18393 0.11642
966.89816 0.11636
965.61239 0.11677
964.32662 0.11742
963.04085 0.11803
961.75508 0.11837
960.46931 0.11830
959.18354 0.11771
957.89778 0.11652
956.61201 0.11475
955.32624 0.11256
954.04047 0.11021
952.75470 0.10787
951.46893 0.10557
950.18316 0.10323
948.89739 0.10078
947.61163 0.09828
946.32586 0.09582
945.04009 0.09348
943.75432 0.09126
942.46855 0.08911
941.18278 0.08701
939.89701 0.08496
938.61124 0.08297
937.32547 0.08103
936.03971 0.07919
934.75394 0.07748
933.46817 0.07596
932.18240 0.07461
930.89663 0.07338
929.61086 0.07221
928.32509 0.07107
927.03932 0.06994
925.75356 0.06881
924.46779 0.06772
923.18202 0.06675
921.89625 0.06592
920.61048 0.06513
919.32471 0.06430
918.03894 0.06339
916.75317 0.06253
915.46740 0.06184
914.18164 0.06134
912.89587 0.06091
911.61010 0.06034
910.32433 0.05955
909.03856 0.05863
907.75279 0.05776
906.46702 0.05708
905.18125 0.05658
903.89549 0.05616
902.60972 0.05574
901.32395 0.05530
900.03818 0.05484
898.75241 0.05437
897.46664 0.05386
896.18087 0.05329
894.89510 0.05270
893.60933 0.05220
892.32357 0.05187
891.03780 0.05169
889.75203 0.05164
888.46626 0.05174
887.18049 0.05209
885.89472 0.05282
884.60895 0.05409
883.32318 0.05608
882.03742 0.05871
880.75165 0.06157
879.46588 0.06413
878.18011 0.06611
876.89434 0.06770
875.60857 0.06929
874.32280 0.07104
873.03703 0.07270
871.75126 0.07381
870.46550 0.07405
869.17973 0.07336
867.89396 0.07191
866.60819 0.06995
865.32242 0.06775
864.03665 0.06549
862.75088 0.06327
861.46511 0.06113
860.17935 0.05915
858.89358 0.05738
857.60781 0.05585
856.32204 0.05455
855.03627 0.05344
853.75050 0.05251
852.46473 0.05174
851.17896 0.05109
849.89319 0.05051
848.60743 0.04994
847.32166 0.04939
846.03589 0.04887
844.75012 0.04842
843.46435 0.04803
842.17858 0.04771
840.89281 0.04741
839.60704 0.04708
838.32128 0.04669
837.03551 0.04626
835.74974 0.04583
834.46397 0.04543
833.17820 0.04507
831.89243 0.04478
830.60666 0.04459
829.32089 0.04450
828.03512 0.04446
826.74936 0.04439
825.46359 0.04426
824.17782 0.04412
822.89205 0.04401
821.60628 0.04395
820.32051 0.04388
819.03474 0.04372
817.74897 0.04346
816.46321 0.04314
815.17744 0.04284
813.89167 0.04260
812.60590 0.04245
811.32013 0.04236
810.03436 0.04230
808.74859 0.04222
807.46282 0.04207
806.17705 0.04192
804.89129 0.04182
803.60552 0.04180
802.31975 0.04184
801.03398 0.04188
799.74821 0.04186
798.46244 0.04176
797.17667 0.04159
795.89090 0.04143
794.60513 0.04136
793.31937 0.04139
792.03360 0.04146
790.74783 0.04149
789.46206 0.04145
788.17629 0.04136
786.89052 0.04129
785.60475 0.04124
784.31898 0.04118
783.03322 0.04106
781.74745 0.04089
780.46168 0.04073
779.17591 0.04065
777.89014 0.04060
776.60437 0.04054
775.31860 0.04046
774.03283 0.04036
772.74706 0.04028
771.46130 0.04022
770.17553 0.04018
768.88976 0.04018
767.60399 0.04021
766.31822 0.04027
765.03245 0.04031
763.74668 0.04034
762.46091 0.04035
761.17515 0.04035
759.88938 0.04037
758.60361 0.04042
757.31784 0.04046
756.03207 0.04048
754.74630 0.04048
753.46053 0.04051
752.17476 0.04057
750.88899 0.04055
749.60323 0.04039
748.31746 0.04013
747.03169 0.03994
745.74592 0.03989
744.46015 0.03993
743.17438 0.03998
741.88861 0.03994
740.60284 0.03976
739.31708 0.03950
738.03131 0.03930
736.74554 0.03923
735.45977 0.03925
734.17400 0.03926
732.88823 0.03922
731.60246 0.03918
730.31669 0.03919
729.03092 0.03926
727.74516 0.03931
726.45939 0.03932
725.17362 0.03931
723.88785 0.03951
722.60208 0.03943
721.31631 0.03941
720.03054 0.03943
718.74477 0.03938
717.45901 0.03929
716.17324 0.03921
714.88747 0.03916
713.60170 0.03912
712.31593 0.03905
711.03016 0.03894
709.74439 0.03879
708.45862 0.03865
707.17285 0.03856
705.88709 0.03851
704.60132 0.03849
703.31555 0.03848
702.02978 0.03847
700.74401 0.03844
699.45824 0.03838
698.17247 0.03832
696.88670 0.03827
695.60094 0.03824
694.31517 0.03822
693.02940 0.03820
691.74363 0.03818
690.45786 0.03815
689.17209 0.03811
687.88632 0.03805
686.60055 0.03796
685.31478 0.03782
684.02902 0.03766
682.74325 0.03749
681.45748 0.03733
680.17171 0.03717
678.88594 0.03702
677.60017 0.03690
676.31440 0.03684
675.02863 0.03684
673.74287 0.03687
672.45710 0.03694
671.17133 0.03704
669.88556 0.03721
668.59979 0.03735
667.31402 0.03734
666.02825 0.03725
664.74248 0.03705
663.45671 0.03681
662.17095 0.03660
660.88518 0.03645
659.59941 0.03634
658.31364 0.03628
657.02787 0.03619
655.74210 0.03603
654.45633 0.03578
653.17056 0.03550
651.88480 0.03525
650.59903 0.03508
649.31326 0.03501
648.02749 0.03501
646.74172 0.03505
645.45595 0.03509
644.17018 0.03509
642.88441 0.03505
641.59864 0.03497
640.31288 0.03491
639.02711 0.03492
637.74134 0.03498
636.45557 0.03509
635.16980 0.03527
633.88403 0.03558
632.59826 0.03589
631.31249 0.03553
630.02673 0.03432
628.74096 0.03494
627.45519 0.03711
626.16942 0.03957
624.88365 0.04220
623.59788 0.04479
622.31211 0.04713
621.02634 0.04951
619.74057 0.05243
618.45481 0.05591
617.16904 0.05932
615.88327 0.06212
614.59750 0.06456
613.31173 0.06782
612.02596 0.07301
610.74019 0.07991
609.45442 0.08683
608.16866 0.09223
606.88289 0.09608
605.59712 0.09926
604.31135 0.10220
603.02558 0.10440
601.73981 0.10514
600.45404 0.10429
599.16827 0.10235
597.88250 0.09991
596.59674 0.09725
595.31097 0.09445
594.02520 0.09164
592.73943 0.08909
591.45366 0.08710
590.16789 0.08587
588.88212 0.08537
587.59635 0.08551
586.31059 0.08619
585.02482 0.08743
583.73905 0.08925
582.45328 0.09159
581.16751 0.09430
579.88174 0.09716
578.59597 0.09995
577.31020 0.10255
576.02443 0.10494
574.73867 0.10719
573.45290 0.10942
572.16713 0.11178
570.88136 0.11445
569.59559 0.11750
568.30982 0.12088
567.02405 0.12446
565.73828 0.12810
564.45251 0.13160
563.16675 0.13452
561.88098 0.13635
560.59521 0.13664
559.30944 0.13531
558.02367 0.13256
556.73790 0.12869
555.45213 0.12394
554.16636 0.11853
552.88060 0.11275
551.59483 0.10694
550.30906 0.10142
549.02329 0.09640
547.73752 0.09195
546.45175 0.08802
545.16598 0.08451
543.88021 0.08135
542.59444 0.07851
541.30868 0.07597
540.02291 0.07365
538.73714 0.07141
537.45137 0.06922
536.16560 0.06715
534.87983 0.06532
533.59406 0.06379
532.30829 0.06247
531.02253 0.06122
529.73676 0.05989
528.45099 0.05839
527.16522 0.05679
525.87945 0.05527
524.59368 0.05403
523.30791 0.05310
522.02214 0.05233
520.73637 0.05153
519.45061 0.05060
518.16484 0.04958
516.87907 0.04855
515.59330 0.04757
514.30753 0.04667
513.02176 0.04588
511.73599 0.04521
510.45022 0.04467
509.16446 0.04421
507.87869 0.04377
506.59292 0.04332
505.30715 0.04283
504.02138 0.04229
502.73561 0.04168
501.44984 0.04101
500.16407 0.04032
498.87830 0.03972
497.59254 0.03920
496.30677 0.03871
495.02100 0.03820
493.73523 0.03768
492.44946 0.03723
491.16369 0.03692
489.87792 0.03672
488.59215 0.03659
487.30639 0.03649
486.02062 0.03639
484.73485 0.03630
483.44908 0.03622
482.16331 0.03617
480.87754 0.03618
479.59177 0.03626
478.30600 0.03640
477.02023 0.03660
475.73447 0.03682
474.44870 0.03706
473.16293 0.03734
471.87716 0.03761
470.59139 0.03780
469.30562 0.03783
468.01985 0.03769
466.73408 0.03742
465.44832 0.03702
464.16255 0.03652
462.87678 0.03598
461.59101 0.03548
460.30524 0.03506
459.01947 0.03468
457.73370 0.03432
456.44793 0.03398
455.16216 0.03362
453.87640 0.03325
452.59063 0.03291
451.30486 0.03261
450.01909 0.03234
448.73332 0.03203
447.44755 0.03167
446.16178 0.03129
444.87601 0.03095
443.59025 0.03070
442.30448 0.03051
441.01871 0.03032
439.73294 0.03014
438.44717 0.02997
437.16140 0.02985
435.87563 0.02975
434.58986 0.02964
433.30409 0.02953
432.01833 0.02941
430.73256 0.02927
429.44679 0.02911
428.16102 0.02890
426.87525 0.02869
425.58948 0.02852
424.30371 0.02839
423.01794 0.02831
421.73218 0.02825
420.44641 0.02817
419.16064 0.02805
417.87487 0.02788
416.58910 0.02766
415.30333 0.02744
414.01756 0.02726
412.73179 0.02715
411.44602 0.02708
410.16026 0.02700
408.87449 0.02691
407.58872 0.02683
406.30295 0.02679
405.01718 0.02681
403.73141 0.02685
402.44564 0.02690
401.15987 0.02693
399.87411 0.02696
