3997.45528 0.05997
3996.16951 0.05978
3994.88374 0.05943
3993.59798 0.05929
3992.31221 0.05954
3991.02644 0.05995
3989.74067 0.06025
3988.45490 0.06047
3987.16913 0.06074
3985.88336 0.06104
3984.59759 0.06116
3983.31183 0.06105
3982.02606 0.06101
3980.74029 0.06126
3979.45452 0.06163
3978.16875 0.06172
3976.88298 0.06141
3975.59721 0.06108
3974.31144 0.06123
3973.02567 0.06191
3971.73991 0.06260
3970.45414 0.06272
3969.16837 0.06212
3967.88260 0.06114
3966.59683 0.06026
3965.31106 0.05970
3964.02529 0.05941
3962.73952 0.05933
3961.45376 0.05947
3960.16799 0.05994
3958.88222 0.06063
3957.59645 0.06101
3956.31068 0.06040
3955.02491 0.05880
3953.73914 0.05703
3952.45337 0.05618
3951.16760 0.05657
3949.88184 0.05763
3948.59607 0.05848
3947.31030 0.05875
3946.02453 0.05870
3944.73876 0.05886
3943.45299 0.05940
3942.16722 0.06004
3940.88145 0.06034
3939.59569 0.06013
3938.30992 0.05958
3937.02415 0.05903
3935.73838 0.05873
3934.45261 0.05885
3933.16684 0.05933
3931.88107 0.05984
3930.59530 0.05982
3929.30953 0.05912
3928.02377 0.05813
3926.73800 0.05743
3925.45223 0.05724
3924.16646 0.05740
3922.88069 0.05770
3921.59492 0.05789
3920.30915 0.05773
3919.02338 0.05728
3917.73762 0.05696
3916.45185 0.05703
3915.16608 0.05735
3913.88031 0.05757
3912.59454 0.05762
3911.30877 0.05768
3910.02300 0.05787
3908.73723 0.05822
3907.45146 0.05881
3906.16570 0.05967
3904.87993 0.06053
3903.59416 0.06086
3902.30839 0.06041
3901.02262 0.05962
3899.73685 0.05934
3898.45108 0.05998
3897.16531 0.06113
3895.87955 0.06200
3894.59378 0.06208
3893.30801 0.06148
3892.02224 0.06067
3890.73647 0.06004
3889.45070 0.05968
3888.16493 0.05949
3886.87916 0.05940
3885.59339 0.05932
3884.30763 0.05897
3883.02186 0.05813
3881.73609 0.05713
3880.45032 0.05670
3879.16455 0.05728
3877.87878 0.05849
3876.59301 0.05949
3875.30724 0.05973
3874.02148 0.05923
3872.73571 0.05840
3871.44994 0.05770
3870.16417 0.05746
3868.87840 0.05782
3867.59263 0.05861
3866.30686 0.05935
3865.02109 0.05958
3863.73532 0.05914
3862.44956 0.05841
3861.16379 0.05789
3859.87802 0.05778
3858.59225 0.05779
3857.30648 0.05747
3856.02071 0.05673
3854.73494 0.05579
3853.44917 0.05482
3852.16341 0.05391
3850.87764 0.05340
3849.59187 0.05364
3848.30610 0.05443
3847.02033 0.05498
3845.73456 0.05500
3844.44879 0.05509
3843.16302 0.05588
3841.87725 0.05695
3840.59149 0.05717
3839.30572 0.05619
3838.01995 0.05493
3836.73418 0.05462
3835.44841 0.05553
3834.16264 0.05675
3832.87687 0.05718
3831.59110 0.05660
3830.30534 0.05566
3829.01957 0.05508
3827.73380 0.05496
3826.44803 0.05491
3825.16226 0.05460
3823.87649 0.05421
3822.59072 0.05414
3821.30495 0.05444
3820.01918 0.05469
3818.73342 0.05456
3817.44765 0.05423
3816.16188 0.05408
3814.87611 0.05415
3813.59034 0.05424
3812.30457 0.05433
3811.01880 0.05458
3809.73303 0.05483
3808.44726 0.05461
3807.16150 0.05374
3805.87573 0.05282
3804.58996 0.05276
3803.30419 0.05398
3802.01842 0.05599
3800.73265 0.05777
3799.44688 0.05854
3798.16111 0.05812
3796.87535 0.05688
3795.58958 0.05538
3794.30381 0.05411
3793.01804 0.05340
3791.73227 0.05329
3790.44650 0.05354
3789.16073 0.05374
3787.87496 0.05349
3786.58919 0.05279
3785.30343 0.05198
3784.01766 0.05141
3782.73189 0.05116
3781.44612 0.05113
3780.16035 0.05142
3778.87458 0.05210
3777.58881 0.05294
3776.30304 0.05352
3775.01728 0.05378
3773.73151 0.05399
3772.44574 0.05424
3771.15997 0.05443
3769.87420 0.05453
3768.58843 0.05463
3767.30266 0.05451
3766.01689 0.05374
3764.73112 0.05228
3763.44536 0.05078
3762.15959 0.05010
3760.87382 0.05058
3759.58805 0.05175
3758.30228 0.05274
3757.01651 0.05291
3755.73074 0.05225
3754.44497 0.05124
3753.15921 0.05051
3751.87344 0.05045
3750.58767 0.05092
3749.30190 0.05136
3748.01613 0.05129
3746.73036 0.05088
3745.44459 0.05085
3744.15882 0.05173
3742.87305 0.05332
3741.58729 0.05470
3740.30152 0.05488
3739.01575 0.05362
3737.72998 0.05163
3736.44421 0.05004
3735.15844 0.04960
3733.87267 0.05025
3732.58690 0.05123
3731.30114 0.05166
3730.01537 0.05117
3728.72960 0.05009
3727.44383 0.04903
3726.15806 0.04837
3724.87229 0.04808
3723.58652 0.04800
3722.30075 0.04803
3721.01498 0.04825
3719.72922 0.04874
3718.44345 0.04944
3717.15768 0.05017
3715.87191 0.05078
3714.58614 0.05123
3713.30037 0.05144
3712.01460 0.05130
3710.72883 0.05065
3709.44307 0.04950
3708.15730 0.04819
3706.87153 0.04720
3705.58576 0.04682
3704.29999 0.04705
3703.01422 0.04786
3701.72845 0.04920
3700.44268 0.05062
3699.15691 0.05137
3697.87115 0.05118
3696.58538 0.05045
3695.29961 0.04967
3694.01384 0.04893
3692.72807 0.04826
3691.44230 0.04780
3690.15653 0.04784
3688.87076 0.04860
3687.58500 0.04997
3686.29923 0.05137
3685.01346 0.05221
3683.72769 0.05225
3682.44192 0.05182
3681.15615 0.05154
3679.87038 0.05171
3678.58461 0.05217
3677.29884 0.05266
3676.01308 0.05298
3674.72731 0.05309
3673.44154 0.05299
3672.15577 0.05287
3670.87000 0.05300
3669.58423 0.05338
3668.29846 0.05354
3667.01269 0.05307
3665.72693 0.05207
3664.44116 0.05117
3663.15539 0.05083
3661.86962 0.05101
3660.58385 0.05135
3659.29808 0.05173
3658.01231 0.05221
3656.72654 0.05274
3655.44077 0.05296
3654.15501 0.05244
3652.86924 0.05117
3651.58347 0.04965
3650.29770 0.04863
3649.01193 0.04869
3647.72616 0.04988
3646.44039 0.05158
3645.15462 0.05281
3643.86886 0.05298
3642.58309 0.05233
3641.29732 0.05176
3640.01155 0.05198
3638.72578 0.05287
3637.44001 0.05366
3636.15424 0.05376
3634.86847 0.05334
3633.58270 0.05305
3632.29694 0.05331
3631.01117 0.05391
3629.72540 0.05434
3628.43963 0.05444
3627.15386 0.05445
3625.86809 0.05469
3624.58232 0.05524
3623.29655 0.05586
3622.01079 0.05634
3620.72502 0.05661
3619.43925 0.05672
3618.15348 0.05671
3616.86771 0.05662
3615.58194 0.05655
3614.29617 0.05654
3613.01040 0.05662
3611.72463 0.05679
3610.43887 0.05715
3609.15310 0.05774
3607.86733 0.05838
3606.58156 0.05881
3605.29579 0.05894
3604.01002 0.05884
3602.72425 0.05868
3601.43848 0.05856
3600.15272 0.05846
3598.86695 0.05820
3597.58118 0.05771
3596.29541 0.05726
3595.00964 0.05724
3593.72387 0.05771
3592.43810 0.05844
3591.15233 0.05922
3589.86656 0.05990
3588.58080 0.06039
3587.29503 0.06065
3586.00926 0.06071
3584.72349 0.06073
3583.43772 0.06090
3582.15195 0.06120
3580.86618 0.06145
3579.58041 0.06161
3578.29464 0.06200
3577.00888 0.06291
3575.72311 0.06423
3574.43734 0.06523
3573.15157 0.06515
3571.86580 0.06410
3570.58003 0.06305
3569.29426 0.06298
3568.00849 0.06382
3566.72273 0.06465
3565.43696 0.06474
3564.15119 0.06418
3562.86542 0.06350
3561.57965 0.06309
3560.29388 0.06300
3559.00811 0.06317
3557.72234 0.06357
3556.43657 0.06423
3555.15081 0.06522
3553.86504 0.06645
3552.57927 0.06756
3551.29350 0.06807
3550.00773 0.06786
3548.72196 0.06741
3547.43619 0.06745
3546.15042 0.06833
3544.86466 0.06969
3543.57889 0.07079
3542.29312 0.07107
3541.00735 0.07061
3539.72158 0.06999
3538.43581 0.06987
3537.15004 0.07036
3535.86427 0.07102
3534.57850 0.07145
3533.29274 0.07180
3532.00697 0.07244
3530.72120 0.07339
3529.43543 0.07418
3528.14966 0.07430
3526.86389 0.07376
3525.57812 0.07296
3524.29235 0.07235
3523.00659 0.07217
3521.72082 0.07236
3520.43505 0.07263
3519.14928 0.07268
3517.86351 0.07253
3516.57774 0.07252
3515.29197 0.07290
3514.00620 0.07354
3512.72043 0.07422
3511.43467 0.07490
3510.14890 0.07561
3508.86313 0.07615
3507.57736 0.07614
3506.29159 0.07548
3505.00582 0.07459
3503.72005 0.07416
3502.43428 0.07454
3501.14852 0.07556
3499.86275 0.07678
3498.57698 0.07787
3497.29121 0.07871
3496.00544 0.07929
3494.71967 0.07956
3493.43390 0.07947
3492.14813 0.07906
3490.86236 0.07835
3489.57660 0.07742
3488.29083 0.07643
3487.00506 0.07574
3485.71929 0.07569
3484.43352 0.07629
3483.14775 0.07719
3481.86198 0.07795
3480.57621 0.07842
3479.29045 0.07872
3478.00468 0.07911
3476.71891 0.07970
3475.43314 0.08033
3474.14737 0.08065
3472.86160 0.08048
3471.57583 0.07998
3470.29006 0.07945
3469.00429 0.07919
3467.71853 0.07935
3466.43276 0.07989
3465.14699 0.08055
3463.86122 0.08099
3462.57545 0.08110
3461.28968 0.08098
3460.00391 0.08069
3458.71814 0.08028
3457.43238 0.07987
3456.14661 0.07963
3454.86084 0.07958
3453.57507 0.07962
3452.28930 0.07977
3451.00353 0.08013
3449.71776 0.08067
3448.43199 0.08120
3447.14622 0.08162
3445.86046 0.08204
3444.57469 0.08254
3443.28892 0.08298
3442.00315 0.08318
3440.71738 0.08317
3439.43161 0.08322
3438.14584 0.08360
3436.86007 0.08442
3435.57431 0.08561
3434.28854 0.08682
3433.00277 0.08754
3431.71700 0.08740
3430.43123 0.08659
3429.14546 0.08568
3427.85969 0.08523
3426.57392 0.08542
3425.28815 0.08613
3424.00239 0.08706
3422.71662 0.08777
3421.43085 0.08784
3420.14508 0.08714
3418.85931 0.08595
3417.57354 0.08478
3416.28777 0.08405
3415.00200 0.08394
3413.71624 0.08444
3412.43047 0.08541
3411.14470 0.08664
3409.85893 0.08785
3408.57316 0.08870
3407.28739 0.08901
3406.00162 0.08885
3404.71585 0.08851
3403.43008 0.08821
3402.14432 0.08786
3400.85855 0.08732
3399.57278 0.08662
3398.28701 0.08598
3397.00124 0.08582
3395.71547 0.08624
3394.42970 0.08708
3393.14393 0.08822
3391.85817 0.08955
3390.57240 0.09080
3389.28663 0.09154
3388.00086 0.09154
3386.71509 0.09105
3385.42932 0.09073
3384.14355 0.09097
3382.85778 0.09161
3381.57201 0.09218
3380.28625 0.09245
3379.00048 0.09248
3377.71471 0.09239
3376.42894 0.09221
3375.14317 0.09204
3373.85740 0.09206
3372.57163 0.09236
3371.28586 0.09282
3370.00010 0.09314
3368.71433 0.09313
3367.42856 0.09280
3366.14279 0.09235
3364.85702 0.09198
3363.57125 0.09188
3362.28548 0.09212
3360.99971 0.09267
3359.71394 0.09332
3358.42818 0.09377
3357.14241 0.09382
3355.85664 0.09352
3354.57087 0.09306
3353.28510 0.09256
3351.99933 0.09214
3350.71356 0.09188
3349.42779 0.09177
3348.14202 0.09171
3346.85626 0.09169
3345.57049 0.09193
3344.28472 0.09267
3342.99895 0.09376
3341.71318 0.09461
3340.42741 0.09459
3339.14164 0.09363
3337.85587 0.09229
3336.57011 0.09136
3335.28434 0.09125
3333.99857 0.09192
3332.71280 0.09304
3331.42703 0.09419
3330.14126 0.09485
3328.85549 0.09473
3327.56972 0.09397
3326.28395 0.09307
3324.99819 0.09247
3323.71242 0.09237
3322.42665 0.09281
3321.14088 0.09367
3319.85511 0.09456
3318.56934 0.09501
3317.28357 0.09473
3315.99780 0.09392
3314.71204 0.09313
3313.42627 0.09285
3312.14050 0.09317
3310.85473 0.09371
3309.56896 0.09406
3308.28319 0.09417
3306.99742 0.09437
3305.71165 0.09490
3304.42588 0.09550
3303.14012 0.09563
3301.85435 0.09506
3300.56858 0.09418
3299.28281 0.09370
3297.99704 0.09394
3296.71127 0.09454
3295.42550 0.09483
3294.13973 0.09446
3292.85397 0.09370
3291.56820 0.09317
3290.28243 0.09319
3288.99666 0.09345
3287.71089 0.09346
3286.42512 0.09308
3285.13935 0.09268
3283.85358 0.09259
3282.56781 0.09274
3281.28205 0.09291
3279.99628 0.09297
3278.71051 0.09292
3277.42474 0.09274
3276.13897 0.09245
3274.85320 0.09217
3273.56743 0.09211
3272.28166 0.09232
3270.99590 0.09262
3269.71013 0.09273
3268.42436 0.09248
3267.13859 0.09201
3265.85282 0.09165
3264.56705 0.09172
3263.28128 0.09223
3261.99551 0.09279
3260.70974 0.09285
3259.42398 0.09225
3258.13821 0.09139
3256.85244 0.09084
3255.56667 0.09077
3254.28090 0.09089
3252.99513 0.09085
3251.70936 0.09061
3250.42359 0.09037
3249.13783 0.09039
3247.85206 0.09076
3246.56629 0.09144
3245.28052 0.09217
3243.99475 0.09259
3242.70898 0.09247
3241.42321 0.09193
3240.13744 0.09139
3238.85167 0.09116
3237.56591 0.09110
3236.28014 0.09083
3234.99437 0.09018
3233.70860 0.08936
3232.42283 0.08865
3231.13706 0.08811
3229.85129 0.08775
3228.56552 0.08762
3227.27976 0.08764
3225.99399 0.08754
3224.70822 0.08707
3223.42245 0.08622
3222.13668 0.08539
3220.85091 0.08499
3219.56514 0.08517
3218.27937 0.08579
3216.99360 0.08661
3215.70784 0.08746
3214.42207 0.08814
3213.13630 0.08852
3211.85053 0.08857
3210.56476 0.08838
3209.27899 0.08803
3207.99322 0.08749
3206.70745 0.08681
3205.42169 0.08621
3204.13592 0.08594
3202.85015 0.08598
3201.56438 0.08606
3200.27861 0.08599
3198.99284 0.08584
3197.70707 0.08579
3196.42130 0.08588
3195.13553 0.08605
3193.84977 0.08623
3192.56400 0.08640
3191.27823 0.08646
3189.99246 0.08619
3188.70669 0.08552
3187.42092 0.08468
3186.13515 0.08404
3184.84938 0.08377
3183.56362 0.08375
3182.27785 0.08375
3180.99208 0.08363
3179.70631 0.08339
3178.42054 0.08311
3177.13477 0.08291
3175.84900 0.08284
3174.56323 0.08276
3173.27746 0.08246
3171.99170 0.08197
3170.70593 0.08167
3169.42016 0.08192
3168.13439 0.08257
3166.84862 0.08311
3165.56285 0.08313
3164.27708 0.08267
3162.99131 0.08193
3161.70555 0.08109
3160.41978 0.08031
3159.13401 0.07980
3157.84824 0.07972
3156.56247 0.08000
3155.27670 0.08042
3153.99093 0.08075
3152.70516 0.08095
3151.41939 0.08105
3150.13363 0.08101
3148.84786 0.08076
3147.56209 0.08032
3146.27632 0.07986
3144.99055 0.07943
3143.70478 0.07901
3142.41901 0.07869
3141.13324 0.07863
3139.84748 0.07883
3138.56171 0.07904
3137.27594 0.07900
3135.99017 0.07871
3134.70440 0.07830
3133.41863 0.07784
3132.13286 0.07728
3130.84709 0.07665
3129.56132 0.07611
3128.27556 0.07587
3126.98979 0.07597
3125.70402 0.07618
3124.41825 0.07622
3123.13248 0.07603
3121.84671 0.07585
3120.56094 0.07589
3119.27517 0.07609
3117.98940 0.07621
3116.70364 0.07615
3115.41787 0.07602
3114.13210 0.07601
3112.84633 0.07605
3111.56056 0.07598
3110.27479 0.07578
3108.98902 0.07558
3107.70325 0.07546
3106.41749 0.07531
3105.13172 0.07498
3103.84595 0.07454
3102.56018 0.07422
3101.27441 0.07426
3099.98864 0.07461
3098.70287 0.07498
3097.41710 0.07505
3096.13133 0.07481
3094.84557 0.07453
3093.55980 0.07445
3092.27403 0.07454
3090.98826 0.07459
3089.70249 0.07443
3088.41672 0.07408
3087.13095 0.07371
3085.84518 0.07345
3084.55942 0.07330
3083.27365 0.07326
3081.98788 0.07329
3080.70211 0.07336
3079.41634 0.07339
3078.13057 0.07331
3076.84480 0.07314
3075.55903 0.07297
3074.27326 0.07295
3072.98750 0.07315
3071.70173 0.07343
3070.41596 0.07361
3069.13019 0.07362
3067.84442 0.07356
3066.55865 0.07354
3065.27288 0.07346
3063.98711 0.07320
3062.70135 0.07277
3061.41558 0.07238
3060.12981 0.07213
3058.84404 0.07198
3057.55827 0.07174
3056.27250 0.07134
3054.98673 0.07095
3053.70096 0.07080
3052.41519 0.07098
3051.12943 0.07132
3049.84366 0.07158
3048.55789 0.07161
3047.27212 0.07145
3045.98635 0.07121
3044.70058 0.07097
3043.41481 0.07076
3042.12904 0.07052
3040.84328 0.07017
3039.55751 0.06974
3038.27174 0.06944
3036.98597 0.06944
3035.70020 0.06961
3034.41443 0.06966
3033.12866 0.06936
3031.84289 0.06879
3030.55712 0.06824
3029.27136 0.06805
3027.98559 0.06836
3026.69982 0.06890
3025.41405 0.06919
3024.12828 0.06894
3022.84251 0.06832
3021.55674 0.06775
3020.27097 0.06744
3018.98521 0.06726
3017.69944 0.06699
3016.41367 0.06665
3015.12790 0.06640
3013.84213 0.06636
3012.55636 0.06651
3011.27059 0.06670
3009.98482 0.06687
3008.69905 0.06706
3007.41329 0.06726
3006.12752 0.06738
3004.84175 0.06724
3003.55598 0.06683
3002.27021 0.06633
3000.98444 0.06600
2999.69867 0.06589
2998.41290 0.06596
2997.12714 0.06595
2995.84137 0.06566
2994.55560 0.06506
2993.26983 0.06444
2991.98406 0.06412
2990.69829 0.06424
2989.41252 0.06472
2988.12675 0.06535
2986.84098 0.06595
2985.55522 0.06640
2984.26945 0.06672
2982.98368 0.06701
2981.69791 0.06738
2980.41214 0.06779
2979.12637 0.06810
2977.84060 0.06823
2976.55483 0.06830
2975.26907 0.06855
2973.98330 0.06912
2972.69753 0.06985
2971.41176 0.07046
2970.12599 0.07086
2968.84022 0.07123
2967.55445 0.07178
2966.26868 0.07247
2964.98291 0.07308
2963.69715 0.07348
2962.41138 0.07381
2961.12561 0.07422
2959.83984 0.07475
2958.55407 0.07533
2957.26830 0.07603
2955.98253 0.07694
2954.69676 0.07799
2953.41100 0.07899
2952.12523 0.07982
2950.83946 0.08048
2949.55369 0.08095
2948.26792 0.08112
2946.98215 0.08089
2945.69638 0.08042
2944.41061 0.08008
2943.12484 0.08018
2941.83908 0.08063
2940.55331 0.08102
2939.26754 0.08102
2937.98177 0.08070
2936.69600 0.08027
2935.41023 0.07981
2934.12446 0.07930
2932.83869 0.07884
2931.55293 0.07859
2930.26716 0.07854
2928.98139 0.07840
2927.69562 0.07772
2926.40985 0.07619
2925.12408 0.07372
2923.83831 0.07040
2922.55254 0.06635
2921.26677 0.06182
2919.98101 0.05724
2918.69524 0.05335
2917.40947 0.05099
2916.12370 0.05083
2914.83793 0.05291
2913.55216 0.05654
2912.26639 0.06062
2910.98062 0.06433
2909.69486 0.06727
2908.40909 0.06937
2907.12332 0.07067
2905.83755 0.07146
2904.55178 0.07202
2903.26601 0.07246
2901.98024 0.07258
2900.69447 0.07228
2899.40870 0.07178
2898.12294 0.07154
2896.83717 0.07173
2895.55140 0.07207
2894.26563 0.07218
2892.97986 0.07193
2891.69409 0.07154
2890.40832 0.07122
2889.12255 0.07103
2887.83678 0.07090
2886.55102 0.07078
2885.26525 0.07062
2883.97948 0.07037
2882.69371 0.07005
2881.40794 0.06983
2880.12217 0.06987
2878.83640 0.07017
2877.55063 0.07056
2876.26487 0.07092
2874.97910 0.07127
2873.69333 0.07166
2872.40756 0.07211
2871.12179 0.07255
2869.83602 0.07291
2868.55025 0.07310
2867.26448 0.07301
2865.97871 0.07258
2864.69295 0.07176
2863.40718 0.07069
2862.12141 0.06960
2860.83564 0.06871
2859.54987 0.06807
2858.26410 0.06748
2856.97833 0.06654
2855.69256 0.06479
2854.40680 0.06191
2853.12103 0.05797
2851.83526 0.05357
2850.54949 0.04992
2849.26372 0.04833
2847.97795 0.04946
2846.69218 0.05279
2845.40641 0.05694
2844.12064 0.06050
2842.83488 0.06275
2841.54911 0.06370
2840.26334 0.06377
2838.97757 0.06346
2837.69180 0.06311
2836.40603 0.06290
2835.12026 0.06286
2833.83449 0.06285
2832.54873 0.06267
2831.26296 0.06230
2829.97719 0.06183
2828.69142 0.06139
2827.40565 0.06100
2826.11988 0.06062
2824.83411 0.06025
2823.54834 0.05987
2822.26257 0.05948
2820.97681 0.05914
2819.69104 0.05890
2818.40527 0.05877
2817.11950 0.05869
2815.83373 0.05858
2814.54796 0.05840
2813.26219 0.05819
2811.97642 0.05796
2810.69066 0.05769
2809.40489 0.05733
2808.11912 0.05689
2806.83335 0.05656
2805.54758 0.05654
2804.26181 0.05676
2802.97604 0.05700
2801.69027 0.05708
2800.40450 0.05701
2799.11874 0.05690
2797.83297 0.05679
2796.54720 0.05665
2795.26143 0.05650
2793.97566 0.05631
2792.68989 0.05603
2791.40412 0.05566
2790.11835 0.05527
2788.83259 0.05495
2787.54682 0.05470
2786.26105 0.05450
2784.97528 0.05442
2783.68951 0.05454
2782.40374 0.05482
2781.11797 0.05510
2779.83220 0.05528
2778.54643 0.05536
2777.26067 0.05540
2775.97490 0.05534
2774.68913 0.05502
2773.40336 0.05437
2772.11759 0.05361
2770.83182 0.05304
2769.54605 0.05284
2768.26028 0.05287
2766.97452 0.05293
2765.68875 0.05296
2764.40298 0.05310
2763.11721 0.05339
2761.83144 0.05370
2760.54567 0.05381
2759.25990 0.05359
2757.97413 0.05316
2756.68836 0.05276
2755.40260 0.05258
2754.11683 0.05260
2752.83106 0.05262
2751.54529 0.05248
2750.25952 0.05219
2748.97375 0.05190
2747.68798 0.05170
2746.40221 0.05159
2745.11645 0.05151
2743.83068 0.05148
2742.54491 0.05159
2741.25914 0.05181
2739.97337 0.05206
2738.68760 0.05216
2737.40183 0.05201
2736.11606 0.05168
2734.83029 0.05132
2733.54453 0.05110
2732.25876 0.05100
2730.97299 0.05094
2729.68722 0.05088
2728.40145 0.05090
2727.11568 0.05099
2725.82991 0.05106
2724.54414 0.05098
2723.25838 0.05081
2721.97261 0.05071
2720.68684 0.05078
2719.40107 0.05096
2718.11530 0.05112
2716.82953 0.05115
2715.54376 0.05104
2714.25799 0.05079
2712.97222 0.05048
2711.68646 0.05020
2710.40069 0.05008
2709.11492 0.05010
2707.82915 0.05013
2706.54338 0.05003
2705.25761 0.04978
2703.97184 0.04946
2702.68607 0.04919
2701.40031 0.04904
2700.11454 0.04904
2698.82877 0.04918
2697.54300 0.04936
2696.25723 0.04949
2694.97146 0.04959
2693.68569 0.04974
2692.39992 0.04992
2691.11415 0.05002
2689.82839 0.04992
2688.54262 0.04966
2687.25685 0.04941
2685.97108 0.04931
2684.68531 0.04933
2683.39954 0.04927
2682.11377 0.04903
2680.82800 0.04867
2679.54224 0.04831
2678.25647 0.04803
2676.97070 0.04784
2675.68493 0.04767
2674.39916 0.04750
2673.11339 0.04735
2671.82762 0.04729
2670.54185 0.04733
2669.25608 0.04742
2667.97032 0.04750
2666.68455 0.04757
2665.39878 0.04763
2664.11301 0.04768
2662.82724 0.04773
2661.54147 0.04779
2660.25570 0.04784
2658.96993 0.04778
2657.68417 0.04753
2656.39840 0.04714
2655.11263 0.04675
2653.82686 0.04640
2652.54109 0.04604
2651.25532 0.04561
2649.96955 0.04520
2648.68378 0.04495
2647.39801 0.04489
2646.11225 0.04496
2644.82648 0.04502
2643.54071 0.04495
2642.25494 0.04472
2640.96917 0.04446
2639.68340 0.04429
2638.39763 0.04421
2637.11186 0.04406
2635.82609 0.04377
2634.54033 0.04343
2633.25456 0.04306
2631.96879 0.04268
2630.68302 0.04234
2629.39725 0.04215
2628.11148 0.04215
2626.82571 0.04224
2625.53994 0.04233
2624.25418 0.04240
2622.96841 0.04244
2621.68264 0.04237
2620.39687 0.04221
2619.11110 0.04205
2617.82533 0.04190
2616.53956 0.04165
2615.25379 0.04127
2613.96802 0.04086
2612.68226 0.04057
2611.39649 0.04038
2610.11072 0.04025
2608.82495 0.04013
2607.53918 0.04007
2606.25341 0.04010
2604.96764 0.04020
2603.68187 0.04027
2602.39611 0.04020
2601.11034 0.03987
2599.82457 0.03932
2598.53880 0.03876
2597.25303 0.03848
2595.96726 0.03859
2594.68149 0.03896
2593.39572 0.03941
2592.10995 0.03987
2590.82419 0.04032
2589.53842 0.04057
2588.25265 0.04034
2586.96688 0.03965
2585.68111 0.03895
2584.39534 0.03862
2583.10957 0.03863
2581.82380 0.03860
2580.53804 0.03831
2579.25227 0.03784
2577.96650 0.03749
2576.68073 0.03741
2575.39496 0.03759
2574.10919 0.03785
2572.82342 0.03807
2571.53765 0.03821
2570.25188 0.03829
2568.96612 0.03838
2567.68035 0.03855
2566.39458 0.03882
2565.10881 0.03901
2563.82304 0.03891
2562.53727 0.03852
2561.25150 0.03815
2559.96573 0.03810
2558.67997 0.03833
2557.39420 0.03859
2556.10843 0.03868
2554.82266 0.03862
2553.53689 0.03849
2552.25112 0.03840
2550.96535 0.03843
2549.67958 0.03858
2548.39381 0.03872
2547.10805 0.03865
2545.82228 0.03829
2544.53651 0.03776
2543.25074 0.03724
2541.96497 0.03691
2540.67920 0.03685
2539.39343 0.03695
2538.10766 0.03702
2536.82190 0.03689
2535.53613 0.03662
2534.25036 0.03647
2532.96459 0.03661
2531.67882 0.03699
2530.39305 0.03741
2529.10728 0.03765
2527.82151 0.03754
2526.53574 0.03705
2525.24998 0.03639
2523.96421 0.03590
2522.67844 0.03577
2521.39267 0.03596
2520.10690 0.03620
2518.82113 0.03624
2517.53536 0.03597
2516.24959 0.03546
2514.96383 0.03487
2513.67806 0.03436
2512.39229 0.03406
2511.10652 0.03413
2509.82075 0.03469
2508.53498 0.03562
2507.24921 0.03651
2505.96344 0.03690
2504.67767 0.03673
2503.39191 0.03644
2502.10614 0.03645
2500.82037 0.03678
2499.53460 0.03714
2498.24883 0.03729
2496.96306 0.03719
2495.67729 0.03683
2494.39152 0.03623
2493.10576 0.03561
2491.81999 0.03524
2490.53422 0.03518
2489.24845 0.03526
2487.96268 0.03528
2486.67691 0.03526
2485.39114 0.03523
2484.10537 0.03515
2482.81960 0.03493
2481.53384 0.03473
2480.24807 0.03483
2478.96230 0.03532
2477.67653 0.03588
2476.39076 0.03610
2475.10499 0.03590
2473.81922 0.03557
2472.53345 0.03542
2471.24769 0.03548
2469.96192 0.03562
2468.67615 0.03574
2467.39038 0.03580
2466.10461 0.03578
2464.81884 0.03567
2463.53307 0.03550
2462.24730 0.03520
2460.96153 0.03465
2459.67577 0.03391
2458.39000 0.03326
2457.10423 0.03299
2455.81846 0.03313
2454.53269 0.03353
2453.24692 0.03401
2451.96115 0.03442
2450.67538 0.03461
2449.38962 0.03450
2448.10385 0.03416
2446.81808 0.03374
2445.53231 0.03335
2444.24654 0.03310
2442.96077 0.03303
2441.67500 0.03312
2440.38923 0.03322
2439.10346 0.03320
2437.81770 0.03317
2436.53193 0.03333
2435.24616 0.03367
2433.96039 0.03396
2432.67462 0.03401
2431.38885 0.03384
2430.10308 0.03361
2428.81731 0.03343
2427.53155 0.03331
2426.24578 0.03325
2424.96001 0.03330
2423.67424 0.03344
2422.38847 0.03364
2421.10270 0.03385
2419.81693 0.03404
2418.53116 0.03417
2417.24539 0.03417
2415.95963 0.03403
2414.67386 0.03392
2413.38809 0.03400
2412.10232 0.03418
2410.81655 0.03431
2409.53078 0.03431
2408.24501 0.03425
2406.95924 0.03416
2405.67347 0.03397
2404.38771 0.03365
2403.10194 0.03325
2401.81617 0.03282
2400.53040 0.03240
2399.24463 0.03213
2397.95886 0.03185
2396.67309 0.03177
2395.38732 0.03195
2394.10156 0.03235
2392.81579 0.03290
2391.53002 0.03344
2390.24425 0.03374
2388.95848 0.03370
2387.67271 0.03344
2386.38694 0.03314
2385.10117 0.03298
2383.81540 0.03302
2382.52964 0.03317
2381.24387 0.03329
2379.95810 0.03326
2378.67233 0.03312
2377.38656 0.03301
2376.10079 0.03306
2374.81502 0.03321
2373.52925 0.03343
2372.24349 0.03367
2370.95772 0.03388
2369.67195 0.03386
2368.38618 0.03363
2367.10041 0.03335
2365.81464 0.03328
2364.52887 0.03328
2363.24310 0.03335
2361.95733 0.03358
2360.67157 0.03409
2359.38580 0.03449
2358.10003 0.03464
2356.81426 0.03457
2355.52849 0.03439
2354.24272 0.03417
2352.95695 0.03395
2351.67118 0.03396
2350.38542 0.03412
2349.09965 0.03408
2347.81388 0.03382
2346.52811 0.03387
2345.24234 0.03407
2343.95657 0.03376
2342.67080 0.03303
2341.38503 0.03308
2340.09926 0.03389
2338.81350 0.03381
2337.52773 0.03279
2336.24196 0.03297
2334.95619 0.03405
2333.67042 0.03384
2332.38465 0.03285
2331.09888 0.03346
2329.81311 0.03418
2328.52735 0.03335
2327.24158 0.03353
2325.95581 0.03425
2324.67004 0.03355
2323.38427 0.03322
2322.09850 0.03367
2320.81273 0.03313
2319.52696 0.03291
2318.24119 0.03284
2316.95543 0.03193
2315.66966 0.03147
2314.38389 0.03144
2313.09812 0.03125
2311.81235 0.03141
2310.52658 0.03141
2309.24081 0.03132
2307.95504 0.03133
2306.66928 0.03112
2305.38351 0.03099
2304.09774 0.03085
2302.81197 0.03060
2301.52620 0.03041
2300.24043 0.03029
2298.95466 0.03037
2297.66889 0.03048
2296.38312 0.03033
2295.09736 0.02985
2293.81159 0.02917
2292.52582 0.02864
2291.24005 0.02842
2289.95428 0.02851
2288.66851 0.02875
2287.38274 0.02884
2286.09697 0.02853
2284.81121 0.02780
2283.52544 0.02701
2282.23967 0.02665
2280.95390 0.02694
2279.66813 0.02764
2278.38236 0.02819
2277.09659 0.02817
2275.81082 0.02759
2274.52505 0.02688
2273.23929 0.02650
2271.95352 0.02662
2270.66775 0.02708
2269.38198 0.02762
2268.09621 0.02807
2266.81044 0.02828
2265.52467 0.02811
2264.23890 0.02753
2262.95314 0.02676
2261.66737 0.02611
2260.38160 0.02567
2259.09583 0.02525
2257.81006 0.02465
2256.52429 0.02395
2255.23852 0.02348
2253.95275 0.02344
2252.66698 0.02354
2251.38122 0.02325
2250.09545 0.02260
2248.80968 0.02234
2247.52391 0.02270
2246.23814 0.02386
2244.95237 0.02503
2243.66660 0.02538
2242.38083 0.02483
2241.09507 0.02402
2239.80930 0.02355
2238.52353 0.02356
2237.23776 0.02391
2235.95199 0.02443
2234.66622 0.02486
2233.38045 0.02482
2232.09468 0.02404
2230.80891 0.02271
2229.52315 0.02148
2228.23738 0.02106
2226.95161 0.02168
2225.66584 0.02287
2224.38007 0.02388
2223.09430 0.02429
2221.80853 0.02421
2220.52276 0.02392
2219.23700 0.02357
2217.95123 0.02315
2216.66546 0.02266
2215.37969 0.02212
2214.09392 0.02149
2212.80815 0.02066
2211.52238 0.01956
2210.23661 0.01846
2208.95084 0.01800
2207.66508 0.01864
2206.37931 0.01999
2205.09354 0.02091
2203.80777 0.02056
2202.52200 0.01921
2201.23623 0.01787
2199.95046 0.01728
2198.66469 0.01748
2197.37893 0.01804
2196.09316 0.01847
2194.80739 0.01848
2193.52162 0.01811
2192.23585 0.01761
2190.95008 0.01718
2189.66431 0.01680
2188.37854 0.01645
2187.09277 0.01616
2185.80701 0.01600
2184.52124 0.01610
2183.23547 0.01657
2181.94970 0.01719
2180.66393 0.01751
2179.37816 0.01724
2178.09239 0.01650
2176.80662 0.01548
2175.52085 0.01425
2174.23509 0.01276
2172.94932 0.01100
2171.66355 0.00923
2170.37778 0.00808
2169.09201 0.00816
2167.80624 0.00924
2166.52047 0.01036
2165.23470 0.01091
2163.94894 0.01131
2162.66317 0.01207
2161.37740 0.01280
2160.09163 0.01275
2158.80586 0.01195
2157.52009 0.01117
2156.23432 0.01081
2154.94855 0.01073
2153.66278 0.01102
2152.37702 0.01216
2151.09125 0.01418
2149.80548 0.01614
2148.51971 0.01698
2147.23394 0.01660
2145.94817 0.01586
2144.66240 0.01558
2143.37663 0.01583
2142.09087 0.01627
2140.80510 0.01659
2139.51933 0.01657
2138.23356 0.01614
2136.94779 0.01555
2135.66202 0.01530
2134.37625 0.01572
2133.09048 0.01661
2131.80471 0.01738
2130.51895 0.01762
2129.23318 0.01743
2127.94741 0.01733
2126.66164 0.01770
2125.37587 0.01847
2124.09010 0.01921
2122.80433 0.01955
2121.51856 0.01945
2120.23280 0.01924
2118.94703 0.01933
2117.66126 0.01984
2116.37549 0.02043
2115.08972 0.02064
2113.80395 0.02036
2112.51818 0.01983
2111.23241 0.01933
2109.94664 0.01885
2108.66088 0.01836
2107.37511 0.01793
2106.08934 0.01771
2104.80357 0.01767
2103.51780 0.01767
2102.23203 0.01766
2100.94626 0.01760
2099.66049 0.01606
2098.37473 0.01543
2097.08896 0.01572
2095.80319 0.01638
2094.51742 0.01712
2093.23165 0.01756
2091.94588 0.01750
2090.66011 0.01712
2089.37434 0.01678
2088.08857 0.01672
2086.80281 0.01692
2085.51704 0.01718
2084.23127 0.01729
2082.94550 0.01709
2081.65973 0.01655
2080.37396 0.01583
2079.08819 0.01512
2077.80242 0.01448
2076.51666 0.01390
2075.23089 0.01346
2073.94512 0.01333
2072.65935 0.01355
2071.37358 0.01391
2070.08781 0.01400
2068.80204 0.01356
2067.51627 0.01274
2066.23050 0.01205
2064.94474 0.01195
2063.65897 0.01232
2062.37320 0.01258
2061.08743 0.01227
2059.80166 0.01159
2058.51589 0.01110
2057.23012 0.01107
2055.94435 0.01132
2054.65859 0.01157
2053.37282 0.01167
2052.08705 0.01156
2050.80128 0.01130
2049.51551 0.01100
2048.22974 0.01077
2046.94397 0.01053
2045.65820 0.01005
2044.37243 0.00919
2043.08667 0.00803
2041.80090 0.00677
2040.51513 0.00555
2039.22936 0.00435
2037.94359 0.00324
2036.65782 0.00249
2035.37205 0.00244
2034.08628 0.00322
2032.80052 0.00469
2031.51475 0.00655
2030.22898 0.00845
2028.94321 0.00997
2027.65744 0.01083
2026.37167 0.01110
2025.08590 0.01101
2023.80013 0.01059
2022.51436 0.00977
2021.22860 0.00867
2019.94283 0.00762
2018.65706 0.00683
2017.37129 0.00626
2016.08552 0.00583
2014.79975 0.00547
2013.51398 0.00512
2012.22821 0.00471
2010.94245 0.00436
2009.65668 0.00424
2008.37091 0.00437
2007.08514 0.00485
2005.79937 0.00590
2004.51360 0.00757
2003.22783 0.00936
2001.94206 0.01061
2000.65629 0.01112
1999.37053 0.01132
1998.08476 0.01170
1996.79899 0.01227
1995.51322 0.01273
1994.22745 0.01282
1992.94168 0.01256
1991.65591 0.01210
1990.37014 0.01151
1989.08438 0.01083
1987.79861 0.01027
1986.51284 0.01009
1985.22707 0.01034
1983.94130 0.01072
1982.65553 0.01082
1981.36976 0.01045
1980.08399 0.00969
1978.79822 0.00865
1977.51246 0.00747
1976.22669 0.00649
1974.94092 0.00627
1973.65515 0.00713
1972.36938 0.00886
1971.08361 0.01083
1969.79784 0.01255
1968.51207 0.01380
1967.22631 0.01449
1965.94054 0.01452
1964.65477 0.01393
1963.36900 0.01307
1962.08323 0.01244
1960.79746 0.01229
1959.51169 0.01251
1958.22592 0.01288
1956.94015 0.01327
1955.65439 0.01367
1954.36862 0.01404
1953.08285 0.01435
1951.79708 0.01460
1950.51131 0.01472
1949.22554 0.01459
1947.93977 0.01420
1946.65400 0.01391
1945.36823 0.01419
1944.08247 0.01512
1942.79670 0.01616
1941.51093 0.01659
1940.22516 0.01607
1938.93939 0.01492
1937.65362 0.01378
1936.36785 0.01317
1935.08208 0.01321
1933.79632 0.01371
1932.51055 0.01431
1931.22478 0.01479
1929.93901 0.01509
1928.65324 0.01533
1927.36747 0.01558
1926.08170 0.01590
1924.79593 0.01629
1923.51016 0.01660
1922.22440 0.01665
1920.93863 0.01640
1919.65286 0.01600
1918.36709 0.01563
1917.08132 0.01541
1915.79555 0.01543
1914.50978 0.01577
1913.22401 0.01630
1911.93825 0.01677
1910.65248 0.01697
1909.36671 0.01693
1908.08094 0.01686
1906.79517 0.01681
1905.50940 0.01674
1904.22363 0.01665
1902.93786 0.01666
1901.65209 0.01685
1900.36633 0.01711
1899.08056 0.01721
1897.79479 0.01705
1896.50902 0.01671
1895.22325 0.01638
1893.93748 0.01624
1892.65171 0.01635
1891.36594 0.01662
1890.08018 0.01682
1888.79441 0.01681
1887.50864 0.01667
1886.22287 0.01658
1884.93710 0.01666
1883.65133 0.01682
1882.36556 0.01695
1881.07979 0.01695
1879.79402 0.01680
1878.50826 0.01657
1877.22249 0.01641
1875.93672 0.01639
1874.65095 0.01651
1873.36518 0.01665
1872.07941 0.01672
1870.79364 0.01674
1869.50787 0.01677
1868.22211 0.01687
1866.93634 0.01702
1865.65057 0.01721
1864.36480 0.01744
1863.07903 0.01766
1861.79326 0.01781
1860.50749 0.01787
1859.22172 0.01789
1857.93595 0.01793
1856.65019 0.01799
1855.36442 0.01803
1854.07865 0.01803
1852.79288 0.01802
1851.50711 0.01798
1850.22134 0.01787
1848.93557 0.01765
1847.64980 0.01737
1846.36404 0.01714
1845.07827 0.01702
1843.79250 0.01699
1842.50673 0.01699
1841.22096 0.01707
1839.93519 0.01728
1838.64942 0.01754
1837.36365 0.01769
1836.07788 0.01759
1834.79212 0.01730
1833.50635 0.01699
1832.22058 0.01681
1830.93481 0.01678
1829.64904 0.01690
1828.36327 0.01708
1827.07750 0.01724
1825.79173 0.01730
1824.50597 0.01719
1823.22020 0.01695
1821.93443 0.01668
1820.64866 0.01651
1819.36289 0.01657
1818.07712 0.01690
1816.79135 0.01745
1815.50558 0.01804
1814.21981 0.01850
1812.93405 0.01874
1811.64828 0.01878
1810.36251 0.01872
1809.07674 0.01863
1807.79097 0.01854
1806.50520 0.01845
1805.21943 0.01835
1803.93366 0.01826
1802.64790 0.01824
1801.36213 0.01829
1800.07636 0.01834
1798.79059 0.01834
1797.50482 0.01825
1796.21905 0.01809
1794.93328 0.01793
1793.64751 0.01784
1792.36174 0.01788
1791.07598 0.01804
1789.79021 0.01820
1788.50444 0.01826
1787.21867 0.01817
1785.93290 0.01801
1784.64713 0.01791
1783.36136 0.01793
1782.07559 0.01802
1780.78983 0.01813
1779.50406 0.01820
1778.21829 0.01822
1776.93252 0.01820
1775.64675 0.01819
1774.36098 0.01824
1773.07521 0.01835
1771.78944 0.01850
1770.50367 0.01865
1769.21791 0.01879
1767.93214 0.01895
1766.64637 0.01908
1765.36060 0.01912
1764.07483 0.01907
1762.78906 0.01898
1761.50329 0.01891
1760.21752 0.01883
1758.93176 0.01873
1757.64599 0.01864
1756.36022 0.01859
1755.07445 0.01856
1753.78868 0.01851
1752.50291 0.01842
1751.21714 0.01835
1749.93137 0.01837
1748.64560 0.01849
1747.35984 0.01865
1746.07407 0.01881
1744.78830 0.01890
1743.50253 0.01894
1742.21676 0.01895
1740.93099 0.01895
1739.64522 0.01896
1738.35945 0.01897
1737.07369 0.01897
1735.78792 0.01899
1734.50215 0.01909
1733.21638 0.01928
1731.93061 0.01950
1730.64484 0.01971
1729.35907 0.01988
1728.07330 0.02002
1726.78753 0.02014
1725.50177 0.02027
1724.21600 0.02041
1722.93023 0.02057
1721.64446 0.02070
1720.35869 0.02077
1719.07292 0.02081
1717.78715 0.02096
1716.50138 0.02129
1715.21561 0.02179
1713.92985 0.02236
1712.64408 0.02293
1711.35831 0.02351
1710.07254 0.02411
1708.78677 0.02470
1707.50100 0.02530
1706.21523 0.02591
1704.92946 0.02656
1703.64370 0.02729
1702.35793 0.02813
1701.07216 0.02911
1699.78639 0.03017
1698.50062 0.03121
1697.21485 0.03219
1695.92908 0.03316
1694.64331 0.03421
1693.35754 0.03531
1692.07178 0.03639
1690.78601 0.03742
1689.50024 0.03841
1688.21447 0.03935
1686.92870 0.04027
1685.64293 0.04126
1684.35716 0.04241
1683.07139 0.04369
1681.78563 0.04499
1680.49986 0.04619
1679.21409 0.04727
1677.92832 0.04828
1676.64255 0.04929
1675.35678 0.05031
1674.07101 0.05137
1672.78524 0.05245
1671.49947 0.05357
1670.21371 0.05473
1668.92794 0.05591
1667.64217 0.05704
1666.35640 0.05806
1665.07063 0.05899
1663.78486 0.05991
1662.49909 0.06088
1661.21332 0.06187
1659.92756 0.06279
1658.64179 0.06354
1657.35602 0.06408
1656.07025 0.06448
1654.78448 0.06486
1653.49871 0.06540
1652.21294 0.06611
1650.92717 0.06685
1649.64140 0.06743
1648.35564 0.06780
1647.06987 0.06808
1645.78410 0.06838
1644.49833 0.06865
1643.21256 0.06879
1641.92679 0.06869
1640.64102 0.06836
1639.35525 0.06786
1638.06949 0.06730
1636.78372 0.06677
1635.49795 0.06632
1634.21218 0.06588
1632.92641 0.06535
1631.64064 0.06467
1630.35487 0.06385
1629.06910 0.06298
1627.78333 0.06215
1626.49757 0.06136
1625.21180 0.06057
1623.92603 0.05979
1622.64026 0.05902
1621.35449 0.05827
1620.06872 0.05752
1618.78295 0.05679
1617.49718 0.05619
1616.21142 0.05577
1614.92565 0.05548
1613.63988 0.05519
1612.35411 0.05484
1611.06834 0.05447
1609.78257 0.05414
1608.49680 0.05391
1607.21103 0.05376
1605.92526 0.05368
1604.63950 0.05367
1603.35373 0.05371
1602.06796 0.05379
1600.78219 0.05390
1599.49642 0.05405
1598.21065 0.05424
1596.92488 0.05444
1595.63911 0.05463
1594.35335 0.05483
1593.06758 0.05507
1591.78181 0.05535
1590.49604 0.05563
1589.21027 0.05590
1587.92450 0.05617
1586.63873 0.05646
1585.35296 0.05679
1584.06719 0.05716
1582.78143 0.05756
1581.49566 0.05799
1580.20989 0.05843
1578.92412 0.05890
1577.63835 0.05946
1576.35258 0.06016
1575.06681 0.06102
1573.78104 0.06196
1572.49528 0.06291
1571.20951 0.06382
1569.92374 0.06470
1568.63797 0.06553
1567.35220 0.06631
1566.06643 0.06704
1564.78066 0.06771
1563.49489 0.06823
1562.20912 0.06855
1560.92336 0.06873
1559.63759 0.06895
1558.35182 0.06938
1557.06605 0.06997
1555.78028 0.07054
1554.49451 0.07096
1553.20874 0.07120
1551.92297 0.07128
1550.63721 0.07119
1549.35144 0.07092
1548.06567 0.07048
1546.77990 0.06988
1545.49413 0.06913
1544.20836 0.06828
1542.92259 0.06738
1541.63682 0.06658
1540.35105 0.06605
1539.06529 0.06588
1537.77952 0.06600
1536.49375 0.06623
1535.20798 0.06644
1533.92221 0.06659
1532.63644 0.06667
1531.35067 0.06670
1530.06490 0.06672
1528.77914 0.06677
1527.49337 0.06692
1526.20760 0.06715
1524.92183 0.06741
1523.63606 0.06769
1522.35029 0.06802
1521.06452 0.06849
1519.77875 0.06909
1518.49298 0.06977
1517.20722 0.07051
1515.92145 0.07130
1514.63568 0.07215
1513.34991 0.07305
1512.06414 0.07396
1510.77837 0.07482
1509.49260 0.07564
1508.20683 0.07646
1506.92107 0.07739
1505.63530 0.07845
1504.34953 0.07958
1503.06376 0.08067
1501.77799 0.08163
1500.49222 0.08240
1499.20645 0.08303
1497.92068 0.08361
1496.63491 0.08423
1495.34915 0.08488
1494.06338 0.08550
1492.77761 0.08605
1491.49184 0.08656
1490.20607 0.08713
1488.92030 0.08783
1487.63453 0.08866
1486.34876 0.08959
1485.06299 0.09057
1483.77723 0.09159
1482.49146 0.09264
1481.20569 0.09371
1479.91992 0.09476
1478.63415 0.09572
1477.34838 0.09652
1476.06261 0.09714
1474.77684 0.09768
1473.49108 0.09832
1472.20531 0.09917
1470.91954 0.10020
1469.63377 0.10125
1468.34800 0.10215
1467.06223 0.10288
1465.77646 0.10356
1464.49069 0.10433
1463.20492 0.10526
1461.91916 0.10632
1460.63339 0.10746
1459.34762 0.10863
1458.06185 0.10983
1456.77608 0.11112
1455.49031 0.11245
1454.20454 0.11372
1452.91877 0.11477
1451.63301 0.11556
1450.34724 0.11613
1449.06147 0.11658
1447.77570 0.11697
1446.48993 0.11729
1445.20416 0.11751
1443.91839 0.11760
1442.63262 0.11757
1441.34685 0.11744
1440.06109 0.11725
1438.77532 0.11708
1437.48955 0.11707
1436.20378 0.11737
1434.91801 0.11799
1433.63224 0.11884
1432.34647 0.11981
1431.06070 0.12087
1429.77494 0.12207
1428.48917 0.12341
1427.20340 0.12485
1425.91763 0.12633
1424.63186 0.12779
1423.34609 0.12923
1422.06032 0.13064
1420.77455 0.13202
1419.48878 0.13339
1418.20302 0.13472
1416.91725 0.13595
1415.63148 0.13700
1414.34571 0.13783
1413.05994 0.13848
1411.77417 0.13894
1410.48840 0.13920
1409.20263 0.13919
1407.91687 0.13892
1406.63110 0.13839
1405.34533 0.13760
1404.05956 0.13659
1402.77379 0.13534
1401.48802 0.13385
1400.20225 0.13214
1398.91648 0.13021
1397.63071 0.12812
1396.34495 0.12589
1395.05918 0.12358
1393.77341 0.12123
1392.48764 0.11886
1391.20187 0.11647
1389.91610 0.11404
1388.63033 0.11158
1387.34456 0.10911
1386.05880 0.10665
1384.77303 0.10420
1383.48726 0.10175
1382.20149 0.09929
1380.91572 0.09686
1379.62995 0.09447
1378.34418 0.09212
1377.05841 0.08974
1375.77264 0.08729
1374.48688 0.08474
1373.20111 0.08213
1371.91534 0.07954
1370.62957 0.07703
1369.34380 0.07466
1368.05803 0.07245
1366.77226 0.07039
1365.48649 0.06842
1364.20073 0.06654
1362.91496 0.06473
1361.62919 0.06302
1360.34342 0.06143
1359.05765 0.05997
1357.77188 0.05866
1356.48611 0.05751
1355.20034 0.05651
1353.91457 0.05563
1352.62881 0.05485
1351.34304 0.05413
1350.05727 0.05345
1348.77150 0.05280
1347.48573 0.05219
1346.19996 0.05161
1344.91419 0.05106
1343.62842 0.05053
1342.34266 0.05003
1341.05689 0.04956
1339.77112 0.04909
1338.48535 0.04859
1337.19958 0.04806
1335.91381 0.04751
1334.62804 0.04690
1333.34227 0.04622
1332.05650 0.04549
1330.77074 0.04480
1329.48497 0.04423
1328.19920 0.04377
1326.91343 0.04336
1325.62766 0.04295
1324.34189 0.04253
1323.05612 0.04212
1321.77035 0.04173
1320.48459 0.04134
1319.19882 0.04094
1317.91305 0.04055
1316.62728 0.04015
1315.34151 0.03972
1314.05574 0.03925
1312.76997 0.03876
1311.48420 0.03829
1310.19843 0.03789
1308.91267 0.03757
1307.62690 0.03731
1306.34113 0.03704
1305.05536 0.03675
1303.76959 0.03644
1302.48382 0.03611
1301.19805 0.03582
1299.91228 0.03558
1298.62652 0.03540
1297.34075 0.03524
1296.05498 0.03506
1294.76921 0.03485
1293.48344 0.03462
1292.19767 0.03441
1290.91190 0.03421
1289.62613 0.03400
1288.34036 0.03377
1287.05460 0.03357
1285.76883 0.03343
1284.48306 0.03336
1283.19729 0.03332
1281.91152 0.03325
1280.62575 0.03313
1279.33998 0.03296
1278.05421 0.03280
1276.76845 0.03267
1275.48268 0.03255
1274.19691 0.03239
1272.91114 0.03217
1271.62537 0.03191
1270.33960 0.03169
1269.05383 0.03155
1267.76806 0.03145
1266.48229 0.03137
1265.19653 0.03127
1263.91076 0.03118
1262.62499 0.03112
1261.33922 0.03110
1260.05345 0.03108
1258.76768 0.03104
1257.48191 0.03095
1256.19614 0.03081
1254.91037 0.03066
1253.62461 0.03053
1252.33884 0.03047
1251.05307 0.03046
1249.76730 0.03046
1248.48153 0.03041
1247.19576 0.03029
1245.90999 0.03014
1244.62422 0.03000
1243.33846 0.02992
1242.05269 0.02987
1240.76692 0.02980
1239.48115 0.02966
1238.19538 0.02943
1236.90961 0.02916
1235.62384 0.02890
1234.33807 0.02872
1233.05230 0.02861
1231.76654 0.02851
1230.48077 0.02837
1229.19500 0.02817
1227.90923 0.02794
1226.62346 0.02769
1225.33769 0.02742
1224.05192 0.02712
1222.76615 0.02681
1221.48039 0.02651
1220.19462 0.02623
1218.90885 0.02598
1217.62308 0.02573
1216.33731 0.02550
1215.05154 0.02530
1213.76577 0.02512
1212.48000 0.02494
1211.19423 0.02479
1209.90847 0.02465
1208.62270 0.02454
1207.33693 0.02445
1206.05116 0.02435
1204.76539 0.02427
1203.47962 0.02418
1202.19385 0.02407
1200.90808 0.02403
1199.62232 0.02415
1198.33655 0.02400
1197.05078 0.02380
1195.76501 0.02360
1194.47924 0.02340
1193.19347 0.02322
1191.90770 0.02304
1190.62193 0.02284
1189.33616 0.02262
1188.05040 0.02242
1186.76463 0.02222
1185.47886 0.02203
1184.19309 0.02185
1182.90732 0.02171
1181.62155 0.02160
1180.33578 0.02155
1179.05001 0.02151
1177.76425 0.02148
1176.47848 0.02144
1175.19271 0.02141
1173.90694 0.02139
1172.62117 0.02137
1171.33540 0.02135
1170.04963 0.02133
1168.76386 0.02132
1167.47809 0.02131
1166.19233 0.02131
1164.90656 0.02135
1163.62079 0.02145
1162.33502 0.02158
1161.04925 0.02169
1159.76348 0.02174
1158.47771 0.02174
1157.19194 0.02173
1155.90618 0.02177
1154.62041 0.02187
1153.33464 0.02202
1152.04887 0.02218
1150.76310 0.02237
1149.47733 0.02262
1148.19156 0.02298
1146.90579 0.02344
1145.62002 0.02391
1144.33426 0.02438
1143.04849 0.02488
1141.76272 0.02556
1140.47695 0.02645
1139.19118 0.02749
1137.90541 0.02857
1136.61964 0.02966
1135.33387 0.03085
1134.04811 0.03221
1132.76234 0.03381
1131.47657 0.03566
1130.19080 0.03776
1128.90503 0.04015
1127.61926 0.04282
1126.33349 0.04572
1125.04772 0.04881
1123.76195 0.05201
1122.47619 0.05529
1121.19042 0.05865
1119.90465 0.06209
1118.61888 0.06562
1117.33311 0.06916
1116.04734 0.07259
1114.76157 0.07583
1113.47580 0.07892
1112.19004 0.08199
1110.90427 0.08511
1109.61850 0.08827
1108.33273 0.09139
1107.04696 0.09442
1105.76119 0.09739
1104.47542 0.10031
1103.18965 0.10315
1101.90388 0.10586
1100.61812 0.10843
1099.33235 0.11089
1098.04658 0.11327
1096.76081 0.11559
1095.47504 0.11788
1094.18927 0.12010
1092.90350 0.12222
1091.61773 0.12420
1090.33197 0.12603
1089.04620 0.12772
1087.76043 0.12935
1086.47466 0.13101
1085.18889 0.13274
1083.90312 0.13451
1082.61735 0.13635
1081.33158 0.13830
1080.04581 0.14045
1078.76005 0.14278
1077.47428 0.14520
1076.18851 0.14763
1074.90274 0.15010
1073.61697 0.15267
1072.33120 0.15545
1071.04543 0.15844
1069.75966 0.16161
1068.47390 0.16485
1067.18813 0.16811
1065.90236 0.17138
1064.61659 0.17471
1063.33082 0.17811
1062.04505 0.18153
1060.75928 0.18490
1059.47351 0.18820
1058.18774 0.19146
1056.90198 0.19469
1055.61621 0.19786
1054.33044 0.20095
1053.04467 0.20399
1051.75890 0.20703
1050.47313 0.21012
1049.18736 0.21335
1047.90159 0.21672
1046.61583 0.22020
1045.33006 0.22374
1044.04429 0.22731
1042.75852 0.23090
1041.47275 0.23445
1040.18698 0.23791
1038.90121 0.24132
1037.61544 0.24476
1036.32967 0.24828
1035.04391 0.25185
1033.75814 0.25537
1032.47237 0.25875
1031.18660 0.26191
1029.90083 0.26485
1028.61506 0.26761
1027.32929 0.27021
1026.04352 0.27260
1024.75775 0.27470
1023.47199 0.27643
1022.18622 0.27774
1020.90045 0.27864
1019.61468 0.27914
1018.32891 0.27926
1017.04314 0.27904
1015.75737 0.27850
1014.47160 0.27761
1013.18584 0.27628
1011.90007 0.27442
1010.61430 0.27203
1009.32853 0.26918
1008.04276 0.26596
1006.75699 0.26241
1005.47122 0.25851
1004.18545 0.25424
1002.89968 0.24958
1001.61392 0.24457
1000.32815 0.23924
999.04238 0.23360
997.75661 0.22761
996.47084 0.22131
995.18507 0.21486
993.89930 0.20840
992.61353 0.20198
991.32777 0.19558
990.04200 0.18917
988.75623 0.18280
987.47046 0.17652
986.18469 0.17038
984.89892 0.16441
983.61315 0.15865
982.32738 0.15318
981.04161 0.14804
979.75585 0.14327
978.47008 0.13881
977.18431 0.13461
975.89854 0.13070
974.61277 0.12720
973.32700 0.12422
972.04123 0.12188
970.75546 0.12023
969.46970 0.11930
968.18393 0.11908
966.89816 0.11946
965.61239 0.12025
964.32662 0.12118
963.04085 0.12199
961.75508 0.12243
960.46931 0.12231
959.18354 0.12145
957.89778 0.11988
956.61201 0.11777
955.32624 0.11538
954.04047 0.11289
952.75470 0.11034
951.46893 0.10770
950.18316 0.10494
948.89739 0.10215
947.61163 0.09944
946.32586 0.09688
945.04009 0.09446
943.75432 0.09210
942.46855 0.08976
941.18278 0.08743
939.89701 0.08518
938.61124 0.08306
937.32547 0.08112
936.03971 0.07933
934.75394 0.07767
933.46817 0.07611
932.18240 0.07467
930.89663 0.07330
929.61086 0.07195
928.32509 0.07061
927.03932 0.06930
925.75356 0.06811
924.46779 0.06707
923.18202 0.06614
921.89625 0.06526
920.61048 0.06435
919.32471 0.06339
918.03894 0.06246
916.75317 0.06161
915.46740 0.06081
914.18164 0.06001
912.89587 0.05924
911.61010 0.05851
910.32433 0.05784
909.03856 0.05719
907.75279 0.05656
906.46702 0.05598
905.18125 0.05545
903.89549 0.05489
902.60972 0.05426
901.32395 0.05361
900.03818 0.05302
898.75241 0.05250
897.46664 0.05198
896.18087 0.05146
894.89510 0.05099
893.60933 0.05064
892.32357 0.05038
891.03780 0.05022
889.75203 0.05017
888.46626 0.05036
887.18049 0.05089
885.89472 0.05190
884.60895 0.05363
883.32318 0.05626
882.03742 0.05966
880.75165 0.06329
879.46588 0.06645
878.18011 0.06886
876.89434 0.07085
875.60857 0.07292
874.32280 0.07525
873.03703 0.07745
871.75126 0.07897
870.46550 0.07945
869.17973 0.07889
867.89396 0.07743
866.60819 0.07524
865.32242 0.07248
864.03665 0.06933
862.75088 0.06605
861.46511 0.06291
860.17935 0.06015
858.89358 0.05785
857.60781 0.05597
856.32204 0.05440
855.03627 0.05311
853.75050 0.05207
852.46473 0.05123
851.17896 0.05050
849.89319 0.04981
848.60743 0.04911
847.32166 0.04843
846.03589 0.04786
844.75012 0.04738
843.46435 0.04697
842.17858 0.04658
840.89281 0.04621
839.60704 0.04585
838.32128 0.04549
837.03551 0.04512
835.74974 0.04477
834.46397 0.04446
833.17820 0.04420
831.89243 0.04396
830.60666 0.04372
829.32089 0.04347
828.03512 0.04321
826.74936 0.04300
825.46359 0.04285
824.17782 0.04273
822.89205 0.04260
821.60628 0.04245
820.32051 0.04231
819.03474 0.04222
817.74897 0.04215
816.46321 0.04206
815.17744 0.04191
813.89167 0.04176
812.60590 0.04163
811.32013 0.04151
810.03436 0.04134
808.74859 0.04113
807.46282 0.04094
806.17705 0.04080
804.89129 0.04071
803.60552 0.04066
802.31975 0.04064
801.03398 0.04063
799.74821 0.04056
798.46244 0.04043
797.17667 0.04027
795.89090 0.04015
794.60513 0.04008
793.31937 0.04001
792.03360 0.03991
790.74783 0.03982
789.46206 0.03976
788.17629 0.03975
786.89052 0.03975
785.60475 0.03971
784.31898 0.03964
783.03322 0.03957
781.74745 0.03948
780.46168 0.03939
779.17591 0.03933
777.89014 0.03938
776.60437 0.03950
775.31860 0.03959
774.03283 0.03954
772.74706 0.03940
771.46130 0.03927
770.17553 0.03919
768.88976 0.03914
767.60399 0.03909
766.31822 0.03905
765.03245 0.03906
763.74668 0.03907
762.46091 0.03902
761.17515 0.03893
759.88938 0.03890
758.60361 0.03902
757.31784 0.03926
756.03207 0.03950
754.74630 0.03961
753.46053 0.03956
752.17476 0.03939
750.88899 0.03923
749.60323 0.03916
748.31746 0.03917
747.03169 0.03920
745.74592 0.03923
744.46015 0.03926
743.17438 0.03927
741.88861 0.03925
740.60284 0.03917
739.31708 0.03903
738.03131 0.03885
736.74554 0.03872
735.45977 0.03869
734.17400 0.03875
732.88823 0.03885
731.60246 0.03892
730.31669 0.03888
729.03092 0.03877
727.74516 0.03867
726.45939 0.03865
725.17362 0.03867
723.88785 0.03862
722.60208 0.03847
721.31631 0.03832
720.03054 0.03831
718.74477 0.03848
717.45901 0.03877
716.17324 0.03906
714.88747 0.03922
713.60170 0.03923
712.31593 0.03912
711.03016 0.03897
709.74439 0.03883
708.45862 0.03871
707.17285 0.03863
705.88709 0.03856
704.60132 0.03847
703.31555 0.03833
702.02978 0.03815
700.74401 0.03800
699.45824 0.03793
698.17247 0.03793
696.88670 0.03795
695.60094 0.03799
694.31517 0.03799
693.02940 0.03795
691.74363 0.03790
690.45786 0.03789
689.17209 0.03793
687.88632 0.03797
686.60055 0.03793
685.31478 0.03781
684.02902 0.03766
682.74325 0.03752
681.45748 0.03740
680.17171 0.03729
678.88594 0.03722
677.60017 0.03722
676.31440 0.03729
675.02863 0.03741
673.74287 0.03756
672.45710 0.03775
671.17133 0.03803
669.88556 0.03835
668.59979 0.03852
667.31402 0.03858
666.02825 0.03868
664.74248 0.03844
663.45671 0.03805
662.17095 0.03762
660.88518 0.03724
659.59941 0.03696
658.31364 0.03680
657.02787 0.03669
655.74210 0.03657
654.45633 0.03640
653.17056 0.03621
651.88480 0.03600
650.59903 0.03577
649.31326 0.03552
648.02749 0.03531
646.74172 0.03515
645.45595 0.03503
644.17018 0.03490
642.88441 0.03471
641.59864 0.03449
640.31288 0.03430
639.02711 0.03418
637.74134 0.03413
636.45557 0.03414
635.16980 0.03422
633.88403 0.03437
632.59826 0.03463
631.31249 0.03468
630.02673 0.03361
628.74096 0.03230
627.45519 0.03451
626.16942 0.03404
624.88365 0.03180
623.59788 0.02975
622.31211 0.02842
621.02634 0.02861
619.74057 0.03140
618.45481 0.03686
617.16904 0.04371
615.88327 0.05038
614.59750 0.05595
613.31173 0.06064
612.02596 0.06525
610.74019 0.07002
609.45442 0.07442
608.16866 0.07838
606.88289 0.08292
605.59712 0.08888
604.31135 0.09575
603.02558 0.10186
601.73981 0.10563
600.45404 0.10654
599.16827 0.10518
597.88250 0.10257
596.59674 0.09955
595.31097 0.09656
594.02520 0.09376
592.73943 0.09129
591.45366 0.08924
590.16789 0.08778
588.88212 0.08704
587.59635 0.08710
586.31059 0.08796
585.02482 0.08953
583.73905 0.09163
582.45328 0.09409
581.16751 0.09674
579.88174 0.09946
578.59597 0.10218
577.31020 0.10482
576.02443 0.10730
574.73867 0.10954
573.45290 0.11159
572.16713 0.11361
570.88136 0.11588
569.59559 0.11872
568.30982 0.12223
567.02405 0.12628
565.73828 0.13050
564.45251 0.13445
563.16675 0.13769
561.88098 0.13973
560.59521 0.14017
559.30944 0.13882
558.02367 0.13576
556.73790 0.13121
555.45213 0.12558
554.16636 0.11933
552.88060 0.11298
551.59483 0.10688
550.30906 0.10120
549.02329 0.09591
547.73752 0.09098
546.45175 0.08644
545.16598 0.08240
543.88021 0.07896
542.59444 0.07610
541.30868 0.07361
540.02291 0.07122
538.73714 0.06880
537.45137 0.06643
536.16560 0.06422
534.87983 0.06223
533.59406 0.06045
532.30829 0.05887
531.02253 0.05746
529.73676 0.05616
528.45099 0.05493
527.16522 0.05378
525.87945 0.05272
524.59368 0.05172
523.30791 0.05073
522.02214 0.04975
520.73637 0.04879
519.45061 0.04790
518.16484 0.04706
516.87907 0.04625
515.59330 0.04545
514.30753 0.04468
513.02176 0.04399
511.73599 0.04342
510.45022 0.04289
509.16446 0.04228
507.87869 0.04153
506.59292 0.04073
505.30715 0.04002
504.02138 0.03946
502.73561 0.03904
501.44984 0.03870
500.16407 0.03837
498.87830 0.03801
497.59254 0.03760
496.30677 0.03715
495.02100 0.03669
493.73523 0.03623
492.44946 0.03573
491.16369 0.03519
489.87792 0.03467
488.59215 0.03424
487.30639 0.03395
486.02062 0.03384
484.73485 0.03386
483.44908 0.03396
482.16331 0.03405
480.87754 0.03406
479.59177 0.03400
478.30600 0.03391
477.02023 0.03384
475.73447 0.03387
474.44870 0.03401
473.16293 0.03421
471.87716 0.03439
470.59139 0.03451
469.30562 0.03455
468.01985 0.03448
466.73408 0.03422
465.44832 0.03379
464.16255 0.03326
462.87678 0.03278
461.59101 0.03239
460.30524 0.03205
459.01947 0.03168
457.73370 0.03121
456.44793 0.03071
455.16216 0.03023
453.87640 0.02980
452.59063 0.02940
451.30486 0.02902
450.01909 0.02864
448.73332 0.02828
447.44755 0.02799
446.16178 0.02778
444.87601 0.02762
443.59025 0.02747
442.30448 0.02729
441.01871 0.02708
439.73294 0.02685
438.44717 0.02661
437.16140 0.02635
435.87563 0.02613
434.58986 0.02598
433.30409 0.02595
432.01833 0.02598
430.73256 0.02597
429.44679 0.02582
428.16102 0.02551
426.87525 0.02511
425.58948 0.02472
424.30371 0.02437
423.01794 0.02408
421.73218 0.02386
420.44641 0.02370
419.16064 0.02361
417.87487 0.02354
416.58910 0.02347
415.30333 0.02338
414.01756 0.02329
412.73179 0.02322
411.44602 0.02318
410.16026 0.02314
408.87449 0.02307
407.58872 0.02300
406.30295 0.02295
405.01718 0.02295
403.73141 0.02298
402.44564 0.02301
401.15987 0.02305
399.87411 0.02311
