3997.45528	0.02964
3996.16951	0.03012
3994.88374	0.03050
3993.59798	0.03078
3992.31221	0.03128
3991.02644	0.03221
3989.74067	0.03324
3988.45490	0.03362
3987.16913	0.03302
3985.88336	0.03189
3984.59759	0.03107
3983.31183	0.03098
3982.02606	0.03154
3980.74029	0.03248
3979.45452	0.03348
3978.16875	0.03418
3976.88298	0.03438
3975.59721	0.03413
3974.31144	0.03359
3973.02567	0.03264
3971.73991	0.03115
3970.45414	0.02935
3969.16837	0.02795
3967.88260	0.02755
3966.59683	0.02821
3965.31106	0.02949
3964.02529	0.03081
3962.73952	0.03179
3961.45376	0.03224
3960.16799	0.03217
3958.88222	0.03173
3957.59645	0.03120
3956.31068	0.03092
3955.02491	0.03105
3953.73914	0.03150
3952.45337	0.03202
3951.16760	0.03237
3949.88184	0.03233
3948.59607	0.03173
3947.31030	0.03062
3946.02453	0.02953
3944.73876	0.02913
3943.45299	0.02976
3942.16722	0.03108
3940.88145	0.03235
3939.59569	0.03296
3938.30992	0.03271
3937.02415	0.03184
3935.73838	0.03079
3934.45261	0.02998
3933.16684	0.02956
3931.88107	0.02942
3930.59530	0.02940
3929.30953	0.02940
3928.02377	0.02935
3926.73800	0.02924
3925.45223	0.02909
3924.16646	0.02906
3922.88069	0.02943
3921.59492	0.03036
3920.30915	0.03161
3919.02338	0.03262
3917.73762	0.03292
3916.45185	0.03243
3915.16608	0.03134
3913.88031	0.02999
3912.59454	0.02882
3911.30877	0.02821
3910.02300	0.02824
3908.73723	0.02868
3907.45146	0.02906
3906.16570	0.02894
3904.87993	0.02824
3903.59416	0.02736
3902.30839	0.02691
3901.02262	0.02717
3899.73685	0.02790
3898.45108	0.02865
3897.16531	0.02917
3895.87955	0.02941
3894.59378	0.02946
3893.30801	0.02939
3892.02224	0.02927
3890.73647	0.02904
3889.45070	0.02862
3888.16493	0.02805
3886.87916	0.02754
3885.59339	0.02720
3884.30763	0.02699
3883.02186	0.02694
3881.73609	0.02735
3880.45032	0.02841
3879.16455	0.02974
3877.87878	0.03071
3876.59301	0.03102
3875.30724	0.03101
3874.02148	0.03113
3872.73571	0.03150
3871.44994	0.03178
3870.16417	0.03154
3868.87840	0.03067
3867.59263	0.02946
3866.30686	0.02833
3865.02109	0.02751
3863.73532	0.02702
3862.44956	0.02689
3861.16379	0.02719
3859.87802	0.02783
3858.59225	0.02856
3857.30648	0.02906
3856.02071	0.02921
3854.73494	0.02903
3853.44917	0.02863
3852.16341	0.02822
3850.87764	0.02805
3849.59187	0.02828
3848.30610	0.02878
3847.02033	0.02916
3845.73456	0.02918
3844.44879	0.02891
3843.16302	0.02856
3841.87725	0.02814
3840.59149	0.02757
3839.30572	0.02692
3838.01995	0.02642
3836.73418	0.02622
3835.44841	0.02628
3834.16264	0.02643
3832.87687	0.02650
3831.59110	0.02645
3830.30534	0.02641
3829.01957	0.02660
3827.73380	0.02700
3826.44803	0.02739
3825.16226	0.02750
3823.87649	0.02727
3822.59072	0.02686
3821.30495	0.02644
3820.01918	0.02618
3818.73342	0.02614
3817.44765	0.02640
3816.16188	0.02695
3814.87611	0.02768
3813.59034	0.02844
3812.30457	0.02915
3811.01880	0.02979
3809.73303	0.03018
3808.44726	0.03005
3807.16150	0.02938
3805.87573	0.02853
3804.58996	0.02793
3803.30419	0.02767
3802.01842	0.02750
3800.73265	0.02716
3799.44688	0.02666
3798.16111	0.02628
3796.87535	0.02620
3795.58958	0.02630
3794.30381	0.02626
3793.01804	0.02601
3791.73227	0.02580
3790.44650	0.02596
3789.16073	0.02650
3787.87496	0.02715
3786.58919	0.02763
3785.30343	0.02787
3784.01766	0.02789
3782.73189	0.02770
3781.44612	0.02736
3780.16035	0.02705
3778.87458	0.02690
3777.58881	0.02687
3776.30304	0.02674
3775.01728	0.02643
3773.73151	0.02613
3772.44574	0.02614
3771.15997	0.02662
3769.87420	0.02738
3768.58843	0.02805
3767.30266	0.02834
3766.01689	0.02819
3764.73112	0.02780
3763.44536	0.02741
3762.15959	0.02723
3760.87382	0.02728
3759.58805	0.02744
3758.30228	0.02754
3757.01651	0.02756
3755.73074	0.02752
3754.44497	0.02739
3753.15921	0.02703
3751.87344	0.02639
3750.58767	0.02569
3749.30190	0.02514
3748.01613	0.02482
3746.73036	0.02461
3745.44459	0.02432
3744.15882	0.02384
3742.87305	0.02328
3741.58729	0.02296
3740.30152	0.02316
3739.01575	0.02375
3737.72998	0.02430
3736.44421	0.02457
3735.15844	0.02477
3733.87267	0.02515
3732.58690	0.02561
3731.30114	0.02576
3730.01537	0.02546
3728.72960	0.02504
3727.44383	0.02494
3726.15806	0.02535
3724.87229	0.02610
3723.58652	0.02684
3722.30075	0.02711
3721.01498	0.02659
3719.72922	0.02543
3718.44345	0.02414
3717.15768	0.02328
3715.87191	0.02307
3714.58614	0.02342
3713.30037	0.02423
3712.01460	0.02533
3710.72883	0.02643
3709.44307	0.02719
3708.15730	0.02744
3706.87153	0.02726
3705.58576	0.02678
3704.29999	0.02609
3703.01422	0.02533
3701.72845	0.02465
3700.44268	0.02413
3699.15691	0.02381
3697.87115	0.02374
3696.58538	0.02405
3695.29961	0.02474
3694.01384	0.02562
3692.72807	0.02639
3691.44230	0.02692
3690.15653	0.02722
3688.87076	0.02724
3687.58500	0.02700
3686.29923	0.02662
3685.01346	0.02616
3683.72769	0.02559
3682.44192	0.02480
3681.15615	0.02370
3679.87038	0.02252
3678.58461	0.02175
3677.29884	0.02182
3676.01308	0.02275
3674.72731	0.02412
3673.44154	0.02544
3672.15577	0.02641
3670.87000	0.02685
3669.58423	0.02680
3668.29846	0.02652
3667.01269	0.02642
3665.72693	0.02662
3664.44116	0.02673
3663.15539	0.02632
3661.86962	0.02540
3660.58385	0.02444
3659.29808	0.02372
3658.01231	0.02314
3656.72654	0.02256
3655.44077	0.02215
3654.15501	0.02218
3652.86924	0.02266
3651.58347	0.02342
3650.29770	0.02433
3649.01193	0.02532
3647.72616	0.02620
3646.44039	0.02669
3645.15462	0.02677
3643.86886	0.02674
3642.58309	0.02679
3641.29732	0.02669
3640.01155	0.02603
3638.72578	0.02483
3637.44001	0.02366
3636.15424	0.02322
3634.86847	0.02375
3633.58270	0.02501
3632.29694	0.02638
3631.01117	0.02729
3629.72540	0.02747
3628.43963	0.02710
3627.15386	0.02645
3625.86809	0.02564
3624.58232	0.02488
3623.29655	0.02468
3622.01079	0.02551
3620.72502	0.02721
3619.43925	0.02889
3618.15348	0.02969
3616.86771	0.02944
3615.58194	0.02852
3614.29617	0.02733
3613.01040	0.02609
3611.72463	0.02506
3610.43887	0.02474
3609.15310	0.02541
3607.86733	0.02677
3606.58156	0.02799
3605.29579	0.02848
3604.01002	0.02846
3602.72425	0.02853
3601.43848	0.02886
3600.15272	0.02908
3598.86695	0.02874
3597.58118	0.02791
3596.29541	0.02706
3595.00964	0.02665
3593.72387	0.02681
3592.43810	0.02724
3591.15233	0.02758
3589.86656	0.02775
3588.58080	0.02794
3587.29503	0.02821
3586.00926	0.02844
3584.72349	0.02845
3583.43772	0.02818
3582.15195	0.02775
3580.86618	0.02731
3579.58041	0.02707
3578.29464	0.02722
3577.00888	0.02777
3575.72311	0.02846
3574.43734	0.02896
3573.15157	0.02919
3571.86580	0.02922
3570.58003	0.02912
3569.29426	0.02887
3568.00849	0.02860
3566.72273	0.02861
3565.43696	0.02917
3564.15119	0.03014
3562.86542	0.03104
3561.57965	0.03149
3560.29388	0.03148
3559.00811	0.03120
3557.72234	0.03087
3556.43657	0.03065
3555.15081	0.03072
3553.86504	0.03104
3552.57927	0.03131
3551.29350	0.03126
3550.00773	0.03102
3548.72196	0.03099
3547.43619	0.03143
3546.15042	0.03222
3544.86466	0.03302
3543.57889	0.03349
3542.29312	0.03347
3541.00735	0.03305
3539.72158	0.03252
3538.43581	0.03222
3537.15004	0.03225
3535.86427	0.03244
3534.57850	0.03251
3533.29274	0.03236
3532.00697	0.03220
3530.72120	0.03231
3529.43543	0.03275
3528.14966	0.03329
3526.86389	0.03366
3525.57812	0.03373
3524.29235	0.03357
3523.00659	0.03337
3521.72082	0.03327
3520.43505	0.03323
3519.14928	0.03318
3517.86351	0.03326
3516.57774	0.03369
3515.29197	0.03452
3514.00620	0.03547
3512.72043	0.03626
3511.43467	0.03670
3510.14890	0.03665
3508.86313	0.03600
3507.57736	0.03480
3506.29159	0.03342
3505.00582	0.03236
3503.72005	0.03204
3502.43428	0.03258
3501.14852	0.03362
3499.86275	0.03458
3498.57698	0.03505
3497.29121	0.03508
3496.00544	0.03491
3494.71967	0.03464
3493.43390	0.03428
3492.14813	0.03400
3490.86236	0.03414
3489.57660	0.03477
3488.29083	0.03558
3487.00506	0.03620
3485.71929	0.03653
3484.43352	0.03673
3483.14775	0.03682
3481.86198	0.03668
3480.57621	0.03631
3479.29045	0.03603
3478.00468	0.03614
3476.71891	0.03666
3475.43314	0.03730
3474.14737	0.03770
3472.86160	0.03761
3471.57583	0.03700
3470.29006	0.03607
3469.00429	0.03528
3467.71853	0.03504
3466.43276	0.03546
3465.14699	0.03625
3463.86122	0.03692
3462.57545	0.03706
3461.28968	0.03665
3460.00391	0.03599
3458.71814	0.03548
3457.43238	0.03533
3456.14661	0.03550
3454.86084	0.03580
3453.57507	0.03607
3452.28930	0.03618
3451.00353	0.03606
3449.71776	0.03581
3448.43199	0.03568
3447.14622	0.03586
3445.86046	0.03630
3444.57469	0.03674
3443.28892	0.03706
3442.00315	0.03725
3440.71738	0.03735
3439.43161	0.03733
3438.14584	0.03725
3436.86007	0.03732
3435.57431	0.03762
3434.28854	0.03802
3433.00277	0.03829
3431.71700	0.03838
3430.43123	0.03843
3429.14546	0.03852
3427.85969	0.03860
3426.57392	0.03854
3425.28815	0.03828
3424.00239	0.03789
3422.71662	0.03746
3421.43085	0.03713
3420.14508	0.03704
3418.85931	0.03716
3417.57354	0.03729
3416.28777	0.03726
3415.00200	0.03710
3413.71624	0.03709
3412.43047	0.03739
3411.14470	0.03799
3409.85893	0.03868
3408.57316	0.03924
3407.28739	0.03954
3406.00162	0.03951
3404.71585	0.03918
3403.43008	0.03872
3402.14432	0.03836
3400.85855	0.03821
3399.57278	0.03811
3398.28701	0.03782
3397.00124	0.03733
3395.71547	0.03691
3394.42970	0.03683
3393.14393	0.03713
3391.85817	0.03767
3390.57240	0.03836
3389.28663	0.03915
3388.00086	0.03993
3386.71509	0.04051
3385.42932	0.04078
3384.14355	0.04078
3382.85778	0.04067
3381.57201	0.04047
3380.28625	0.04011
3379.00048	0.03956
3377.71471	0.03901
3376.42894	0.03870
3375.14317	0.03870
3373.85740	0.03887
3372.57163	0.03896
3371.28586	0.03883
3370.00010	0.03856
3368.71433	0.03840
3367.42856	0.03856
3366.14279	0.03912
3364.85702	0.03998
3363.57125	0.04089
3362.28548	0.04149
3360.99971	0.04157
3359.71394	0.04118
3358.42818	0.04056
3357.14241	0.03991
3355.85664	0.03935
3354.57087	0.03903
3353.28510	0.03909
3351.99933	0.03954
3350.71356	0.04021
3349.42779	0.04085
3348.14202	0.04131
3346.85626	0.04149
3345.57049	0.04129
3344.28472	0.04068
3342.99895	0.03986
3341.71318	0.03923
3340.42741	0.03913
3339.14164	0.03952
3337.85587	0.04006
3336.57011	0.04045
3335.28434	0.04064
3333.99857	0.04070
3332.71280	0.04061
3331.42703	0.04026
3330.14126	0.03969
3328.85549	0.03916
3327.56972	0.03900
3326.28395	0.03939
3324.99819	0.04017
3323.71242	0.04095
3322.42665	0.04141
3321.14088	0.04148
3319.85511	0.04125
3318.56934	0.04080
3317.28357	0.04017
3315.99780	0.03954
3314.71204	0.03925
3313.42627	0.03945
3312.14050	0.03987
3310.85473	0.04016
3309.56896	0.04024
3308.28319	0.04025
3306.99742	0.04025
3305.71165	0.04013
3304.42588	0.03987
3303.14012	0.03957
3301.85435	0.03933
3300.56858	0.03918
3299.28281	0.03911
3297.99704	0.03918
3296.71127	0.03939
3295.42550	0.03959
3294.13973	0.03967
3292.85397	0.03968
3291.56820	0.03978
3290.28243	0.04006
3288.99666	0.04044
3287.71089	0.04081
3286.42512	0.04106
3285.13935	0.04102
3283.85358	0.04055
3282.56781	0.03981
3281.28205	0.03926
3279.99628	0.03922
3278.71051	0.03958
3277.42474	0.03996
3276.13897	0.04007
3274.85320	0.03995
3273.56743	0.03976
3272.28166	0.03968
3270.99590	0.03982
3269.71013	0.04011
3268.42436	0.04036
3267.13859	0.04039
3265.85282	0.04019
3264.56705	0.03987
3263.28128	0.03951
3261.99551	0.03914
3260.70974	0.03887
3259.42398	0.03881
3258.13821	0.03905
3256.85244	0.03955
3255.56667	0.04012
3254.28090	0.04050
3252.99513	0.04051
3251.70936	0.04018
3250.42359	0.03978
3249.13783	0.03963
3247.85206	0.03978
3246.56629	0.04001
3245.28052	0.03994
3243.99475	0.03938
3242.70898	0.03848
3241.42321	0.03772
3240.13744	0.03756
3238.85167	0.03800
3237.56591	0.03849
3236.28014	0.03850
3234.99437	0.03799
3233.70860	0.03743
3232.42283	0.03719
3231.13706	0.03724
3229.85129	0.03723
3228.56552	0.03702
3227.27976	0.03666
3225.99399	0.03633
3224.70822	0.03614
3223.42245	0.03621
3222.13668	0.03662
3220.85091	0.03726
3219.56514	0.03777
3218.27937	0.03785
3216.99360	0.03758
3215.70784	0.03737
3214.42207	0.03748
3213.13630	0.03783
3211.85053	0.03807
3210.56476	0.03800
3209.27899	0.03770
3207.99322	0.03738
3206.70745	0.03712
3205.42169	0.03687
3204.13592	0.03655
3202.85015	0.03615
3201.56438	0.03577
3200.27861	0.03551
3198.99284	0.03546
3197.70707	0.03561
3196.42130	0.03588
3195.13553	0.03613
3193.84977	0.03620
3192.56400	0.03606
3191.27823	0.03588
3189.99246	0.03590
3188.70669	0.03624
3187.42092	0.03675
3186.13515	0.03719
3184.84938	0.03748
3183.56362	0.03767
3182.27785	0.03777
3180.99208	0.03763
3179.70631	0.03712
3178.42054	0.03636
3177.13477	0.03563
3175.84900	0.03513
3174.56323	0.03493
3173.27746	0.03508
3171.99170	0.03557
3170.70593	0.03614
3169.42016	0.03647
3168.13439	0.03642
3166.84862	0.03620
3165.56285	0.03610
3164.27708	0.03622
3162.99131	0.03641
3161.70555	0.03651
3160.41978	0.03649
3159.13401	0.03640
3157.84824	0.03632
3156.56247	0.03637
3155.27670	0.03657
3153.99093	0.03685
3152.70516	0.03703
3151.41939	0.03693
3150.13363	0.03654
3148.84786	0.03606
3147.56209	0.03568
3146.27632	0.03547
3144.99055	0.03534
3143.70478	0.03513
3142.41901	0.03467
3141.13324	0.03402
3139.84748	0.03343
3138.56171	0.03314
3137.27594	0.03313
3135.99017	0.03321
3134.70440	0.03327
3133.41863	0.03341
3132.13286	0.03381
3130.84709	0.03447
3129.56132	0.03515
3128.27556	0.03550
3126.98979	0.03533
3125.70402	0.03472
3124.41825	0.03400
3123.13248	0.03347
3121.84671	0.03321
3120.56094	0.03308
3119.27517	0.03297
3117.98940	0.03293
3116.70364	0.03303
3115.41787	0.03324
3114.13210	0.03355
3112.84633	0.03402
3111.56056	0.03463
3110.27479	0.03513
3108.98902	0.03521
3107.70325	0.03466
3106.41749	0.03363
3105.13172	0.03251
3103.84595	0.03172
3102.56018	0.03144
3101.27441	0.03158
3099.98864	0.03192
3098.70287	0.03228
3097.41710	0.03257
3096.13133	0.03272
3094.84557	0.03268
3093.55980	0.03254
3092.27403	0.03251
3090.98826	0.03265
3089.70249	0.03283
3088.41672	0.03289
3087.13095	0.03284
3085.84518	0.03288
3084.55942	0.03309
3083.27365	0.03335
3081.98788	0.03355
3080.70211	0.03369
3079.41634	0.03390
3078.13057	0.03418
3076.84480	0.03439
3075.55903	0.03437
3074.27326	0.03414
3072.98750	0.03382
3071.70173	0.03351
3070.41596	0.03327
3069.13019	0.03312
3067.84442	0.03314
3066.55865	0.03334
3065.27288	0.03366
3063.98711	0.03396
3062.70135	0.03404
3061.41558	0.03377
3060.12981	0.03318
3058.84404	0.03247
3057.55827	0.03186
3056.27250	0.03144
3054.98673	0.03119
3053.70096	0.03109
3052.41519	0.03114
3051.12943	0.03135
3049.84366	0.03172
3048.55789	0.03213
3047.27212	0.03242
3045.98635	0.03244
3044.70058	0.03226
3043.41481	0.03210
3042.12904	0.03211
3040.84328	0.03220
3039.55751	0.03222
3038.27174	0.03212
3036.98597	0.03195
3035.70020	0.03175
3034.41443	0.03148
3033.12866	0.03121
3031.84289	0.03111
3030.55712	0.03134
3029.27136	0.03176
3027.98559	0.03205
3026.69982	0.03194
3025.41405	0.03139
3024.12828	0.03067
3022.84251	0.03015
3021.55674	0.03004
3020.27097	0.03022
3018.98521	0.03040
3017.69944	0.03039
3016.41367	0.03022
3015.12790	0.03008
3013.84213	0.03007
3012.55636	0.03021
3011.27059	0.03041
3009.98482	0.03058
3008.69905	0.03067
3007.41329	0.03066
3006.12752	0.03060
3004.84175	0.03053
3003.55598	0.03041
3002.27021	0.03011
3000.98444	0.02963
2999.69867	0.02918
2998.41290	0.02898
2997.12714	0.02902
2995.84137	0.02916
2994.55560	0.02933
2993.26983	0.02948
2991.98406	0.02952
2990.69829	0.02940
2989.41252	0.02925
2988.12675	0.02921
2986.84098	0.02934
2985.55522	0.02958
2984.26945	0.02989
2982.98368	0.03020
2981.69791	0.03049
2980.41214	0.03076
2979.12637	0.03099
2977.84060	0.03110
2976.55483	0.03101
2975.26907	0.03081
2973.98330	0.03068
2972.69753	0.03074
2971.41176	0.03097
2970.12599	0.03130
2968.84022	0.03162
2967.55445	0.03182
2966.26868	0.03192
2964.98291	0.03205
2963.69715	0.03236
2962.41138	0.03276
2961.12561	0.03315
2959.83984	0.03354
2958.55407	0.03402
2957.26830	0.03450
2955.98253	0.03478
2954.69676	0.03473
2953.41100	0.03449
2952.12523	0.03429
2950.83946	0.03415
2949.55369	0.03401
2948.26792	0.03388
2946.98215	0.03389
2945.69638	0.03404
2944.41061	0.03418
2943.12484	0.03416
2941.83908	0.03394
2940.55331	0.03367
2939.26754	0.03358
2937.98177	0.03383
2936.69600	0.03439
2935.41023	0.03495
2934.12446	0.03520
2932.83869	0.03507
2931.55293	0.03482
2930.26716	0.03476
2928.98139	0.03509
2927.69562	0.03571
2926.40985	0.03634
2925.12408	0.03672
2923.83831	0.03671
2922.55254	0.03635
2921.26677	0.03585
2919.98101	0.03549
2918.69524	0.03553
2917.40947	0.03592
2916.12370	0.03640
2914.83793	0.03669
2913.55216	0.03678
2912.26639	0.03675
2910.98062	0.03662
2909.69486	0.03623
2908.40909	0.03550
2907.12332	0.03462
2905.83755	0.03392
2904.55178	0.03360
2903.26601	0.03351
2901.98024	0.03342
2900.69447	0.03328
2899.40870	0.03323
2898.12294	0.03330
2896.83717	0.03334
2895.55140	0.03322
2894.26563	0.03297
2892.97986	0.03272
2891.69409	0.03252
2890.40832	0.03230
2889.12255	0.03200
2887.83678	0.03164
2886.55102	0.03132
2885.26525	0.03116
2883.97948	0.03127
2882.69371	0.03155
2881.40794	0.03180
2880.12217	0.03187
2878.83640	0.03178
2877.55063	0.03165
2876.26487	0.03153
2874.97910	0.03148
2873.69333	0.03148
2872.40756	0.03151
2871.12179	0.03147
2869.83602	0.03130
2868.55025	0.03103
2867.26448	0.03081
2865.97871	0.03079
2864.69295	0.03100
2863.40718	0.03125
2862.12141	0.03137
2860.83564	0.03130
2859.54987	0.03115
2858.26410	0.03094
2856.97833	0.03070
2855.69256	0.03047
2854.40680	0.03031
2853.12103	0.03028
2851.83526	0.03027
2850.54949	0.03019
2849.26372	0.03004
2847.97795	0.02989
2846.69218	0.02983
2845.40641	0.02982
2844.12064	0.02979
2842.83488	0.02966
2841.54911	0.02934
2840.26334	0.02883
2838.97757	0.02828
2837.69180	0.02796
2836.40603	0.02797
2835.12026	0.02820
2833.83449	0.02842
2832.54873	0.02845
2831.26296	0.02831
2829.97719	0.02818
2828.69142	0.02816
2827.40565	0.02820
2826.11988	0.02818
2824.83411	0.02799
2823.54834	0.02760
2822.26257	0.02711
2820.97681	0.02673
2819.69104	0.02661
2818.40527	0.02663
2817.11950	0.02660
2815.83373	0.02642
2814.54796	0.02625
2813.26219	0.02623
2811.97642	0.02635
2810.69066	0.02641
2809.40489	0.02627
2808.11912	0.02598
2806.83335	0.02571
2805.54758	0.02560
2804.26181	0.02564
2802.97604	0.02571
2801.69027	0.02575
2800.40450	0.02578
2799.11874	0.02580
2797.83297	0.02574
2796.54720	0.02553
2795.26143	0.02522
2793.97566	0.02501
2792.68989	0.02503
2791.40412	0.02527
2790.11835	0.02556
2788.83259	0.02569
2787.54682	0.02560
2786.26105	0.02536
2784.97528	0.02518
2783.68951	0.02516
2782.40374	0.02526
2781.11797	0.02534
2779.83220	0.02535
2778.54643	0.02530
2777.26067	0.02522
2775.97490	0.02511
2774.68913	0.02499
2773.40336	0.02487
2772.11759	0.02477
2770.83182	0.02473
2769.54605	0.02474
2768.26028	0.02476
2766.97452	0.02473
2765.68875	0.02466
2764.40298	0.02462
2763.11721	0.02467
2761.83144	0.02479
2760.54567	0.02491
2759.25990	0.02498
2757.97413	0.02496
2756.68836	0.02490
2755.40260	0.02488
2754.11683	0.02491
2752.83106	0.02494
2751.54529	0.02494
2750.25952	0.02495
2748.97375	0.02500
2747.68798	0.02508
2746.40221	0.02506
2745.11645	0.02488
2743.83068	0.02459
2742.54491	0.02436
2741.25914	0.02430
2739.97337	0.02439
2738.68760	0.02450
2737.40183	0.02454
2736.11606	0.02451
2734.83029	0.02445
2733.54453	0.02436
2732.25876	0.02418
2730.97299	0.02392
2729.68722	0.02373
2728.40145	0.02378
2727.11568	0.02406
2725.82991	0.02434
2724.54414	0.02433
2723.25838	0.02402
2721.97261	0.02365
2720.68684	0.02347
2719.40107	0.02354
2718.11530	0.02370
2716.82953	0.02374
2715.54376	0.02353
2714.25799	0.02320
2712.97222	0.02305
2711.68646	0.02319
2710.40069	0.02347
2709.11492	0.02361
2707.82915	0.02352
2706.54338	0.02332
2705.25761	0.02316
2703.97184	0.02305
2702.68607	0.02290
2701.40031	0.02264
2700.11454	0.02239
2698.82877	0.02231
2697.54300	0.02244
2696.25723	0.02266
2694.97146	0.02285
2693.68569	0.02300
2692.39992	0.02314
2691.11415	0.02325
2689.82839	0.02326
2688.54262	0.02311
2687.25685	0.02281
2685.97108	0.02253
2684.68531	0.02242
2683.39954	0.02250
2682.11377	0.02264
2680.82800	0.02273
2679.54224	0.02277
2678.25647	0.02287
2676.97070	0.02307
2675.68493	0.02325
2674.39916	0.02326
2673.11339	0.02306
2671.82762	0.02273
2670.54185	0.02247
2669.25608	0.02241
2667.97032	0.02255
2666.68455	0.02280
2665.39878	0.02304
2664.11301	0.02321
2662.82724	0.02329
2661.54147	0.02323
2660.25570	0.02298
2658.96993	0.02264
2657.68417	0.02237
2656.39840	0.02231
2655.11263	0.02240
2653.82686	0.02241
2652.54109	0.02217
2651.25532	0.02182
2649.96955	0.02164
2648.68378	0.02171
2647.39801	0.02186
2646.11225	0.02191
2644.82648	0.02185
2643.54071	0.02175
2642.25494	0.02161
2640.96917	0.02141
2639.68340	0.02117
2638.39763	0.02095
2637.11186	0.02080
2635.82609	0.02075
2634.54033	0.02077
2633.25456	0.02070
2631.96879	0.02040
2630.68302	0.01988
2629.39725	0.01937
2628.11148	0.01915
2626.82571	0.01931
2625.53994	0.01972
2624.25418	0.02018
2622.96841	0.02052
2621.68264	0.02060
2620.39687	0.02029
2619.11110	0.01966
2617.82533	0.01902
2616.53956	0.01872
2615.25379	0.01875
2613.96802	0.01885
2612.68226	0.01884
2611.39649	0.01882
2610.11072	0.01899
2608.82495	0.01931
2607.53918	0.01947
2606.25341	0.01919
2604.96764	0.01853
2603.68187	0.01784
2602.39611	0.01752
2601.11034	0.01771
2599.82457	0.01825
2598.53880	0.01888
2597.25303	0.01934
2595.96726	0.01949
2594.68149	0.01935
2593.39572	0.01902
2592.10995	0.01859
2590.82419	0.01815
2589.53842	0.01786
2588.25265	0.01786
2586.96688	0.01808
2585.68111	0.01827
2584.39534	0.01823
2583.10957	0.01809
2581.82380	0.01811
2580.53804	0.01831
2579.25227	0.01838
2577.96650	0.01803
2576.68073	0.01744
2575.39496	0.01714
2574.10919	0.01745
2572.82342	0.01808
2571.53765	0.01849
2570.25188	0.01839
2568.96612	0.01800
2567.68035	0.01769
2566.39458	0.01763
2565.10881	0.01770
2563.82304	0.01767
2562.53727	0.01749
2561.25150	0.01723
2559.96573	0.01704
2558.67997	0.01690
2557.39420	0.01677
2556.10843	0.01665
2554.82266	0.01668
2553.53689	0.01695
2552.25112	0.01736
2550.96535	0.01773
2549.67958	0.01795
2548.39381	0.01807
2547.10805	0.01815
2545.82228	0.01810
2544.53651	0.01777
2543.25074	0.01713
2541.96497	0.01640
2540.67920	0.01590
2539.39343	0.01586
2538.10766	0.01624
2536.82190	0.01680
2535.53613	0.01728
2534.25036	0.01755
2532.96459	0.01761
2531.67882	0.01756
2530.39305	0.01753
2529.10728	0.01767
2527.82151	0.01801
2526.53574	0.01844
2525.24998	0.01871
2523.96421	0.01867
2522.67844	0.01841
2521.39267	0.01820
2520.10690	0.01821
2518.82113	0.01836
2517.53536	0.01835
2516.24959	0.01796
2514.96383	0.01724
2513.67806	0.01655
2512.39229	0.01616
2511.10652	0.01605
2509.82075	0.01601
2508.53498	0.01600
2507.24921	0.01617
2505.96344	0.01654
2504.67767	0.01696
2503.39191	0.01725
2502.10614	0.01737
2500.82037	0.01733
2499.53460	0.01708
2498.24883	0.01660
2496.96306	0.01605
2495.67729	0.01568
2494.39152	0.01566
2493.10576	0.01594
2491.81999	0.01635
2490.53422	0.01673
2489.24845	0.01700
2487.96268	0.01710
2486.67691	0.01698
2485.39114	0.01670
2484.10537	0.01639
2482.81960	0.01624
2481.53384	0.01631
2480.24807	0.01642
2478.96230	0.01630
2477.67653	0.01587
2476.39076	0.01542
2475.10499	0.01530
2473.81922	0.01564
2472.53345	0.01623
2471.24769	0.01673
2469.96192	0.01690
2468.67615	0.01674
2467.39038	0.01640
2466.10461	0.01615
2464.81884	0.01608
2463.53307	0.01610
2462.24730	0.01610
2460.96153	0.01604
2459.67577	0.01597
2458.39000	0.01591
2457.10423	0.01596
2455.81846	0.01627
2454.53269	0.01683
2453.24692	0.01736
2451.96115	0.01746
2450.67538	0.01708
2449.38962	0.01659
2448.10385	0.01632
2446.81808	0.01629
2445.53231	0.01625
2444.24654	0.01608
2442.96077	0.01588
2441.67500	0.01573
2440.38923	0.01567
2439.10346	0.01568
2437.81770	0.01569
2436.53193	0.01565
2435.24616	0.01554
2433.96039	0.01547
2432.67462	0.01555
2431.38885	0.01579
2430.10308	0.01606
2428.81731	0.01619
2427.53155	0.01613
2426.24578	0.01610
2424.96001	0.01634
2423.67424	0.01681
2422.38847	0.01717
2421.10270	0.01714
2419.81693	0.01676
2418.53116	0.01634
2417.24539	0.01615
2415.95963	0.01619
2414.67386	0.01630
2413.38809	0.01627
2412.10232	0.01609
2410.81655	0.01585
2409.53078	0.01561
2408.24501	0.01538
2406.95924	0.01515
2405.67347	0.01493
2404.38771	0.01477
2403.10194	0.01476
2401.81617	0.01492
2400.53040	0.01521
2399.24463	0.01552
2397.95886	0.01570
2396.67309	0.01570
2395.38732	0.01558
2394.10156	0.01543
2392.81579	0.01531
2391.53002	0.01519
2390.24425	0.01502
2388.95848	0.01485
2387.67271	0.01480
2386.38694	0.01493
2385.10117	0.01519
2383.81540	0.01545
2382.52964	0.01559
2381.24387	0.01550
2379.95810	0.01517
2378.67233	0.01471
2377.38656	0.01421
2376.10079	0.01369
2374.81502	0.01315
2373.52925	0.01255
2372.24349	0.01200
2370.95772	0.01164
2369.67195	0.01161
2368.38618	0.01174
2367.10041	0.01176
2365.81464	0.01150
2364.52887	0.01123
2363.24310	0.01107
2361.95733	0.01107
2360.67157	0.01114
2359.38580	0.01146
2358.10003	0.01188
2356.81426	0.01224
2355.52849	0.01247
2354.24272	0.01263
2352.95695	0.01292
2351.67118	0.01326
2350.38542	0.01352
2349.09965	0.01380
2347.81388	0.01413
2346.52811	0.01417
2345.24234	0.01392
2343.95657	0.01370
2342.67080	0.01367
2341.38503	0.01331
2340.09926	0.01248
2338.81350	0.01192
2337.52773	0.01188
2336.24196	0.01175
2334.95619	0.01158
2333.67042	0.01200
2332.38465	0.01279
2331.09888	0.01281
2329.81311	0.01269
2328.52735	0.01338
2327.24158	0.01355
2325.95581	0.01346
2324.67004	0.01413
2323.38427	0.01446
2322.09850	0.01423
2320.81273	0.01456
2319.52696	0.01468
2318.24119	0.01480
2316.95543	0.01550
2315.66966	0.01579
2314.38389	0.01574
2313.09812	0.01578
2311.81235	0.01563
2310.52658	0.01565
2309.24081	0.01563
2307.95504	0.01533
2306.66928	0.01506
2305.38351	0.01465
2304.09774	0.01426
2302.81197	0.01409
2301.52620	0.01420
2300.24043	0.01471
2298.95466	0.01530
2297.66889	0.01570
2296.38312	0.01576
2295.09736	0.01558
2293.81159	0.01536
2292.52582	0.01519
2291.24005	0.01512
2289.95428	0.01507
2288.66851	0.01495
2287.38274	0.01470
2286.09697	0.01437
2284.81121	0.01410
2283.52544	0.01398
2282.23967	0.01404
2280.95390	0.01421
2279.66813	0.01441
2278.38236	0.01447
2277.09659	0.01424
2275.81082	0.01368
2274.52505	0.01299
2273.23929	0.01252
2271.95352	0.01246
2270.66775	0.01267
2269.38198	0.01284
2268.09621	0.01282
2266.81044	0.01273
2265.52467	0.01278
2264.23890	0.01302
2262.95314	0.01330
2261.66737	0.01345
2260.38160	0.01348
2259.09583	0.01340
2257.81006	0.01315
2256.52429	0.01266
2255.23852	0.01209
2253.95275	0.01172
2252.66698	0.01173
2251.38122	0.01203
2250.09545	0.01241
2248.80968	0.01265
2247.52391	0.01244
2246.23814	0.01179
2244.95237	0.01086
2243.66660	0.01007
2242.38083	0.00982
2241.09507	0.01007
2239.80930	0.01051
2238.52353	0.01093
2237.23776	0.01132
2235.95199	0.01165
2234.66622	0.01170
2233.38045	0.01144
2232.09468	0.01118
2230.80891	0.01129
2229.52315	0.01162
2228.23738	0.01166
2226.95161	0.01120
2225.66584	0.01074
2224.38007	0.01078
2223.09430	0.01122
2221.80853	0.01161
2220.52276	0.01165
2219.23700	0.01124
2217.95123	0.01024
2216.66546	0.00878
2215.37969	0.00756
2214.09392	0.00740
2212.80815	0.00842
2211.52238	0.00981
2210.23661	0.01053
2208.95084	0.01015
2207.66508	0.00903
2206.37931	0.00797
2205.09354	0.00756
2203.80777	0.00784
2202.52200	0.00855
2201.23623	0.00940
2199.95046	0.01012
2198.66469	0.01040
2197.37893	0.00992
2196.09316	0.00860
2194.80739	0.00676
2193.52162	0.00519
2192.23585	0.00479
2190.95008	0.00600
2189.66431	0.00825
2188.37854	0.01028
2187.09277	0.01104
2185.80701	0.01032
2184.52124	0.00879
2183.23547	0.00734
2181.94970	0.00658
2180.66393	0.00662
2179.37816	0.00712
2178.09239	0.00755
2176.80662	0.00767
2175.52085	0.00774
2174.23509	0.00816
2172.94932	0.00887
2171.66355	0.00921
2170.37778	0.00854
2169.09201	0.00674
2167.80624	0.00448
2166.52047	0.00292
2165.23470	0.00293
2163.94894	0.00433
2162.66317	0.00594
2161.37740	0.00665
2160.09163	0.00643
2158.80586	0.00623
2157.52009	0.00683
2156.23432	0.00796
2154.94855	0.00855
2153.66278	0.00788
2152.37702	0.00636
2151.09125	0.00508
2149.80548	0.00475
2148.51971	0.00515
2147.23394	0.00558
2145.94817	0.00554
2144.66240	0.00496
2143.37663	0.00416
2142.09087	0.00371
2140.80510	0.00407
2139.51933	0.00520
2138.23356	0.00650
2136.94779	0.00723
2135.66202	0.00720
2134.37625	0.00687
2133.09048	0.00696
2131.80471	0.00765
2130.51895	0.00846
2129.23318	0.00882
2127.94741	0.00863
2126.66164	0.00828
2125.37587	0.00808
2124.09010	0.00800
2122.80433	0.00796
2121.51856	0.00803
2120.23280	0.00841
2118.94703	0.00905
2117.66126	0.00973
2116.37549	0.01026
2115.08972	0.01061
2113.80395	0.01074
2112.51818	0.01065
2111.23241	0.01040
2109.94664	0.01012
2108.66088	0.00985
2107.37511	0.00953
2106.08934	0.00909
2104.80357	0.00849
2103.51780	0.00782
2102.23203	0.00732
2100.94626	0.00729
2099.66049	0.00797
2098.37473	0.00861
2097.08896	0.00874
2095.80319	0.00829
2094.51742	0.00758
2093.23165	0.00714
2091.94588	0.00724
2090.66011	0.00765
2089.37434	0.00795
2088.08857	0.00796
2086.80281	0.00780
2085.51704	0.00764
2084.23127	0.00748
2082.94550	0.00727
2081.65973	0.00703
2080.37396	0.00681
2079.08819	0.00654
2077.80242	0.00611
2076.51666	0.00556
2075.23089	0.00507
2073.94512	0.00476
2072.65935	0.00466
2071.37358	0.00481
2070.08781	0.00533
2068.80204	0.00615
2067.51627	0.00693
2066.23050	0.00728
2064.94474	0.00713
2063.65897	0.00671
2062.37320	0.00632
2061.08743	0.00618
2059.80166	0.00635
2058.51589	0.00672
2057.23012	0.00710
2055.94435	0.00733
2054.65859	0.00722
2053.37282	0.00660
2052.08705	0.00556
2050.80128	0.00459
2049.51551	0.00430
2048.22974	0.00482
2046.94397	0.00571
2045.65820	0.00634
2044.37243	0.00643
2043.08667	0.00617
2041.80090	0.00591
2040.51513	0.00587
2039.22936	0.00607
2037.94359	0.00629
2036.65782	0.00616
2035.37205	0.00540
2034.08628	0.00423
2032.80052	0.00343
2031.51475	0.00357
2030.22898	0.00441
2028.94321	0.00513
2027.65744	0.00525
2026.37167	0.00497
2025.08590	0.00476
2023.80013	0.00474
2022.51436	0.00478
2021.22860	0.00474
2019.94283	0.00471
2018.65706	0.00474
2017.37129	0.00476
2016.08552	0.00470
2014.79975	0.00450
2013.51398	0.00416
2012.22821	0.00375
2010.94245	0.00353
2009.65668	0.00388
2008.37091	0.00488
2007.08514	0.00609
2005.79937	0.00679
2004.51360	0.00665
2003.22783	0.00596
2001.94206	0.00536
2000.65629	0.00513
1999.37053	0.00506
1998.08476	0.00485
1996.79899	0.00455
1995.51322	0.00448
1994.22745	0.00481
1992.94168	0.00530
1991.65591	0.00558
1990.37014	0.00553
1989.08438	0.00539
1987.79861	0.00551
1986.51284	0.00594
1985.22707	0.00642
1983.94130	0.00665
1982.65553	0.00657
1981.36976	0.00632
1980.08399	0.00605
1978.79822	0.00574
1977.51246	0.00531
1976.22669	0.00477
1974.94092	0.00435
1973.65515	0.00428
1972.36938	0.00467
1971.08361	0.00546
1969.79784	0.00646
1968.51207	0.00733
1967.22631	0.00774
1965.94054	0.00764
1964.65477	0.00724
1963.36900	0.00686
1962.08323	0.00677
1960.79746	0.00710
1959.51169	0.00774
1958.22592	0.00836
1956.94015	0.00864
1955.65439	0.00855
1954.36862	0.00835
1953.08285	0.00833
1951.79708	0.00859
1950.51131	0.00898
1949.22554	0.00934
1947.93977	0.00953
1946.65400	0.00946
1945.36823	0.00907
1944.08247	0.00843
1942.79670	0.00777
1941.51093	0.00743
1940.22516	0.00750
1938.93939	0.00770
1937.65362	0.00768
1936.36785	0.00740
1935.08208	0.00728
1933.79632	0.00765
1932.51055	0.00837
1931.22478	0.00889
1929.93901	0.00892
1928.65324	0.00865
1927.36747	0.00852
1926.08170	0.00868
1924.79593	0.00901
1923.51016	0.00927
1922.22440	0.00937
1920.93863	0.00941
1919.65286	0.00948
1918.36709	0.00957
1917.08132	0.00957
1915.79555	0.00942
1914.50978	0.00916
1913.22401	0.00890
1911.93825	0.00872
1910.65248	0.00866
1909.36671	0.00869
1908.08094	0.00878
1906.79517	0.00895
1905.50940	0.00917
1904.22363	0.00935
1902.93786	0.00940
1901.65209	0.00939
1900.36633	0.00953
1899.08056	0.00988
1897.79479	0.01022
1896.50902	0.01028
1895.22325	0.00992
1893.93748	0.00931
1892.65171	0.00876
1891.36594	0.00851
1890.08018	0.00854
1888.79441	0.00871
1887.50864	0.00885
1886.22287	0.00889
1884.93710	0.00885
1883.65133	0.00874
1882.36556	0.00857
1881.07979	0.00836
1879.79402	0.00819
1878.50826	0.00818
1877.22249	0.00836
1875.93672	0.00865
1874.65095	0.00892
1873.36518	0.00906
1872.07941	0.00908
1870.79364	0.00905
1869.50787	0.00909
1868.22211	0.00933
1866.93634	0.00978
1865.65057	0.01028
1864.36480	0.01060
1863.07903	0.01065
1861.79326	0.01048
1860.50749	0.01020
1859.22172	0.00995
1857.93595	0.00975
1856.65019	0.00960
1855.36442	0.00949
1854.07865	0.00947
1852.79288	0.00957
1851.50711	0.00973
1850.22134	0.00982
1848.93557	0.00980
1847.64980	0.00977
1846.36404	0.00981
1845.07827	0.00982
1843.79250	0.00973
1842.50673	0.00960
1841.22096	0.00963
1839.93519	0.00988
1838.64942	0.01015
1837.36365	0.01026
1836.07788	0.01019
1834.79212	0.01008
1833.50635	0.01008
1832.22058	0.01019
1830.93481	0.01034
1829.64904	0.01041
1828.36327	0.01034
1827.07750	0.01019
1825.79173	0.01005
1824.50597	0.00999
1823.22020	0.01002
1821.93443	0.01009
1820.64866	0.01018
1819.36289	0.01024
1818.07712	0.01024
1816.79135	0.01020
1815.50558	0.01017
1814.21981	0.01018
1812.93405	0.01021
1811.64828	0.01020
1810.36251	0.01009
1809.07674	0.00991
1807.79097	0.00972
1806.50520	0.00964
1805.21943	0.00971
1803.93366	0.00991
1802.64790	0.01015
1801.36213	0.01034
1800.07636	0.01041
1798.79059	0.01037
1797.50482	0.01023
1796.21905	0.01007
1794.93328	0.00998
1793.64751	0.00996
1792.36174	0.00999
1791.07598	0.01001
1789.79021	0.01005
1788.50444	0.01015
1787.21867	0.01033
1785.93290	0.01050
1784.64713	0.01057
1783.36136	0.01051
1782.07559	0.01038
1780.78983	0.01026
1779.50406	0.01019
1778.21829	0.01016
1776.93252	0.01016
1775.64675	0.01018
1774.36098	0.01023
1773.07521	0.01028
1771.78944	0.01028
1770.50367	0.01023
1769.21791	0.01021
1767.93214	0.01025
1766.64637	0.01033
1765.36060	0.01034
1764.07483	0.01026
1762.78906	0.01015
1761.50329	0.01008
1760.21752	0.01010
1758.93176	0.01017
1757.64599	0.01023
1756.36022	0.01027
1755.07445	0.01029
1753.78868	0.01036
1752.50291	0.01047
1751.21714	0.01055
1749.93137	0.01052
1748.64560	0.01036
1747.35984	0.01018
1746.07407	0.01010
1744.78830	0.01017
1743.50253	0.01029
1742.21676	0.01036
1740.93099	0.01036
1739.64522	0.01033
1738.35945	0.01030
1737.07369	0.01032
1735.78792	0.01040
1734.50215	0.01053
1733.21638	0.01066
1731.93061	0.01072
1730.64484	0.01071
1729.35907	0.01064
1728.07330	0.01057
1726.78753	0.01055
1725.50177	0.01058
1724.21600	0.01064
1722.93023	0.01069
1721.64446	0.01075
1720.35869	0.01088
1719.07292	0.01108
1717.78715	0.01128
1716.50138	0.01138
1715.21561	0.01139
1713.92985	0.01138
1712.64408	0.01142
1711.35831	0.01154
1710.07254	0.01173
1708.78677	0.01199
1707.50100	0.01231
1706.21523	0.01265
1704.92946	0.01298
1703.64370	0.01333
1702.35793	0.01373
1701.07216	0.01417
1699.78639	0.01459
1698.50062	0.01495
1697.21485	0.01526
1695.92908	0.01550
1694.64331	0.01569
1693.35754	0.01589
1692.07178	0.01617
1690.78601	0.01658
1689.50024	0.01708
1688.21447	0.01762
1686.92870	0.01816
1685.64293	0.01864
1684.35716	0.01904
1683.07139	0.01934
1681.78563	0.01958
1680.49986	0.01983
1679.21409	0.02012
1677.92832	0.02047
1676.64255	0.02086
1675.35678	0.02125
1674.07101	0.02162
1672.78524	0.02195
1671.49947	0.02229
1670.21371	0.02264
1668.92794	0.02300
1667.64217	0.02334
1666.35640	0.02367
1665.07063	0.02401
1663.78486	0.02437
1662.49909	0.02473
1661.21332	0.02505
1659.92756	0.02533
1658.64179	0.02563
1657.35602	0.02597
1656.07025	0.02635
1654.78448	0.02670
1653.49871	0.02696
1652.21294	0.02711
1650.92717	0.02717
1649.64140	0.02717
1648.35564	0.02717
1647.06987	0.02720
1645.78410	0.02726
1644.49833	0.02732
1643.21256	0.02735
1641.92679	0.02732
1640.64102	0.02728
1639.35525	0.02725
1638.06949	0.02724
1636.78372	0.02718
1635.49795	0.02703
1634.21218	0.02680
1632.92641	0.02653
1631.64064	0.02626
1630.35487	0.02601
1629.06910	0.02576
1627.78333	0.02550
1626.49757	0.02526
1625.21180	0.02502
1623.92603	0.02477
1622.64026	0.02450
1621.35449	0.02425
1620.06872	0.02406
1618.78295	0.02393
1617.49718	0.02379
1616.21142	0.02359
1614.92565	0.02336
1613.63988	0.02314
1612.35411	0.02293
1611.06834	0.02274
1609.78257	0.02253
1608.49680	0.02231
1607.21103	0.02210
1605.92526	0.02193
1604.63950	0.02182
1603.35373	0.02175
1602.06796	0.02170
1600.78219	0.02162
1599.49642	0.02153
1598.21065	0.02146
1596.92488	0.02141
1595.63911	0.02138
1594.35335	0.02136
1593.06758	0.02137
1591.78181	0.02144
1590.49604	0.02153
1589.21027	0.02158
1587.92450	0.02159
1586.63873	0.02157
1585.35296	0.02157
1584.06719	0.02164
1582.78143	0.02179
1581.49566	0.02198
1580.20989	0.02216
1578.92412	0.02233
1577.63835	0.02250
1576.35258	0.02269
1575.06681	0.02286
1573.78104	0.02299
1572.49528	0.02310
1571.20951	0.02327
1569.92374	0.02350
1568.63797	0.02374
1567.35220	0.02394
1566.06643	0.02410
1564.78066	0.02428
1563.49489	0.02451
1562.20912	0.02475
1560.92336	0.02497
1559.63759	0.02513
1558.35182	0.02525
1557.06605	0.02534
1555.78028	0.02541
1554.49451	0.02546
1553.20874	0.02551
1551.92297	0.02558
1550.63721	0.02566
1549.35144	0.02577
1548.06567	0.02589
1546.77990	0.02601
1545.49413	0.02613
1544.20836	0.02621
1542.92259	0.02629
1541.63682	0.02635
1540.35105	0.02637
1539.06529	0.02636
1537.77952	0.02635
1536.49375	0.02641
1535.20798	0.02655
1533.92221	0.02671
1532.63644	0.02682
1531.35067	0.02690
1530.06490	0.02698
1528.77914	0.02713
1527.49337	0.02734
1526.20760	0.02757
1524.92183	0.02782
1523.63606	0.02809
1522.35029	0.02837
1521.06452	0.02862
1519.77875	0.02884
1518.49298	0.02906
1517.20722	0.02931
1515.92145	0.02959
1514.63568	0.02990
1513.34991	0.03023
1512.06414	0.03060
1510.77837	0.03104
1509.49260	0.03156
1508.20683	0.03209
1506.92107	0.03256
1505.63530	0.03293
1504.34953	0.03324
1503.06376	0.03353
1501.77799	0.03383
1500.49222	0.03414
1499.20645	0.03443
1497.92068	0.03471
1496.63491	0.03499
1495.34915	0.03524
1494.06338	0.03544
1492.77761	0.03561
1491.49184	0.03579
1490.20607	0.03602
1488.92030	0.03632
1487.63453	0.03670
1486.34876	0.03714
1485.06299	0.03760
1483.77723	0.03806
1482.49146	0.03850
1481.20569	0.03892
1479.91992	0.03934
1478.63415	0.03982
1477.34838	0.04036
1476.06261	0.04093
1474.77684	0.04145
1473.49108	0.04189
1472.20531	0.04224
1470.91954	0.04250
1469.63377	0.04271
1468.34800	0.04293
1467.06223	0.04317
1465.77646	0.04338
1464.49069	0.04356
1463.20492	0.04370
1461.91916	0.04385
1460.63339	0.04406
1459.34762	0.04436
1458.06185	0.04473
1456.77608	0.04510
1455.49031	0.04540
1454.20454	0.04563
1452.91877	0.04583
1451.63301	0.04600
1450.34724	0.04615
1449.06147	0.04625
1447.77570	0.04632
1446.48993	0.04635
1445.20416	0.04628
1443.91839	0.04610
1442.63262	0.04582
1441.34685	0.04553
1440.06109	0.04527
1438.77532	0.04507
1437.48955	0.04493
1436.20378	0.04485
1434.91801	0.04487
1433.63224	0.04500
1432.34647	0.04527
1431.06070	0.04566
1429.77494	0.04613
1428.48917	0.04664
1427.20340	0.04715
1425.91763	0.04769
1424.63186	0.04826
1423.34609	0.04888
1422.06032	0.04951
1420.77455	0.05010
1419.48878	0.05062
1418.20302	0.05105
1416.91725	0.05139
1415.63148	0.05165
1414.34571	0.05182
1413.05994	0.05192
1411.77417	0.05196
1410.48840	0.05192
1409.20263	0.05181
1407.91687	0.05164
1406.63110	0.05138
1405.34533	0.05103
1404.05956	0.05058
1402.77379	0.05007
1401.48802	0.04950
1400.20225	0.04887
1398.91648	0.04814
1397.63071	0.04732
1396.34495	0.04645
1395.05918	0.04556
1393.77341	0.04467
1392.48764	0.04381
1391.20187	0.04295
1389.91610	0.04211
1388.63033	0.04129
1387.34456	0.04049
1386.05880	0.03971
1384.77303	0.03892
1383.48726	0.03813
1382.20149	0.03736
1380.91572	0.03663
1379.62995	0.03590
1378.34418	0.03513
1377.05841	0.03430
1375.77264	0.03339
1374.48688	0.03243
1373.20111	0.03150
1371.91534	0.03064
1370.62957	0.02982
1369.34380	0.02904
1368.05803	0.02827
1366.77226	0.02756
1365.48649	0.02692
1364.20073	0.02632
1362.91496	0.02573
1361.62919	0.02512
1360.34342	0.02453
1359.05765	0.02399
1357.77188	0.02350
1356.48611	0.02305
1355.20034	0.02263
1353.91457	0.02222
1352.62881	0.02186
1351.34304	0.02154
1350.05727	0.02126
1348.77150	0.02098
1347.48573	0.02071
1346.19996	0.02046
1344.91419	0.02022
1343.62842	0.01999
1342.34266	0.01978
1341.05689	0.01959
1339.77112	0.01943
1338.48535	0.01927
1337.19958	0.01912
1335.91381	0.01896
1334.62804	0.01880
1333.34227	0.01865
1332.05650	0.01849
1330.77074	0.01828
1329.48497	0.01802
1328.19920	0.01775
1326.91343	0.01752
1325.62766	0.01734
1324.34189	0.01721
1323.05612	0.01709
1321.77035	0.01698
1320.48459	0.01690
1319.19882	0.01686
1317.91305	0.01684
1316.62728	0.01679
1315.34151	0.01665
1314.05574	0.01645
1312.76997	0.01624
1311.48420	0.01606
1310.19843	0.01591
1308.91267	0.01578
1307.62690	0.01566
1306.34113	0.01555
1305.05536	0.01544
1303.76959	0.01532
1302.48382	0.01524
1301.19805	0.01520
1299.91228	0.01518
1298.62652	0.01513
1297.34075	0.01501
1296.05498	0.01487
1294.76921	0.01477
1293.48344	0.01472
1292.19767	0.01471
1290.91190	0.01471
1289.62613	0.01469
1288.34036	0.01464
1287.05460	0.01455
1285.76883	0.01443
1284.48306	0.01433
1283.19729	0.01424
1281.91152	0.01419
1280.62575	0.01415
1279.33998	0.01414
1278.05421	0.01415
1276.76845	0.01415
1275.48268	0.01411
1274.19691	0.01401
1272.91114	0.01388
1271.62537	0.01374
1270.33960	0.01363
1269.05383	0.01354
1267.76806	0.01347
1266.48229	0.01342
1265.19653	0.01340
1263.91076	0.01340
1262.62499	0.01340
1261.33922	0.01337
1260.05345	0.01332
1258.76768	0.01330
1257.48191	0.01333
1256.19614	0.01340
1254.91037	0.01346
1253.62461	0.01347
1252.33884	0.01340
1251.05307	0.01328
1249.76730	0.01315
1248.48153	0.01302
1247.19576	0.01292
1245.90999	0.01286
1244.62422	0.01285
1243.33846	0.01287
1242.05269	0.01287
1240.76692	0.01282
1239.48115	0.01272
1238.19538	0.01266
1236.90961	0.01266
1235.62384	0.01270
1234.33807	0.01272
1233.05230	0.01266
1231.76654	0.01251
1230.48077	0.01235
1229.19500	0.01222
1227.90923	0.01214
1226.62346	0.01206
1225.33769	0.01195
1224.05192	0.01181
1222.76615	0.01165
1221.48039	0.01151
1220.19462	0.01139
1218.90885	0.01129
1217.62308	0.01121
1216.33731	0.01116
1215.05154	0.01113
1213.76577	0.01110
1212.48000	0.01104
1211.19423	0.01098
1209.90847	0.01093
1208.62270	0.01093
1207.33693	0.01096
1206.05116	0.01103
1204.76539	0.01111
1203.47962	0.01117
1202.19385	0.01116
1200.90808	0.01108
1199.62232	0.01094
1198.33655	0.01084
1197.05078	0.01076
1195.76501	0.01068
1194.47924	0.01058
1193.19347	0.01048
1191.90770	0.01041
1190.62193	0.01039
1189.33616	0.01040
1188.05040	0.01043
1186.76463	0.01042
1185.47886	0.01038
1184.19309	0.01032
1182.90732	0.01028
1181.62155	0.01027
1180.33578	0.01027
1179.05001	0.01023
1177.76425	0.01014
1176.47848	0.01004
1175.19271	0.00998
1173.90694	0.01001
1172.62117	0.01011
1171.33540	0.01018
1170.04963	0.01021
1168.76386	0.01021
1167.47809	0.01027
1166.19233	0.01041
1164.90656	0.01059
1163.62079	0.01073
1162.33502	0.01079
1161.04925	0.01080
1159.76348	0.01080
1158.47771	0.01081
1157.19194	0.01081
1155.90618	0.01081
1154.62041	0.01081
1153.33464	0.01087
1152.04887	0.01103
1150.76310	0.01131
1149.47733	0.01166
1148.19156	0.01202
1146.90579	0.01234
1145.62002	0.01259
1144.33426	0.01280
1143.04849	0.01307
1141.76272	0.01344
1140.47695	0.01389
1139.19118	0.01436
1137.90541	0.01483
1136.61964	0.01535
1135.33387	0.01597
1134.04811	0.01667
1132.76234	0.01746
1131.47657	0.01835
1130.19080	0.01935
1128.90503	0.02047
1127.61926	0.02169
1126.33349	0.02301
1125.04772	0.02446
1123.76195	0.02606
1122.47619	0.02778
1121.19042	0.02955
1119.90465	0.03127
1118.61888	0.03292
1117.33311	0.03456
1116.04734	0.03623
1114.76157	0.03791
1113.47580	0.03955
1112.19004	0.04114
1110.90427	0.04274
1109.61850	0.04439
1108.33273	0.04608
1107.04696	0.04776
1105.76119	0.04939
1104.47542	0.05098
1103.18965	0.05255
1101.90388	0.05409
1100.61812	0.05559
1099.33235	0.05700
1098.04658	0.05825
1096.76081	0.05935
1095.47504	0.06037
1094.18927	0.06141
1092.90350	0.06248
1091.61773	0.06350
1090.33197	0.06439
1089.04620	0.06517
1087.76043	0.06592
1086.47466	0.06672
1085.18889	0.06760
1083.90312	0.06855
1082.61735	0.06956
1081.33158	0.07062
1080.04581	0.07170
1078.76005	0.07282
1077.47428	0.07401
1076.18851	0.07528
1074.90274	0.07661
1073.61697	0.07797
1072.33120	0.07939
1071.04543	0.08090
1069.75966	0.08250
1068.47390	0.08412
1067.18813	0.08571
1065.90236	0.08728
1064.61659	0.08885
1063.33082	0.09042
1062.04505	0.09198
1060.75928	0.09353
1059.47351	0.09508
1058.18774	0.09666
1056.90198	0.09826
1055.61621	0.09980
1054.33044	0.10124
1053.04467	0.10264
1051.75890	0.10405
1050.47313	0.10552
1049.18736	0.10700
1047.90159	0.10849
1046.61583	0.11001
1045.33006	0.11157
1044.04429	0.11318
1042.75852	0.11481
1041.47275	0.11644
1040.18698	0.11806
1038.90121	0.11961
1037.61544	0.12111
1036.32967	0.12258
1035.04391	0.12407
1033.75814	0.12556
1032.47237	0.12700
1031.18660	0.12830
1029.90083	0.12944
1028.61506	0.13044
1027.32929	0.13128
1026.04352	0.13187
1024.75775	0.13216
1023.47199	0.13217
1022.18622	0.13201
1020.90045	0.13176
1019.61468	0.13146
1018.32891	0.13106
1017.04314	0.13050
1015.75737	0.12974
1014.47160	0.12874
1013.18584	0.12746
1011.90007	0.12588
1010.61430	0.12404
1009.32853	0.12204
1008.04276	0.11992
1006.75699	0.11768
1005.47122	0.11526
1004.18545	0.11270
1002.89968	0.11002
1001.61392	0.10726
1000.32815	0.10439
999.04238	0.10140
997.75661	0.09832
996.47084	0.09520
995.18507	0.09208
993.89930	0.08895
992.61353	0.08583
991.32777	0.08280
990.04200	0.07993
988.75623	0.07722
987.47046	0.07460
986.18469	0.07204
984.89892	0.06957
983.61315	0.06724
982.32738	0.06507
981.04161	0.06300
979.75585	0.06100
978.47008	0.05907
977.18431	0.05729
975.89854	0.05570
974.61277	0.05430
973.32700	0.05309
972.04123	0.05208
970.75546	0.05134
969.46970	0.05092
968.18393	0.05082
966.89816	0.05093
965.61239	0.05117
964.32662	0.05150
963.04085	0.05187
961.75508	0.05222
960.46931	0.05240
959.18354	0.05230
957.89778	0.05185
956.61201	0.05107
955.32624	0.05007
954.04047	0.04897
952.75470	0.04787
951.46893	0.04681
950.18316	0.04576
948.89739	0.04469
947.61163	0.04354
946.32586	0.04237
945.04009	0.04125
943.75432	0.04024
942.46855	0.03932
941.18278	0.03846
939.89701	0.03766
938.61124	0.03691
937.32547	0.03620
936.03971	0.03550
934.75394	0.03482
933.46817	0.03418
932.18240	0.03359
930.89663	0.03305
929.61086	0.03256
928.32509	0.03212
927.03932	0.03172
925.75356	0.03129
924.46779	0.03081
923.18202	0.03030
921.89625	0.02984
920.61048	0.02948
919.32471	0.02920
918.03894	0.02892
916.75317	0.02859
915.46740	0.02820
914.18164	0.02779
912.89587	0.02742
911.61010	0.02716
910.32433	0.02698
909.03856	0.02678
907.75279	0.02649
906.46702	0.02613
905.18125	0.02580
903.89549	0.02559
902.60972	0.02547
901.32395	0.02537
900.03818	0.02524
898.75241	0.02512
897.46664	0.02505
896.18087	0.02507
894.89510	0.02510
893.60933	0.02505
892.32357	0.02487
891.03780	0.02465
889.75203	0.02451
888.46626	0.02454
887.18049	0.02477
885.89472	0.02525
884.60895	0.02606
883.32318	0.02724
882.03742	0.02867
880.75165	0.03011
879.46588	0.03131
878.18011	0.03216
876.89434	0.03279
875.60857	0.03341
874.32280	0.03413
873.03703	0.03482
871.75126	0.03522
870.46550	0.03518
869.17973	0.03473
867.89396	0.03394
866.60819	0.03295
865.32242	0.03190
864.03665	0.03093
862.75088	0.03005
861.46511	0.02920
860.17935	0.02837
858.89358	0.02758
857.60781	0.02690
856.32204	0.02634
855.03627	0.02588
853.75050	0.02549
852.46473	0.02511
851.17896	0.02474
849.89319	0.02438
848.60743	0.02406
847.32166	0.02380
846.03589	0.02360
844.75012	0.02346
843.46435	0.02336
842.17858	0.02330
840.89281	0.02321
839.60704	0.02307
838.32128	0.02286
837.03551	0.02259
835.74974	0.02232
834.46397	0.02212
833.17820	0.02204
831.89243	0.02202
830.60666	0.02196
829.32089	0.02184
828.03512	0.02171
826.74936	0.02164
825.46359	0.02164
824.17782	0.02165
822.89205	0.02163
821.60628	0.02160
820.32051	0.02156
819.03474	0.02153
817.74897	0.02149
816.46321	0.02147
815.17744	0.02145
813.89167	0.02143
812.60590	0.02137
811.32013	0.02127
810.03436	0.02117
808.74859	0.02114
807.46282	0.02117
806.17705	0.02123
804.89129	0.02128
803.60552	0.02129
802.31975	0.02125
801.03398	0.02115
799.74821	0.02103
798.46244	0.02093
797.17667	0.02088
795.89090	0.02088
794.60513	0.02088
793.31937	0.02091
792.03360	0.02095
790.74783	0.02098
789.46206	0.02097
788.17629	0.02091
786.89052	0.02083
785.60475	0.02072
784.31898	0.02058
783.03322	0.02045
781.74745	0.02039
780.46168	0.02044
779.17591	0.02052
777.89014	0.02055
776.60437	0.02051
775.31860	0.02039
774.03283	0.02025
772.74706	0.02014
771.46130	0.02009
770.17553	0.02013
768.88976	0.02023
767.60399	0.02037
766.31822	0.02047
765.03245	0.02051
763.74668	0.02048
762.46091	0.02045
761.17515	0.02047
759.88938	0.02054
758.60361	0.02062
757.31784	0.02065
756.03207	0.02061
754.74630	0.02053
753.46053	0.02044
752.17476	0.02035
750.88899	0.02028
749.60323	0.02021
748.31746	0.02018
747.03169	0.02020
745.74592	0.02026
744.46015	0.02031
743.17438	0.02028
741.88861	0.02020
740.60284	0.02010
739.31708	0.02005
738.03131	0.02006
736.74554	0.02009
735.45977	0.02010
734.17400	0.02003
732.88823	0.01992
731.60246	0.01981
730.31669	0.01977
729.03092	0.01980
727.74516	0.01987
726.45939	0.01994
725.17362	0.02000
723.88785	0.02004
722.60208	0.02019
721.31631	0.02041
720.03054	0.02060
718.74477	0.02071
717.45901	0.02073
716.17324	0.02072
714.88747	0.02068
713.60170	0.02061
712.31593	0.02051
711.03016	0.02037
709.74439	0.02024
708.45862	0.02017
707.17285	0.02017
705.88709	0.02022
704.60132	0.02027
703.31555	0.02027
702.02978	0.02021
700.74401	0.02015
699.45824	0.02013
698.17247	0.02017
696.88670	0.02023
695.60094	0.02025
694.31517	0.02022
693.02940	0.02016
691.74363	0.02012
690.45786	0.02009
689.17209	0.02007
687.88632	0.02004
686.60055	0.01999
685.31478	0.01992
684.02902	0.01986
682.74325	0.01983
681.45748	0.01981
680.17171	0.01978
678.88594	0.01971
677.60017	0.01963
676.31440	0.01960
675.02863	0.01967
673.74287	0.01979
672.45710	0.01984
671.17133	0.01972
669.88556	0.01950
668.59979	0.01949
667.31402	0.01952
666.02825	0.01943
664.74248	0.01957
663.45671	0.01963
662.17095	0.01957
660.88518	0.01948
659.59941	0.01940
658.31364	0.01935
657.02787	0.01931
655.74210	0.01929
654.45633	0.01925
653.17056	0.01921
651.88480	0.01918
650.59903	0.01920
649.31326	0.01922
648.02749	0.01919
646.74172	0.01913
645.45595	0.01908
644.17018	0.01912
642.88441	0.01926
641.59864	0.01946
640.31288	0.01964
639.02711	0.01975
637.74134	0.01981
636.45557	0.01987
635.16980	0.01994
633.88403	0.02003
632.59826	0.02010
631.31249	0.02018
630.02673	0.02037
628.74096	0.02055
627.45519	0.02019
626.16942	0.02018
624.88365	0.02035
623.59788	0.02036
622.31211	0.02042
621.02634	0.02130
619.74057	0.02362
618.45481	0.02682
617.16904	0.02943
615.88327	0.03040
614.59750	0.03004
613.31173	0.02961
612.02596	0.03029
610.74019	0.03255
609.45442	0.03635
608.16866	0.04136
606.88289	0.04675
605.59712	0.05133
604.31135	0.05427
603.02558	0.05564
601.73981	0.05602
600.45404	0.05580
599.16827	0.05505
597.88250	0.05383
596.59674	0.05235
595.31097	0.05082
594.02520	0.04937
592.73943	0.04804
591.45366	0.04690
590.16789	0.04606
588.88212	0.04567
587.59635	0.04581
586.31059	0.04648
585.02482	0.04753
583.73905	0.04878
582.45328	0.05009
581.16751	0.05139
579.88174	0.05265
578.59597	0.05385
577.31020	0.05505
576.02443	0.05634
574.73867	0.05776
573.45290	0.05922
572.16713	0.06060
570.88136	0.06193
569.59559	0.06333
568.30982	0.06497
567.02405	0.06691
565.73828	0.06909
564.45251	0.07115
563.16675	0.07263
561.88098	0.07319
560.59521	0.07270
559.30944	0.07123
558.02367	0.06894
556.73790	0.06606
555.45213	0.06284
554.16636	0.05953
552.88060	0.05635
551.59483	0.05349
550.30906	0.05104
549.02329	0.04896
547.73752	0.04705
546.45175	0.04512
545.16598	0.04317
543.88021	0.04132
542.59444	0.03971
541.30868	0.03837
540.02291	0.03721
538.73714	0.03614
537.45137	0.03507
536.16560	0.03401
534.87983	0.03302
533.59406	0.03219
532.30829	0.03152
531.02253	0.03090
529.73676	0.03024
528.45099	0.02953
527.16522	0.02885
525.87945	0.02829
524.59368	0.02783
523.30791	0.02740
522.02214	0.02689
520.73637	0.02626
519.45061	0.02557
518.16484	0.02495
516.87907	0.02445
515.59330	0.02402
514.30753	0.02358
513.02176	0.02314
511.73599	0.02279
510.45022	0.02262
509.16446	0.02257
507.87869	0.02249
506.59292	0.02224
505.30715	0.02187
504.02138	0.02151
502.73561	0.02127
501.44984	0.02115
500.16407	0.02108
498.87830	0.02099
497.59254	0.02087
496.30677	0.02072
495.02100	0.02048
493.73523	0.02017
492.44946	0.01984
491.16369	0.01960
489.87792	0.01948
488.59215	0.01939
487.30639	0.01925
486.02062	0.01905
484.73485	0.01886
483.44908	0.01873
482.16331	0.01868
480.87754	0.01868
479.59177	0.01870
478.30600	0.01876
477.02023	0.01886
475.73447	0.01902
474.44870	0.01922
473.16293	0.01938
471.87716	0.01945
470.59139	0.01941
469.30562	0.01931
468.01985	0.01915
466.73408	0.01895
465.44832	0.01874
464.16255	0.01859
462.87678	0.01851
461.59101	0.01845
460.30524	0.01833
459.01947	0.01809
457.73370	0.01780
456.44793	0.01752
455.16216	0.01729
453.87640	0.01710
452.59063	0.01690
451.30486	0.01672
450.01909	0.01659
448.73332	0.01655
447.44755	0.01658
446.16178	0.01657
444.87601	0.01646
443.59025	0.01624
442.30448	0.01601
441.01871	0.01584
439.73294	0.01579
438.44717	0.01582
437.16140	0.01586
435.87563	0.01586
434.58986	0.01582
433.30409	0.01579
432.01833	0.01578
430.73256	0.01578
429.44679	0.01575
428.16102	0.01568
426.87525	0.01561
425.58948	0.01559
424.30371	0.01558
423.01794	0.01553
421.73218	0.01538
420.44641	0.01517
419.16064	0.01497
417.87487	0.01483
416.58910	0.01477
415.30333	0.01478
414.01756	0.01482
412.73179	0.01487
411.44602	0.01490
410.16026	0.01490
408.87449	0.01489
407.58872	0.01491
406.30295	0.01494
405.01718	0.01494
403.73141	0.01490
402.44564	0.01487
401.15987	0.01487
399.87411	0.01490
