3997.45528 0.03925
3996.16951 0.03957
3994.88374 0.03921
3993.59798 0.03856
3992.31221 0.03835
3991.02644 0.03872
3989.74067 0.03926
3988.45490 0.03955
3987.16913 0.03954
3985.88336 0.03943
3984.59759 0.03944
3983.31183 0.03969
3982.02606 0.04009
3980.74029 0.04046
3979.45452 0.04071
3978.16875 0.04087
3976.88298 0.04100
3975.59721 0.04101
3974.31144 0.04078
3973.02567 0.04028
3971.73991 0.03960
3970.45414 0.03885
3969.16837 0.03813
3967.88260 0.03751
3966.59683 0.03711
3965.31106 0.03699
3964.02529 0.03708
3962.73952 0.03729
3961.45376 0.03759
3960.16799 0.03798
3958.88222 0.03841
3957.59645 0.03869
3956.31068 0.03875
3955.02491 0.03873
3953.73914 0.03875
3952.45337 0.03880
3951.16760 0.03888
3949.88184 0.03902
3948.59607 0.03928
3947.31030 0.03956
3946.02453 0.03981
3944.73876 0.04001
3943.45299 0.04013
3942.16722 0.04001
3940.88145 0.03957
3939.59569 0.03906
3938.30992 0.03887
3937.02415 0.03908
3935.73838 0.03940
3934.45261 0.03949
3933.16684 0.03937
3931.88107 0.03918
3930.59530 0.03888
3929.30953 0.03842
3928.02377 0.03802
3926.73800 0.03793
3925.45223 0.03803
3924.16646 0.03807
3922.88069 0.03809
3921.59492 0.03834
3920.30915 0.03882
3919.02338 0.03925
3917.73762 0.03927
3916.45185 0.03870
3915.16608 0.03770
3913.88031 0.03681
3912.59454 0.03658
3911.30877 0.03707
3910.02300 0.03774
3908.73723 0.03811
3907.45146 0.03825
3906.16570 0.03855
3904.87993 0.03909
3903.59416 0.03954
3902.30839 0.03974
3901.02262 0.03997
3899.73685 0.04056
3898.45108 0.04135
3897.16531 0.04194
3895.87955 0.04219
3894.59378 0.04229
3893.30801 0.04242
3892.02224 0.04240
3890.73647 0.04191
3889.45070 0.04096
3888.16493 0.03991
3886.87916 0.03895
3885.59339 0.03795
3884.30763 0.03687
3883.02186 0.03609
3881.73609 0.03611
3880.45032 0.03688
3879.16455 0.03789
3877.87878 0.03866
3876.59301 0.03912
3875.30724 0.03940
3874.02148 0.03956
3872.73571 0.03955
3871.44994 0.03933
3870.16417 0.03885
3868.87840 0.03836
3867.59263 0.03831
3866.30686 0.03886
3865.02109 0.03939
3863.73532 0.03909
3862.44956 0.03797
3861.16379 0.03679
3859.87802 0.03629
3858.59225 0.03645
3857.30648 0.03675
3856.02071 0.03679
3854.73494 0.03649
3853.44917 0.03594
3852.16341 0.03544
3850.87764 0.03546
3849.59187 0.03618
3848.30610 0.03714
3847.02033 0.03768
3845.73456 0.03754
3844.44879 0.03708
3843.16302 0.03674
3841.87725 0.03650
3840.59149 0.03611
3839.30572 0.03560
3838.01995 0.03542
3836.73418 0.03602
3835.44841 0.03727
3834.16264 0.03839
3832.87687 0.03867
3831.59110 0.03807
3830.30534 0.03721
3829.01957 0.03666
3827.73380 0.03661
3826.44803 0.03695
3825.16226 0.03758
3823.87649 0.03844
3822.59072 0.03924
3821.30495 0.03949
3820.01918 0.03889
3818.73342 0.03776
3817.44765 0.03667
3816.16188 0.03580
3814.87611 0.03493
3813.59034 0.03399
3812.30457 0.03331
3811.01880 0.03331
3809.73303 0.03405
3808.44726 0.03499
3807.16150 0.03545
3805.87573 0.03533
3804.58996 0.03518
3803.30419 0.03553
3802.01842 0.03633
3800.73265 0.03715
3799.44688 0.03768
3798.16111 0.03774
3796.87535 0.03724
3795.58958 0.03635
3794.30381 0.03562
3793.01804 0.03549
3791.73227 0.03589
3790.44650 0.03647
3789.16073 0.03688
3787.87496 0.03706
3786.58919 0.03701
3785.30343 0.03682
3784.01766 0.03662
3782.73189 0.03654
3781.44612 0.03661
3780.16035 0.03676
3778.87458 0.03691
3777.58881 0.03708
3776.30304 0.03726
3775.01728 0.03740
3773.73151 0.03739
3772.44574 0.03724
3771.15997 0.03703
3769.87420 0.03681
3768.58843 0.03658
3767.30266 0.03623
3766.01689 0.03572
3764.73112 0.03516
3763.44536 0.03479
3762.15959 0.03479
3760.87382 0.03506
3759.58805 0.03533
3758.30228 0.03544
3757.01651 0.03533
3755.73074 0.03508
3754.44497 0.03493
3753.15921 0.03519
3751.87344 0.03595
3750.58767 0.03685
3749.30190 0.03719
3748.01613 0.03654
3746.73036 0.03540
3745.44459 0.03459
3744.15882 0.03449
3742.87305 0.03497
3741.58729 0.03565
3740.30152 0.03612
3739.01575 0.03617
3737.72998 0.03597
3736.44421 0.03594
3735.15844 0.03636
3733.87267 0.03703
3732.58690 0.03734
3731.30114 0.03681
3730.01537 0.03570
3728.72960 0.03481
3727.44383 0.03452
3726.15806 0.03452
3724.87229 0.03437
3723.58652 0.03403
3722.30075 0.03381
3721.01498 0.03403
3719.72922 0.03472
3718.44345 0.03562
3717.15768 0.03620
3715.87191 0.03612
3714.58614 0.03553
3713.30037 0.03497
3712.01460 0.03482
3710.72883 0.03495
3709.44307 0.03497
3708.15730 0.03468
3706.87153 0.03424
3705.58576 0.03394
3704.29999 0.03388
3703.01422 0.03388
3701.72845 0.03372
3700.44268 0.03322
3699.15691 0.03236
3697.87115 0.03144
3696.58538 0.03096
3695.29961 0.03123
3694.01384 0.03219
3692.72807 0.03360
3691.44230 0.03498
3690.15653 0.03586
3688.87076 0.03604
3687.58500 0.03552
3686.29923 0.03450
3685.01346 0.03326
3683.72769 0.03207
3682.44192 0.03128
3681.15615 0.03134
3679.87038 0.03229
3678.58461 0.03377
3677.29884 0.03533
3676.01308 0.03659
3674.72731 0.03731
3673.44154 0.03744
3672.15577 0.03719
3670.87000 0.03679
3669.58423 0.03626
3668.29846 0.03543
3667.01269 0.03426
3665.72693 0.03315
3664.44116 0.03286
3663.15539 0.03377
3661.86962 0.03544
3660.58385 0.03698
3659.29808 0.03778
3658.01231 0.03775
3656.72654 0.03705
3655.44077 0.03592
3654.15501 0.03491
3652.86924 0.03452
3651.58347 0.03471
3650.29770 0.03498
3649.01193 0.03503
3647.72616 0.03518
3646.44039 0.03586
3645.15462 0.03690
3643.86886 0.03758
3642.58309 0.03740
3641.29732 0.03661
3640.01155 0.03594
3638.72578 0.03586
3637.44001 0.03623
3636.15424 0.03672
3634.86847 0.03735
3633.58270 0.03846
3632.29694 0.04007
3631.01117 0.04153
3629.72540 0.04199
3628.43963 0.04134
3627.15386 0.04042
3625.86809 0.04014
3624.58232 0.04055
3623.29655 0.04096
3622.01079 0.04088
3620.72502 0.04045
3619.43925 0.04012
3618.15348 0.04020
3616.86771 0.04066
3615.58194 0.04118
3614.29617 0.04139
3613.01040 0.04118
3611.72463 0.04088
3610.43887 0.04093
3609.15310 0.04133
3607.86733 0.04163
3606.58156 0.04149
3605.29579 0.04109
3604.01002 0.04086
3602.72425 0.04104
3601.43848 0.04155
3600.15272 0.04207
3598.86695 0.04236
3597.58118 0.04242
3596.29541 0.04239
3595.00964 0.04227
3593.72387 0.04201
3592.43810 0.04193
3591.15233 0.04250
3589.86656 0.04375
3588.58080 0.04508
3587.29503 0.04576
3586.00926 0.04558
3584.72349 0.04495
3583.43772 0.04455
3582.15195 0.04462
3580.86618 0.04491
3579.58041 0.04508
3578.29464 0.04515
3577.00888 0.04552
3575.72311 0.04640
3574.43734 0.04750
3573.15157 0.04823
3571.86580 0.04833
3570.58003 0.04801
3569.29426 0.04762
3568.00849 0.04728
3566.72273 0.04689
3565.43696 0.04650
3564.15119 0.04646
3562.86542 0.04707
3561.57965 0.04815
3560.29388 0.04905
3559.00811 0.04929
3557.72234 0.04907
3556.43657 0.04910
3555.15081 0.04980
3553.86504 0.05078
3552.57927 0.05122
3551.29350 0.05074
3550.00773 0.04982
3548.72196 0.04935
3547.43619 0.04982
3546.15042 0.05093
3544.86466 0.05196
3543.57889 0.05247
3542.29312 0.05246
3541.00735 0.05216
3539.72158 0.05176
3538.43581 0.05137
3537.15004 0.05115
3535.86427 0.05127
3534.57850 0.05191
3533.29274 0.05317
3532.00697 0.05486
3530.72120 0.05645
3529.43543 0.05739
3528.14966 0.05747
3526.86389 0.05692
3525.57812 0.05617
3524.29235 0.05546
3523.00659 0.05482
3521.72082 0.05415
3520.43505 0.05360
3519.14928 0.05354
3517.86351 0.05429
3516.57774 0.05563
3515.29197 0.05687
3514.00620 0.05737
3512.72043 0.05715
3511.43467 0.05677
3510.14890 0.05681
3508.86313 0.05736
3507.57736 0.05795
3506.29159 0.05799
3505.00582 0.05734
3503.72005 0.05652
3502.43428 0.05621
3501.14852 0.05664
3499.86275 0.05751
3498.57698 0.05847
3497.29121 0.05949
3496.00544 0.06068
3494.71967 0.06194
3493.43390 0.06289
3492.14813 0.06319
3490.86236 0.06280
3489.57660 0.06202
3488.29083 0.06123
3487.00506 0.06070
3485.71929 0.06042
3484.43352 0.06030
3483.14775 0.06025
3481.86198 0.06027
3480.57621 0.06035
3479.29045 0.06054
3478.00468 0.06090
3476.71891 0.06136
3475.43314 0.06170
3474.14737 0.06162
3472.86160 0.06106
3471.57583 0.06026
3470.29006 0.05962
3469.00429 0.05941
3467.71853 0.05972
3466.43276 0.06042
3465.14699 0.06129
3463.86122 0.06205
3462.57545 0.06247
3461.28968 0.06258
3460.00391 0.06255
3458.71814 0.06263
3457.43238 0.06296
3456.14661 0.06351
3454.86084 0.06409
3453.57507 0.06452
3452.28930 0.06478
3451.00353 0.06500
3449.71776 0.06519
3448.43199 0.06523
3447.14622 0.06504
3445.86046 0.06482
3444.57469 0.06473
3443.28892 0.06476
3442.00315 0.06469
3440.71738 0.06434
3439.43161 0.06380
3438.14584 0.06338
3436.86007 0.06351
3435.57431 0.06443
3434.28854 0.06588
3433.00277 0.06718
3431.71700 0.06773
3430.43123 0.06745
3429.14546 0.06676
3427.85969 0.06619
3426.57392 0.06619
3425.28815 0.06693
3424.00239 0.06815
3422.71662 0.06924
3421.43085 0.06962
3420.14508 0.06920
3418.85931 0.06838
3417.57354 0.06765
3416.28777 0.06726
3415.00200 0.06720
3413.71624 0.06737
3412.43047 0.06765
3411.14470 0.06799
3409.85893 0.06839
3408.57316 0.06877
3407.28739 0.06899
3406.00162 0.06891
3404.71585 0.06866
3403.43008 0.06857
3402.14432 0.06884
3400.85855 0.06930
3399.57278 0.06963
3398.28701 0.06980
3397.00124 0.06995
3395.71547 0.07016
3394.42970 0.07036
3393.14393 0.07045
3391.85817 0.07050
3390.57240 0.07064
3389.28663 0.07086
3388.00086 0.07098
3386.71509 0.07096
3385.42932 0.07100
3384.14355 0.07132
3382.85778 0.07203
3381.57201 0.07301
3380.28625 0.07402
3379.00048 0.07474
3377.71471 0.07487
3376.42894 0.07442
3375.14317 0.07384
3373.85740 0.07361
3372.57163 0.07387
3371.28586 0.07427
3370.00010 0.07436
3368.71433 0.07390
3367.42856 0.07297
3366.14279 0.07190
3364.85702 0.07118
3363.57125 0.07113
3362.28548 0.07172
3360.99971 0.07250
3359.71394 0.07301
3358.42818 0.07312
3357.14241 0.07305
3355.85664 0.07300
3354.57087 0.07297
3353.28510 0.07284
3351.99933 0.07260
3350.71356 0.07240
3349.42779 0.07230
3348.14202 0.07222
3346.85626 0.07209
3345.57049 0.07206
3344.28472 0.07242
3342.99895 0.07324
3341.71318 0.07413
3340.42741 0.07450
3339.14164 0.07415
3337.85587 0.07344
3336.57011 0.07291
3335.28434 0.07283
3333.99857 0.07317
3332.71280 0.07378
3331.42703 0.07442
3330.14126 0.07487
3328.85549 0.07502
3327.56972 0.07499
3326.28395 0.07499
3324.99819 0.07512
3323.71242 0.07532
3322.42665 0.07552
3321.14088 0.07575
3319.85511 0.07603
3318.56934 0.07630
3317.28357 0.07643
3315.99780 0.07633
3314.71204 0.07614
3313.42627 0.07606
3312.14050 0.07615
3310.85473 0.07633
3309.56896 0.07650
3308.28319 0.07667
3306.99742 0.07685
3305.71165 0.07699
3304.42588 0.07696
3303.14012 0.07666
3301.85435 0.07616
3300.56858 0.07572
3299.28281 0.07560
3297.99704 0.07583
3296.71127 0.07613
3295.42550 0.07626
3294.13973 0.07621
3292.85397 0.07614
3291.56820 0.07621
3290.28243 0.07640
3288.99666 0.07655
3287.71089 0.07644
3286.42512 0.07609
3285.13935 0.07573
3283.85358 0.07558
3282.56781 0.07569
3281.28205 0.07591
3279.99628 0.07602
3278.71051 0.07577
3277.42474 0.07513
3276.13897 0.07437
3274.85320 0.07391
3273.56743 0.07403
3272.28166 0.07461
3270.99590 0.07529
3269.71013 0.07572
3268.42436 0.07573
3267.13859 0.07529
3265.85282 0.07458
3264.56705 0.07396
3263.28128 0.07383
3261.99551 0.07420
3260.70974 0.07464
3259.42398 0.07467
3258.13821 0.07426
3256.85244 0.07379
3255.56667 0.07361
3254.28090 0.07367
3252.99513 0.07377
3251.70936 0.07378
3250.42359 0.07379
3249.13783 0.07396
3247.85206 0.07435
3246.56629 0.07483
3245.28052 0.07516
3243.99475 0.07516
3242.70898 0.07485
3241.42321 0.07445
3240.13744 0.07421
3238.85167 0.07422
3237.56591 0.07435
3236.28014 0.07438
3234.99437 0.07413
3233.70860 0.07352
3232.42283 0.07255
3231.13706 0.07147
3229.85129 0.07070
3228.56552 0.07057
3227.27976 0.07094
3225.99399 0.07128
3224.70822 0.07126
3223.42245 0.07094
3222.13668 0.07060
3220.85091 0.07041
3219.56514 0.07037
3218.27937 0.07052
3216.99360 0.07088
3215.70784 0.07125
3214.42207 0.07135
3213.13630 0.07107
3211.85053 0.07061
3210.56476 0.07026
3209.27899 0.07016
3207.99322 0.07026
3206.70745 0.07044
3205.42169 0.07074
3204.13592 0.07111
3202.85015 0.07129
3201.56438 0.07096
3200.27861 0.07019
3198.99284 0.06947
3197.70707 0.06917
3196.42130 0.06921
3195.13553 0.06927
3193.84977 0.06920
3192.56400 0.06903
3191.27823 0.06875
3189.99246 0.06831
3188.70669 0.06781
3187.42092 0.06759
3186.13515 0.06782
3184.84938 0.06826
3183.56362 0.06841
3182.27785 0.06806
3180.99208 0.06747
3179.70631 0.06704
3178.42054 0.06696
3177.13477 0.06716
3175.84900 0.06749
3174.56323 0.06774
3173.27746 0.06773
3171.99170 0.06746
3170.70593 0.06712
3169.42016 0.06686
3168.13439 0.06663
3166.84862 0.06629
3165.56285 0.06588
3164.27708 0.06557
3162.99131 0.06544
3161.70555 0.06543
3160.41978 0.06544
3159.13401 0.06554
3157.84824 0.06581
3156.56247 0.06616
3155.27670 0.06638
3153.99093 0.06629
3152.70516 0.06589
3151.41939 0.06535
3150.13363 0.06485
3148.84786 0.06455
3147.56209 0.06452
3146.27632 0.06466
3144.99055 0.06480
3143.70478 0.06474
3142.41901 0.06441
3141.13324 0.06396
3139.84748 0.06359
3138.56171 0.06345
3137.27594 0.06349
3135.99017 0.06357
3134.70440 0.06357
3133.41863 0.06342
3132.13286 0.06307
3130.84709 0.06253
3129.56132 0.06199
3128.27556 0.06177
3126.98979 0.06202
3125.70402 0.06249
3124.41825 0.06278
3123.13248 0.06271
3121.84671 0.06250
3120.56094 0.06238
3119.27517 0.06226
3117.98940 0.06188
3116.70364 0.06123
3115.41787 0.06067
3114.13210 0.06061
3112.84633 0.06101
3111.56056 0.06145
3110.27479 0.06147
3108.98902 0.06099
3107.70325 0.06024
3106.41749 0.05953
3105.13172 0.05899
3103.84595 0.05867
3102.56018 0.05862
3101.27441 0.05901
3099.98864 0.05982
3098.70287 0.06078
3097.41710 0.06145
3096.13133 0.06155
3094.84557 0.06116
3093.55980 0.06049
3092.27403 0.05984
3090.98826 0.05942
3089.70249 0.05936
3088.41672 0.05950
3087.13095 0.05957
3085.84518 0.05946
3084.55942 0.05929
3083.27365 0.05932
3081.98788 0.05963
3080.70211 0.06003
3079.41634 0.06021
3078.13057 0.05999
3076.84480 0.05946
3075.55903 0.05892
3074.27326 0.05867
3072.98750 0.05881
3071.70173 0.05915
3070.41596 0.05948
3069.13019 0.05975
3067.84442 0.06006
3066.55865 0.06042
3065.27288 0.06069
3063.98711 0.06069
3062.70135 0.06042
3061.41558 0.06003
3060.12981 0.05962
3058.84404 0.05923
3057.55827 0.05881
3056.27250 0.05839
3054.98673 0.05805
3053.70096 0.05784
3052.41519 0.05771
3051.12943 0.05758
3049.84366 0.05745
3048.55789 0.05743
3047.27212 0.05761
3045.98635 0.05793
3044.70058 0.05812
3043.41481 0.05794
3042.12904 0.05741
3040.84328 0.05682
3039.55751 0.05644
3038.27174 0.05629
3036.98597 0.05625
3035.70020 0.05618
3034.41443 0.05604
3033.12866 0.05585
3031.84289 0.05564
3030.55712 0.05550
3029.27136 0.05551
3027.98559 0.05564
3026.69982 0.05580
3025.41405 0.05588
3024.12828 0.05589
3022.84251 0.05586
3021.55674 0.05583
3020.27097 0.05576
3018.98521 0.05557
3017.69944 0.05525
3016.41367 0.05493
3015.12790 0.05472
3013.84213 0.05461
3012.55636 0.05448
3011.27059 0.05429
3009.98482 0.05416
3008.69905 0.05425
3007.41329 0.05448
3006.12752 0.05459
3004.84175 0.05439
3003.55598 0.05398
3002.27021 0.05364
3000.98444 0.05352
2999.69867 0.05356
2998.41290 0.05370
2997.12714 0.05381
2995.84137 0.05376
2994.55560 0.05349
2993.26983 0.05313
2991.98406 0.05284
2990.69829 0.05260
2989.41252 0.05231
2988.12675 0.05206
2986.84098 0.05209
2985.55522 0.05254
2984.26945 0.05330
2982.98368 0.05399
2981.69791 0.05426
2980.41214 0.05404
2979.12637 0.05363
2977.84060 0.05349
2976.55483 0.05383
2975.26907 0.05452
2973.98330 0.05531
2972.69753 0.05602
2971.41176 0.05654
2970.12599 0.05686
2968.84022 0.05705
2967.55445 0.05717
2966.26868 0.05724
2964.98291 0.05723
2963.69715 0.05719
2962.41138 0.05714
2961.12561 0.05698
2959.83984 0.05661
2958.55407 0.05613
2957.26830 0.05590
2955.98253 0.05623
2954.69676 0.05712
2953.41100 0.05836
2952.12523 0.05969
2950.83946 0.06086
2949.55369 0.06160
2948.26792 0.06179
2946.98215 0.06160
2945.69638 0.06135
2944.41061 0.06127
2943.12484 0.06136
2941.83908 0.06148
2940.55331 0.06144
2939.26754 0.06112
2937.98177 0.06054
2936.69600 0.05987
2935.41023 0.05925
2934.12446 0.05867
2932.83869 0.05805
2931.55293 0.05738
2930.26716 0.05672
2928.98139 0.05596
2927.69562 0.05486
2926.40985 0.05308
2925.12408 0.05046
2923.83831 0.04706
2922.55254 0.04301
2921.26677 0.03852
2919.98101 0.03398
2918.69524 0.03015
2917.40947 0.02793
2916.12370 0.02797
2914.83793 0.03023
2913.55216 0.03409
2912.26639 0.03861
2910.98062 0.04298
2909.69486 0.04662
2908.40909 0.04924
2907.12332 0.05093
2905.83755 0.05203
2904.55178 0.05287
2903.26601 0.05343
2901.98024 0.05355
2900.69447 0.05324
2899.40870 0.05283
2898.12294 0.05264
2896.83717 0.05271
2895.55140 0.05280
2894.26563 0.05283
2892.97986 0.05291
2891.69409 0.05316
2890.40832 0.05350
2889.12255 0.05373
2887.83678 0.05375
2886.55102 0.05368
2885.26525 0.05371
2883.97948 0.05388
2882.69371 0.05411
2881.40794 0.05433
2880.12217 0.05451
2878.83640 0.05456
2877.55063 0.05439
2876.26487 0.05401
2874.97910 0.05365
2873.69333 0.05355
2872.40756 0.05379
2871.12179 0.05427
2869.83602 0.05482
2868.55025 0.05523
2867.26448 0.05530
2865.97871 0.05490
2864.69295 0.05409
2863.40718 0.05305
2862.12141 0.05201
2860.83564 0.05110
2859.54987 0.05033
2858.26410 0.04952
2856.97833 0.04832
2855.69256 0.04638
2854.40680 0.04354
2853.12103 0.03991
2851.83526 0.03592
2850.54949 0.03252
2849.26372 0.03092
2847.97795 0.03191
2846.69218 0.03510
2845.40641 0.03916
2844.12064 0.04267
2842.83488 0.04498
2841.54911 0.04624
2840.26334 0.04695
2838.97757 0.04749
2837.69180 0.04795
2836.40603 0.04829
2835.12026 0.04843
2833.83449 0.04842
2832.54873 0.04842
2831.26296 0.04848
2829.97719 0.04855
2828.69142 0.04850
2827.40565 0.04828
2826.11988 0.04793
2824.83411 0.04754
2823.54834 0.04715
2822.26257 0.04675
2820.97681 0.04640
2819.69104 0.04620
2818.40527 0.04617
2817.11950 0.04617
2815.83373 0.04607
2814.54796 0.04589
2813.26219 0.04578
2811.97642 0.04575
2810.69066 0.04561
2809.40489 0.04529
2808.11912 0.04493
2806.83335 0.04473
2805.54758 0.04476
2804.26181 0.04486
2802.97604 0.04496
2801.69027 0.04502
2800.40450 0.04503
2799.11874 0.04487
2797.83297 0.04455
2796.54720 0.04420
2795.26143 0.04395
2793.97566 0.04381
2792.68989 0.04372
2791.40412 0.04364
2790.11835 0.04357
2788.83259 0.04349
2787.54682 0.04338
2786.26105 0.04330
2784.97528 0.04335
2783.68951 0.04358
2782.40374 0.04388
2781.11797 0.04412
2779.83220 0.04424
2778.54643 0.04429
2777.26067 0.04427
2775.97490 0.04414
2774.68913 0.04380
2773.40336 0.04325
2772.11759 0.04267
2770.83182 0.04227
2769.54605 0.04210
2768.26028 0.04203
2766.97452 0.04199
2765.68875 0.04202
2764.40298 0.04216
2763.11721 0.04232
2761.83144 0.04235
2760.54567 0.04226
2759.25990 0.04217
2757.97413 0.04218
2756.68836 0.04225
2755.40260 0.04228
2754.11683 0.04224
2752.83106 0.04211
2751.54529 0.04196
2750.25952 0.04182
2748.97375 0.04169
2747.68798 0.04148
2746.40221 0.04115
2745.11645 0.04076
2743.83068 0.04046
2742.54491 0.04039
2741.25914 0.04060
2739.97337 0.04096
2738.68760 0.04126
2737.40183 0.04133
2736.11606 0.04119
2734.83029 0.04101
2733.54453 0.04094
2732.25876 0.04093
2730.97299 0.04087
2729.68722 0.04072
2728.40145 0.04059
2727.11568 0.04056
2725.82991 0.04058
2724.54414 0.04056
2723.25838 0.04050
2721.97261 0.04043
2720.68684 0.04037
2719.40107 0.04031
2718.11530 0.04030
2716.82953 0.04038
2715.54376 0.04052
2714.25799 0.04060
2712.97222 0.04053
2711.68646 0.04034
2710.40069 0.04014
2709.11492 0.03999
2707.82915 0.03989
2706.54338 0.03979
2705.25761 0.03971
2703.97184 0.03962
2702.68607 0.03951
2701.40031 0.03936
2700.11454 0.03921
2698.82877 0.03909
2697.54300 0.03907
2696.25723 0.03920
2694.97146 0.03947
2693.68569 0.03978
2692.39992 0.04002
2691.11415 0.04009
2689.82839 0.03999
2688.54262 0.03981
2687.25685 0.03972
2685.97108 0.03977
2684.68531 0.03984
2683.39954 0.03976
2682.11377 0.03948
2680.82800 0.03906
2679.54224 0.03860
2678.25647 0.03823
2676.97070 0.03805
2675.68493 0.03806
2674.39916 0.03817
2673.11339 0.03828
2671.82762 0.03833
2670.54185 0.03834
2669.25608 0.03830
2667.97032 0.03826
2666.68455 0.03822
2665.39878 0.03818
2664.11301 0.03811
2662.82724 0.03809
2661.54147 0.03817
2660.25570 0.03834
2658.96993 0.03846
2657.68417 0.03839
2656.39840 0.03816
2655.11263 0.03792
2653.82686 0.03771
2652.54109 0.03746
2651.25532 0.03711
2649.96955 0.03675
2648.68378 0.03650
2647.39801 0.03636
2646.11225 0.03628
2644.82648 0.03630
2643.54071 0.03646
2642.25494 0.03667
2640.96917 0.03675
2639.68340 0.03669
2638.39763 0.03658
2637.11186 0.03646
2635.82609 0.03628
2634.54033 0.03595
2633.25456 0.03547
2631.96879 0.03500
2630.68302 0.03481
2629.39725 0.03507
2628.11148 0.03559
2626.82571 0.03598
2625.53994 0.03603
2624.25418 0.03575
2622.96841 0.03531
2621.68264 0.03487
2620.39687 0.03457
2619.11110 0.03443
2617.82533 0.03430
2616.53956 0.03407
2615.25379 0.03380
2613.96802 0.03363
2612.68226 0.03353
2611.39649 0.03336
2610.11072 0.03315
2608.82495 0.03307
2607.53918 0.03324
2606.25341 0.03361
2604.96764 0.03392
2603.68187 0.03393
2602.39611 0.03359
2601.11034 0.03307
2599.82457 0.03266
2598.53880 0.03251
2597.25303 0.03250
2595.96726 0.03243
2594.68149 0.03225
2593.39572 0.03216
2592.10995 0.03241
2590.82419 0.03300
2589.53842 0.03350
2588.25265 0.03341
2586.96688 0.03274
2585.68111 0.03201
2584.39534 0.03173
2583.10957 0.03183
2581.82380 0.03185
2580.53804 0.03153
2579.25227 0.03104
2577.96650 0.03073
2576.68073 0.03078
2575.39496 0.03106
2574.10919 0.03137
2572.82342 0.03156
2571.53765 0.03159
2570.25188 0.03155
2568.96612 0.03162
2567.68035 0.03195
2566.39458 0.03241
2565.10881 0.03260
2563.82304 0.03227
2562.53727 0.03162
2561.25150 0.03111
2559.96573 0.03110
2558.67997 0.03150
2557.39420 0.03194
2556.10843 0.03205
2554.82266 0.03175
2553.53689 0.03129
2552.25112 0.03097
2550.96535 0.03094
2549.67958 0.03111
2548.39381 0.03126
2547.10805 0.03115
2545.82228 0.03082
2544.53651 0.03053
2543.25074 0.03052
2541.96497 0.03081
2540.67920 0.03115
2539.39343 0.03123
2538.10766 0.03092
2536.82190 0.03037
2535.53613 0.02986
2534.25036 0.02957
2532.96459 0.02953
2531.67882 0.02976
2530.39305 0.03016
2529.10728 0.03052
2527.82151 0.03056
2526.53574 0.03025
2525.24998 0.02974
2523.96421 0.02923
2522.67844 0.02887
2521.39267 0.02875
2520.10690 0.02890
2518.82113 0.02913
2517.53536 0.02924
2516.24959 0.02915
2514.96383 0.02896
2513.67806 0.02871
2512.39229 0.02843
2511.10652 0.02823
2509.82075 0.02831
2508.53498 0.02883
2507.24921 0.02963
2505.96344 0.03029
2504.67767 0.03044
2503.39191 0.03011
2502.10614 0.02966
2500.82037 0.02947
2499.53460 0.02959
2498.24883 0.02982
2496.96306 0.02987
2495.67729 0.02966
2494.39152 0.02934
2493.10576 0.02915
2491.81999 0.02913
2490.53422 0.02913
2489.24845 0.02897
2487.96268 0.02878
2486.67691 0.02881
2485.39114 0.02910
2484.10537 0.02950
2482.81960 0.02980
2481.53384 0.02997
2480.24807 0.02998
2478.96230 0.02974
2477.67653 0.02928
2476.39076 0.02880
2475.10499 0.02854
2473.81922 0.02860
2472.53345 0.02892
2471.24769 0.02939
2469.96192 0.02984
2468.67615 0.03004
2467.39038 0.02990
2466.10461 0.02959
2464.81884 0.02938
2463.53307 0.02932
2462.24730 0.02919
2460.96153 0.02876
2459.67577 0.02807
2458.39000 0.02743
2457.10423 0.02712
2455.81846 0.02718
2454.53269 0.02745
2453.24692 0.02775
2451.96115 0.02807
2450.67538 0.02836
2449.38962 0.02851
2448.10385 0.02833
2446.81808 0.02773
2445.53231 0.02690
2444.24654 0.02620
2442.96077 0.02593
2441.67500 0.02610
2440.38923 0.02644
2439.10346 0.02674
2437.81770 0.02702
2436.53193 0.02745
2435.24616 0.02797
2433.96039 0.02831
2432.67462 0.02826
2431.38885 0.02793
2430.10308 0.02755
2428.81731 0.02726
2427.53155 0.02714
2426.24578 0.02718
2424.96001 0.02735
2423.67424 0.02756
2422.38847 0.02770
2421.10270 0.02773
2419.81693 0.02767
2418.53116 0.02755
2417.24539 0.02742
2415.95963 0.02732
2414.67386 0.02728
2413.38809 0.02728
2412.10232 0.02729
2410.81655 0.02730
2409.53078 0.02731
2408.24501 0.02732
2406.95924 0.02725
2405.67347 0.02705
2404.38771 0.02674
2403.10194 0.02643
2401.81617 0.02621
2400.53040 0.02611
2399.24463 0.02598
2397.95886 0.02599
2396.67309 0.02606
2395.38732 0.02619
2394.10156 0.02649
2392.81579 0.02696
2391.53002 0.02736
2390.24425 0.02750
2388.95848 0.02736
2387.67271 0.02713
2386.38694 0.02695
2385.10117 0.02688
2383.81540 0.02686
2382.52964 0.02685
2381.24387 0.02681
2379.95810 0.02671
2378.67233 0.02659
2377.38656 0.02658
2376.10079 0.02665
2374.81502 0.02663
2373.52925 0.02654
2372.24349 0.02646
2370.95772 0.02662
2369.67195 0.02675
2368.38618 0.02669
2367.10041 0.02650
2365.81464 0.02639
2364.52887 0.02621
2363.24310 0.02618
2361.95733 0.02651
2360.67157 0.02723
2359.38580 0.02772
2358.10003 0.02790
2356.81426 0.02789
2355.52849 0.02773
2354.24272 0.02748
2352.95695 0.02718
2351.67118 0.02722
2350.38542 0.02764
2349.09965 0.02783
2347.81388 0.02750
2346.52811 0.02737
2345.24234 0.02756
2343.95657 0.02748
2342.67080 0.02694
2341.38503 0.02702
2340.09926 0.02778
2338.81350 0.02766
2337.52773 0.02676
2336.24196 0.02690
2334.95619 0.02776
2333.67042 0.02745
2332.38465 0.02622
2331.09888 0.02642
2329.81311 0.02677
2328.52735 0.02577
2327.24158 0.02629
2325.95581 0.02780
2324.67004 0.02796
2323.38427 0.02822
2322.09850 0.02889
2320.81273 0.02831
2319.52696 0.02817
2318.24119 0.02833
2316.95543 0.02761
2315.66966 0.02723
2314.38389 0.02720
2313.09812 0.02708
2311.81235 0.02738
2310.52658 0.02741
2309.24081 0.02719
2307.95504 0.02704
2306.66928 0.02670
2305.38351 0.02649
2304.09774 0.02617
2302.81197 0.02557
2301.52620 0.02493
2300.24043 0.02440
2298.95466 0.02430
2297.66889 0.02450
2296.38312 0.02471
2295.09736 0.02472
2293.81159 0.02457
2292.52582 0.02455
2291.24005 0.02479
2289.95428 0.02513
2288.66851 0.02524
2287.38274 0.02489
2286.09697 0.02419
2284.81121 0.02351
2283.52544 0.02320
2282.23967 0.02331
2280.95390 0.02366
2279.66813 0.02397
2278.38236 0.02410
2277.09659 0.02401
2275.81082 0.02372
2274.52505 0.02336
2273.23929 0.02312
2271.95352 0.02309
2270.66775 0.02323
2269.38198 0.02349
2268.09621 0.02384
2266.81044 0.02412
2265.52467 0.02411
2264.23890 0.02370
2262.95314 0.02299
2261.66737 0.02215
2260.38160 0.02125
2259.09583 0.02047
2257.81006 0.02002
2256.52429 0.01998
2255.23852 0.02014
2253.95275 0.02021
2252.66698 0.01996
2251.38122 0.01945
2250.09545 0.01912
2248.80968 0.01933
2247.52391 0.01964
2246.23814 0.02020
2244.95237 0.02063
2243.66660 0.02061
2242.38083 0.02027
2241.09507 0.02008
2239.80930 0.02033
2238.52353 0.02082
2237.23776 0.02116
2235.95199 0.02122
2234.66622 0.02116
2233.38045 0.02096
2232.09468 0.02042
2230.80891 0.01947
2229.52315 0.01854
2228.23738 0.01825
2226.95161 0.01893
2225.66584 0.02015
2224.38007 0.02105
2223.09430 0.02106
2221.80853 0.02035
2220.52276 0.01950
2219.23700 0.01890
2217.95123 0.01867
2216.66546 0.01881
2215.37969 0.01923
2214.09392 0.01958
2212.80815 0.01928
2211.52238 0.01812
2210.23661 0.01660
2208.95084 0.01573
2207.66508 0.01610
2206.37931 0.01723
2205.09354 0.01795
2203.80777 0.01768
2202.52200 0.01696
2201.23623 0.01659
2199.95046 0.01665
2198.66469 0.01657
2197.37893 0.01601
2196.09316 0.01521
2194.80739 0.01463
2193.52162 0.01450
2192.23585 0.01481
2190.95008 0.01533
2189.66431 0.01570
2188.37854 0.01568
2187.09277 0.01536
2185.80701 0.01502
2184.52124 0.01494
2183.23547 0.01518
2181.94970 0.01555
2180.66393 0.01567
2179.37816 0.01537
2178.09239 0.01484
2176.80662 0.01427
2175.52085 0.01359
2174.23509 0.01270
2172.94932 0.01176
2171.66355 0.01105
2170.37778 0.01075
2169.09201 0.01100
2167.80624 0.01168
2166.52047 0.01220
2165.23470 0.01191
2163.94894 0.01093
2162.66317 0.01007
2161.37740 0.00975
2160.09163 0.00954
2158.80586 0.00893
2157.52009 0.00815
2156.23432 0.00772
2154.94855 0.00779
2153.66278 0.00820
2152.37702 0.00885
2151.09125 0.00971
2149.80548 0.01067
2148.51971 0.01159
2147.23394 0.01245
2145.94817 0.01316
2144.66240 0.01349
2143.37663 0.01329
2142.09087 0.01278
2140.80510 0.01242
2139.51933 0.01240
2138.23356 0.01246
2136.94779 0.01228
2135.66202 0.01194
2134.37625 0.01184
2133.09048 0.01227
2131.80471 0.01305
2130.51895 0.01367
2129.23318 0.01392
2127.94741 0.01407
2126.66164 0.01445
2125.37587 0.01501
2124.09010 0.01548
2122.80433 0.01571
2121.51856 0.01583
2120.23280 0.01605
2118.94703 0.01654
2117.66126 0.01724
2116.37549 0.01772
2115.08972 0.01760
2113.80395 0.01697
2112.51818 0.01639
2111.23241 0.01629
2109.94664 0.01656
2108.66088 0.01674
2107.37511 0.01653
2106.08934 0.01597
2104.80357 0.01532
2103.51780 0.01475
2102.23203 0.01430
2100.94626 0.01407
2099.66049 0.01467
2098.37473 0.01520
2097.08896 0.01542
2095.80319 0.01533
2094.51742 0.01501
2093.23165 0.01468
2091.94588 0.01452
2090.66011 0.01454
2089.37434 0.01459
2088.08857 0.01457
2086.80281 0.01452
2085.51704 0.01458
2084.23127 0.01481
2082.94550 0.01513
2081.65973 0.01538
2080.37396 0.01543
2079.08819 0.01523
2077.80242 0.01476
2076.51666 0.01410
2075.23089 0.01350
2073.94512 0.01333
2072.65935 0.01372
2071.37358 0.01437
2070.08781 0.01478
2068.80204 0.01469
2067.51627 0.01422
2066.23050 0.01377
2064.94474 0.01356
2063.65897 0.01352
2062.37320 0.01332
2061.08743 0.01272
2059.80166 0.01183
2058.51589 0.01099
2057.23012 0.01044
2055.94435 0.01013
2054.65859 0.00999
2053.37282 0.01021
2052.08705 0.01104
2050.80128 0.01235
2049.51551 0.01348
2048.22974 0.01376
2046.94397 0.01313
2045.65820 0.01215
2044.37243 0.01131
2043.08667 0.01068
2041.80090 0.01020
2040.51513 0.00987
2039.22936 0.00956
2037.94359 0.00899
2036.65782 0.00801
2035.37205 0.00698
2034.08628 0.00640
2032.80052 0.00646
2031.51475 0.00690
2030.22898 0.00731
2028.94321 0.00748
2027.65744 0.00748
2026.37167 0.00755
2025.08590 0.00784
2023.80013 0.00838
2022.51436 0.00914
2021.22860 0.00999
2019.94283 0.01068
2018.65706 0.01085
2017.37129 0.01042
2016.08552 0.00971
2014.79975 0.00915
2013.51398 0.00888
2012.22821 0.00883
2010.94245 0.00885
2009.65668 0.00890
2008.37091 0.00900
2007.08514 0.00929
2005.79937 0.00983
2004.51360 0.01031
2003.22783 0.01028
2001.94206 0.00960
2000.65629 0.00862
1999.37053 0.00790
1998.08476 0.00782
1996.79899 0.00828
1995.51322 0.00885
1994.22745 0.00919
1992.94168 0.00941
1991.65591 0.00990
1990.37014 0.01071
1989.08438 0.01130
1987.79861 0.01114
1986.51284 0.01033
1985.22707 0.00960
1983.94130 0.00950
1982.65553 0.01005
1981.36976 0.01085
1980.08399 0.01157
1978.79822 0.01208
1977.51246 0.01238
1976.22669 0.01259
1974.94092 0.01286
1973.65515 0.01321
1972.36938 0.01347
1971.08361 0.01362
1969.79784 0.01385
1968.51207 0.01433
1967.22631 0.01481
1965.94054 0.01485
1964.65477 0.01432
1963.36900 0.01355
1962.08323 0.01301
1960.79746 0.01286
1959.51169 0.01290
1958.22592 0.01286
1956.94015 0.01268
1955.65439 0.01251
1954.36862 0.01254
1953.08285 0.01279
1951.79708 0.01306
1950.51131 0.01310
1949.22554 0.01277
1947.93977 0.01228
1946.65400 0.01205
1945.36823 0.01236
1944.08247 0.01308
1942.79670 0.01382
1941.51093 0.01423
1940.22516 0.01415
1938.93939 0.01369
1937.65362 0.01318
1936.36785 0.01298
1935.08208 0.01327
1933.79632 0.01391
1932.51055 0.01450
1931.22478 0.01475
1929.93901 0.01465
1928.65324 0.01435
1927.36747 0.01403
1926.08170 0.01386
1924.79593 0.01398
1923.51016 0.01429
1922.22440 0.01451
1920.93863 0.01442
1919.65286 0.01405
1918.36709 0.01365
1917.08132 0.01340
1915.79555 0.01338
1914.50978 0.01363
1913.22401 0.01418
1911.93825 0.01490
1910.65248 0.01555
1909.36671 0.01586
1908.08094 0.01579
1906.79517 0.01549
1905.50940 0.01514
1904.22363 0.01485
1902.93786 0.01469
1901.65209 0.01477
1900.36633 0.01510
1899.08056 0.01552
1897.79479 0.01579
1896.50902 0.01576
1895.22325 0.01552
1893.93748 0.01527
1892.65171 0.01518
1891.36594 0.01526
1890.08018 0.01537
1888.79441 0.01535
1887.50864 0.01516
1886.22287 0.01494
1884.93710 0.01485
1883.65133 0.01498
1882.36556 0.01521
1881.07979 0.01532
1879.79402 0.01517
1878.50826 0.01483
1877.22249 0.01449
1875.93672 0.01429
1874.65095 0.01425
1873.36518 0.01436
1872.07941 0.01460
1870.79364 0.01489
1869.50787 0.01513
1868.22211 0.01525
1866.93634 0.01529
1865.65057 0.01537
1864.36480 0.01555
1863.07903 0.01583
1861.79326 0.01614
1860.50749 0.01635
1859.22172 0.01635
1857.93595 0.01611
1856.65019 0.01573
1855.36442 0.01538
1854.07865 0.01526
1852.79288 0.01544
1851.50711 0.01579
1850.22134 0.01599
1848.93557 0.01581
1847.64980 0.01531
1846.36404 0.01479
1845.07827 0.01455
1843.79250 0.01458
1842.50673 0.01472
1841.22096 0.01485
1839.93519 0.01492
1838.64942 0.01494
1837.36365 0.01489
1836.07788 0.01479
1834.79212 0.01471
1833.50635 0.01474
1832.22058 0.01490
1830.93481 0.01513
1829.64904 0.01535
1828.36327 0.01555
1827.07750 0.01580
1825.79173 0.01605
1824.50597 0.01618
1823.22020 0.01610
1821.93443 0.01589
1820.64866 0.01571
1819.36289 0.01563
1818.07712 0.01560
1816.79135 0.01555
1815.50558 0.01549
1814.21981 0.01544
1812.93405 0.01538
1811.64828 0.01528
1810.36251 0.01516
1809.07674 0.01509
1807.79097 0.01510
1806.50520 0.01515
1805.21943 0.01516
1803.93366 0.01512
1802.64790 0.01507
1801.36213 0.01504
1800.07636 0.01504
1798.79059 0.01507
1797.50482 0.01516
1796.21905 0.01530
1794.93328 0.01544
1793.64751 0.01555
1792.36174 0.01563
1791.07598 0.01565
1789.79021 0.01561
1788.50444 0.01550
1787.21867 0.01537
1785.93290 0.01527
1784.64713 0.01524
1783.36136 0.01527
1782.07559 0.01533
1780.78983 0.01539
1779.50406 0.01543
1778.21829 0.01545
1776.93252 0.01549
1775.64675 0.01559
1774.36098 0.01575
1773.07521 0.01588
1771.78944 0.01590
1770.50367 0.01585
1769.21791 0.01583
1767.93214 0.01588
1766.64637 0.01597
1765.36060 0.01606
1764.07483 0.01615
1762.78906 0.01619
1761.50329 0.01615
1760.21752 0.01606
1758.93176 0.01601
1757.64599 0.01602
1756.36022 0.01602
1755.07445 0.01600
1753.78868 0.01596
1752.50291 0.01594
1751.21714 0.01590
1749.93137 0.01584
1748.64560 0.01581
1747.35984 0.01584
1746.07407 0.01593
1744.78830 0.01603
1743.50253 0.01609
1742.21676 0.01610
1740.93099 0.01609
1739.64522 0.01611
1738.35945 0.01619
1737.07369 0.01638
1735.78792 0.01666
1734.50215 0.01687
1733.21638 0.01692
1731.93061 0.01684
1730.64484 0.01681
1729.35907 0.01689
1728.07330 0.01703
1726.78753 0.01717
1725.50177 0.01727
1724.21600 0.01736
1722.93023 0.01746
1721.64446 0.01764
1720.35869 0.01791
1719.07292 0.01823
1717.78715 0.01853
1716.50138 0.01876
1715.21561 0.01897
1713.92985 0.01920
1712.64408 0.01948
1711.35831 0.01985
1710.07254 0.02033
1708.78677 0.02090
1707.50100 0.02153
1706.21523 0.02218
1704.92946 0.02287
1703.64370 0.02370
1702.35793 0.02478
1701.07216 0.02598
1699.78639 0.02708
1698.50062 0.02803
1697.21485 0.02895
1695.92908 0.02986
1694.64331 0.03070
1693.35754 0.03152
1692.07178 0.03246
1690.78601 0.03349
1689.50024 0.03454
1688.21447 0.03563
1686.92870 0.03687
1685.64293 0.03825
1684.35716 0.03960
1683.07139 0.04072
1681.78563 0.04166
1680.49986 0.04255
1679.21409 0.04351
1677.92832 0.04458
1676.64255 0.04575
1675.35678 0.04690
1674.07101 0.04795
1672.78524 0.04897
1671.49947 0.05006
1670.21371 0.05122
1668.92794 0.05234
1667.64217 0.05335
1666.35640 0.05430
1665.07063 0.05526
1663.78486 0.05627
1662.49909 0.05723
1661.21332 0.05810
1659.92756 0.05885
1658.64179 0.05952
1657.35602 0.06019
1656.07025 0.06097
1654.78448 0.06190
1653.49871 0.06279
1652.21294 0.06340
1650.92717 0.06374
1649.64140 0.06406
1648.35564 0.06448
1647.06987 0.06490
1645.78410 0.06514
1644.49833 0.06518
1643.21256 0.06511
1641.92679 0.06502
1640.64102 0.06491
1639.35525 0.06476
1638.06949 0.06457
1636.78372 0.06427
1635.49795 0.06379
1634.21218 0.06310
1632.92641 0.06231
1631.64064 0.06151
1630.35487 0.06070
1629.06910 0.05983
1627.78333 0.05892
1626.49757 0.05804
1625.21180 0.05721
1623.92603 0.05639
1622.64026 0.05549
1621.35449 0.05453
1620.06872 0.05359
1618.78295 0.05276
1617.49718 0.05201
1616.21142 0.05124
1614.92565 0.05044
1613.63988 0.04970
1612.35411 0.04906
1611.06834 0.04849
1609.78257 0.04800
1608.49680 0.04758
1607.21103 0.04722
1605.92526 0.04691
1604.63950 0.04664
1603.35373 0.04643
1602.06796 0.04628
1600.78219 0.04618
1599.49642 0.04614
1598.21065 0.04613
1596.92488 0.04611
1595.63911 0.04610
1594.35335 0.04611
1593.06758 0.04615
1591.78181 0.04622
1590.49604 0.04629
1589.21027 0.04640
1587.92450 0.04657
1586.63873 0.04681
1585.35296 0.04708
1584.06719 0.04734
1582.78143 0.04755
1581.49566 0.04774
1580.20989 0.04797
1578.92412 0.04832
1577.63835 0.04888
1576.35258 0.04958
1575.06681 0.05027
1573.78104 0.05094
1572.49528 0.05166
1571.20951 0.05245
1569.92374 0.05323
1568.63797 0.05392
1567.35220 0.05454
1566.06643 0.05512
1564.78066 0.05568
1563.49489 0.05623
1562.20912 0.05681
1560.92336 0.05740
1559.63759 0.05792
1558.35182 0.05824
1557.06605 0.05841
1555.78028 0.05857
1554.49451 0.05876
1553.20874 0.05891
1551.92297 0.05897
1550.63721 0.05896
1549.35144 0.05888
1548.06567 0.05869
1546.77990 0.05840
1545.49413 0.05803
1544.20836 0.05763
1542.92259 0.05728
1541.63682 0.05706
1540.35105 0.05693
1539.06529 0.05682
1537.77952 0.05673
1536.49375 0.05676
1535.20798 0.05693
1533.92221 0.05715
1532.63644 0.05728
1531.35067 0.05729
1530.06490 0.05728
1528.77914 0.05732
1527.49337 0.05744
1526.20760 0.05762
1524.92183 0.05781
1523.63606 0.05803
1522.35029 0.05825
1521.06452 0.05846
1519.77875 0.05864
1518.49298 0.05888
1517.20722 0.05922
1515.92145 0.05963
1514.63568 0.06006
1513.34991 0.06049
1512.06414 0.06093
1510.77837 0.06145
1509.49260 0.06210
1508.20683 0.06288
1506.92107 0.06362
1505.63530 0.06414
1504.34953 0.06450
1503.06376 0.06485
1501.77799 0.06528
1500.49222 0.06573
1499.20645 0.06613
1497.92068 0.06646
1496.63491 0.06673
1495.34915 0.06694
1494.06338 0.06710
1492.77761 0.06726
1491.49184 0.06746
1490.20607 0.06771
1488.92030 0.06801
1487.63453 0.06839
1486.34876 0.06888
1485.06299 0.06946
1483.77723 0.07014
1482.49146 0.07091
1481.20569 0.07174
1479.91992 0.07257
1478.63415 0.07338
1477.34838 0.07407
1476.06261 0.07462
1474.77684 0.07508
1473.49108 0.07557
1472.20531 0.07619
1470.91954 0.07695
1469.63377 0.07778
1468.34800 0.07858
1467.06223 0.07928
1465.77646 0.07988
1464.49069 0.08049
1463.20492 0.08124
1461.91916 0.08221
1460.63339 0.08339
1459.34762 0.08469
1458.06185 0.08599
1456.77608 0.08714
1455.49031 0.08810
1454.20454 0.08893
1452.91877 0.08968
1451.63301 0.09034
1450.34724 0.09087
1449.06147 0.09130
1447.77570 0.09162
1446.48993 0.09177
1445.20416 0.09174
1443.91839 0.09157
1442.63262 0.09133
1441.34685 0.09102
1440.06109 0.09069
1438.77532 0.09037
1437.48955 0.09007
1436.20378 0.08984
1434.91801 0.08972
1433.63224 0.08979
1432.34647 0.09007
1431.06070 0.09053
1429.77494 0.09117
1428.48917 0.09197
1427.20340 0.09289
1425.91763 0.09385
1424.63186 0.09481
1423.34609 0.09577
1422.06032 0.09675
1420.77455 0.09778
1419.48878 0.09878
1418.20302 0.09968
1416.91725 0.10049
1415.63148 0.10127
1414.34571 0.10197
1413.05994 0.10253
1411.77417 0.10289
1410.48840 0.10301
1409.20263 0.10289
1407.91687 0.10254
1406.63110 0.10202
1405.34533 0.10137
1404.05956 0.10058
1402.77379 0.09963
1401.48802 0.09851
1400.20225 0.09721
1398.91648 0.09577
1397.63071 0.09422
1396.34495 0.09260
1395.05918 0.09090
1393.77341 0.08915
1392.48764 0.08739
1391.20187 0.08567
1389.91610 0.08398
1388.63033 0.08227
1387.34456 0.08053
1386.05880 0.07877
1384.77303 0.07704
1383.48726 0.07535
1382.20149 0.07368
1380.91572 0.07200
1379.62995 0.07030
1378.34418 0.06859
1377.05841 0.06688
1375.77264 0.06516
1374.48688 0.06340
1373.20111 0.06160
1371.91534 0.05982
1370.62957 0.05809
1369.34380 0.05646
1368.05803 0.05490
1366.77226 0.05343
1365.48649 0.05205
1364.20073 0.05075
1362.91496 0.04950
1361.62919 0.04830
1360.34342 0.04718
1359.05765 0.04617
1357.77188 0.04528
1356.48611 0.04451
1355.20034 0.04386
1353.91457 0.04328
1352.62881 0.04277
1351.34304 0.04229
1350.05727 0.04183
1348.77150 0.04138
1347.48573 0.04098
1346.19996 0.04063
1344.91419 0.04031
1343.62842 0.03999
1342.34266 0.03968
1341.05689 0.03938
1339.77112 0.03907
1338.48535 0.03876
1337.19958 0.03842
1335.91381 0.03806
1334.62804 0.03765
1333.34227 0.03718
1332.05650 0.03668
1330.77074 0.03620
1329.48497 0.03577
1328.19920 0.03538
1326.91343 0.03502
1325.62766 0.03467
1324.34189 0.03435
1323.05612 0.03406
1321.77035 0.03378
1320.48459 0.03346
1319.19882 0.03311
1317.91305 0.03277
1316.62728 0.03249
1315.34151 0.03225
1314.05574 0.03200
1312.76997 0.03167
1311.48420 0.03130
1310.19843 0.03097
1308.91267 0.03071
1307.62690 0.03049
1306.34113 0.03026
1305.05536 0.03001
1303.76959 0.02974
1302.48382 0.02951
1301.19805 0.02932
1299.91228 0.02915
1298.62652 0.02898
1297.34075 0.02880
1296.05498 0.02861
1294.76921 0.02844
1293.48344 0.02831
1292.19767 0.02821
1290.91190 0.02810
1289.62613 0.02794
1288.34036 0.02776
1287.05460 0.02760
1285.76883 0.02752
1284.48306 0.02751
1283.19729 0.02751
1281.91152 0.02748
1280.62575 0.02741
1279.33998 0.02732
1278.05421 0.02722
1276.76845 0.02713
1275.48268 0.02705
1274.19691 0.02694
1272.91114 0.02679
1271.62537 0.02663
1270.33960 0.02649
1269.05383 0.02643
1267.76806 0.02642
1266.48229 0.02640
1265.19653 0.02636
1263.91076 0.02631
1262.62499 0.02625
1261.33922 0.02620
1260.05345 0.02617
1258.76768 0.02614
1257.48191 0.02613
1256.19614 0.02613
1254.91037 0.02615
1253.62461 0.02614
1252.33884 0.02613
1251.05307 0.02612
1249.76730 0.02613
1248.48153 0.02617
1247.19576 0.02619
1245.90999 0.02618
1244.62422 0.02613
1243.33846 0.02606
1242.05269 0.02597
1240.76692 0.02588
1239.48115 0.02575
1238.19538 0.02559
1236.90961 0.02543
1235.62384 0.02528
1234.33807 0.02516
1233.05230 0.02503
1231.76654 0.02488
1230.48077 0.02469
1229.19500 0.02447
1227.90923 0.02424
1226.62346 0.02401
1225.33769 0.02376
1224.05192 0.02349
1222.76615 0.02322
1221.48039 0.02297
1220.19462 0.02273
1218.90885 0.02249
1217.62308 0.02225
1216.33731 0.02204
1215.05154 0.02193
1213.76577 0.02190
1212.48000 0.02190
1211.19423 0.02189
1209.90847 0.02186
1208.62270 0.02184
1207.33693 0.02185
1206.05116 0.02187
1204.76539 0.02186
1203.47962 0.02183
1202.19385 0.02179
1200.90808 0.02171
1199.62232 0.02157
1198.33655 0.02148
1197.05078 0.02134
1195.76501 0.02119
1194.47924 0.02106
1193.19347 0.02095
1191.90770 0.02084
1190.62193 0.02072
1189.33616 0.02059
1188.05040 0.02047
1186.76463 0.02037
1185.47886 0.02024
1184.19309 0.02008
1182.90732 0.01993
1181.62155 0.01982
1180.33578 0.01977
1179.05001 0.01977
1177.76425 0.01978
1176.47848 0.01978
1175.19271 0.01977
1173.90694 0.01975
1172.62117 0.01975
1171.33540 0.01978
1170.04963 0.01987
1168.76386 0.01996
1167.47809 0.02002
1166.19233 0.02003
1164.90656 0.02003
1163.62079 0.02006
1162.33502 0.02013
1161.04925 0.02022
1159.76348 0.02031
1158.47771 0.02038
1157.19194 0.02044
1155.90618 0.02051
1154.62041 0.02062
1153.33464 0.02073
1152.04887 0.02083
1150.76310 0.02096
1149.47733 0.02117
1148.19156 0.02150
1146.90579 0.02196
1145.62002 0.02249
1144.33426 0.02299
1143.04849 0.02345
1141.76272 0.02395
1140.47695 0.02454
1139.19118 0.02521
1137.90541 0.02593
1136.61964 0.02672
1135.33387 0.02765
1134.04811 0.02875
1132.76234 0.02998
1131.47657 0.03131
1130.19080 0.03280
1128.90503 0.03452
1127.61926 0.03651
1126.33349 0.03868
1125.04772 0.04092
1123.76195 0.04319
1122.47619 0.04557
1121.19042 0.04810
1119.90465 0.05080
1118.61888 0.05359
1117.33311 0.05640
1116.04734 0.05918
1114.76157 0.06188
1113.47580 0.06451
1112.19004 0.06709
1110.90427 0.06965
1109.61850 0.07221
1108.33273 0.07478
1107.04696 0.07733
1105.76119 0.07984
1104.47542 0.08222
1103.18965 0.08447
1101.90388 0.08662
1100.61812 0.08870
1099.33235 0.09073
1098.04658 0.09270
1096.76081 0.09460
1095.47504 0.09639
1094.18927 0.09807
1092.90350 0.09962
1091.61773 0.10106
1090.33197 0.10239
1089.04620 0.10362
1087.76043 0.10478
1086.47466 0.10595
1085.18889 0.10722
1083.90312 0.10860
1082.61735 0.11007
1081.33158 0.11160
1080.04581 0.11318
1078.76005 0.11482
1077.47428 0.11652
1076.18851 0.11830
1074.90274 0.12018
1073.61697 0.12218
1072.33120 0.12431
1071.04543 0.12656
1069.75966 0.12889
1068.47390 0.13124
1067.18813 0.13360
1065.90236 0.13605
1064.61659 0.13865
1063.33082 0.14140
1062.04505 0.14420
1060.75928 0.14692
1059.47351 0.14952
1058.18774 0.15206
1056.90198 0.15459
1055.61621 0.15707
1054.33044 0.15948
1053.04467 0.16184
1051.75890 0.16421
1050.47313 0.16668
1049.18736 0.16928
1047.90159 0.17194
1046.61583 0.17460
1045.33006 0.17720
1044.04429 0.17979
1042.75852 0.18241
1041.47275 0.18509
1040.18698 0.18784
1038.90121 0.19067
1037.61544 0.19350
1036.32967 0.19627
1035.04391 0.19897
1033.75814 0.20165
1032.47237 0.20434
1031.18660 0.20692
1029.90083 0.20931
1028.61506 0.21147
1027.32929 0.21345
1026.04352 0.21524
1024.75775 0.21681
1023.47199 0.21813
1022.18622 0.21918
1020.90045 0.21994
1019.61468 0.22041
1018.32891 0.22061
1017.04314 0.22055
1015.75737 0.22027
1014.47160 0.21975
1013.18584 0.21888
1011.90007 0.21762
1010.61430 0.21599
1009.32853 0.21402
1008.04276 0.21174
1006.75699 0.20916
1005.47122 0.20627
1004.18545 0.20312
1002.89968 0.19971
1001.61392 0.19607
1000.32815 0.19220
999.04238 0.18815
997.75661 0.18398
996.47084 0.17970
995.18507 0.17532
993.89930 0.17083
992.61353 0.16625
991.32777 0.16160
990.04200 0.15693
988.75623 0.15231
987.47046 0.14780
986.18469 0.14339
984.89892 0.13909
983.61315 0.13488
982.32738 0.13076
981.04161 0.12677
979.75585 0.12296
978.47008 0.11941
977.18431 0.11613
975.89854 0.11311
974.61277 0.11037
973.32700 0.10790
972.04123 0.10575
970.75546 0.10399
969.46970 0.10274
968.18393 0.10207
966.89816 0.10193
965.61239 0.10219
964.32662 0.10268
963.04085 0.10326
961.75508 0.10375
960.46931 0.10394
959.18354 0.10364
957.89778 0.10277
956.61201 0.10140
955.32624 0.09968
954.04047 0.09778
952.75470 0.09579
951.46893 0.09373
950.18316 0.09161
948.89739 0.08946
947.61163 0.08734
946.32586 0.08528
945.04009 0.08330
943.75432 0.08137
942.46855 0.07945
941.18278 0.07754
939.89701 0.07566
938.61124 0.07392
937.32547 0.07234
936.03971 0.07091
934.75394 0.06953
933.46817 0.06817
932.18240 0.06683
930.89663 0.06555
929.61086 0.06435
928.32509 0.06324
927.03932 0.06221
925.75356 0.06123
924.46779 0.06029
923.18202 0.05941
921.89625 0.05859
920.61048 0.05785
919.32471 0.05710
918.03894 0.05631
916.75317 0.05549
915.46740 0.05468
914.18164 0.05389
912.89587 0.05317
911.61010 0.05252
910.32433 0.05193
909.03856 0.05137
907.75279 0.05082
906.46702 0.05031
905.18125 0.04984
903.89549 0.04940
902.60972 0.04889
901.32395 0.04827
900.03818 0.04759
898.75241 0.04696
897.46664 0.04647
896.18087 0.04612
894.89510 0.04582
893.60933 0.04548
892.32357 0.04511
891.03780 0.04478
889.75203 0.04459
888.46626 0.04462
887.18049 0.04497
885.89472 0.04574
884.60895 0.04707
883.32318 0.04911
882.03742 0.05177
880.75165 0.05457
879.46588 0.05693
878.18011 0.05861
876.89434 0.05988
875.60857 0.06121
874.32280 0.06271
873.03703 0.06411
871.75126 0.06500
870.46550 0.06514
869.17973 0.06452
867.89396 0.06325
866.60819 0.06144
865.32242 0.05927
864.03665 0.05695
862.75088 0.05470
861.46511 0.05266
860.17935 0.05092
858.89358 0.04949
857.60781 0.04832
856.32204 0.04731
855.03627 0.04639
853.75050 0.04554
852.46473 0.04482
851.17896 0.04423
849.89319 0.04373
848.60743 0.04321
847.32166 0.04267
846.03589 0.04215
844.75012 0.04168
843.46435 0.04124
842.17858 0.04085
840.89281 0.04051
839.60704 0.04023
838.32128 0.03998
837.03551 0.03971
835.74974 0.03945
834.46397 0.03919
833.17820 0.03894
831.89243 0.03870
830.60666 0.03848
829.32089 0.03827
828.03512 0.03803
826.74936 0.03778
825.46359 0.03755
824.17782 0.03737
822.89205 0.03721
821.60628 0.03709
820.32051 0.03701
819.03474 0.03695
817.74897 0.03686
816.46321 0.03674
815.17744 0.03663
813.89167 0.03658
812.60590 0.03654
811.32013 0.03644
810.03436 0.03624
808.74859 0.03601
807.46282 0.03584
806.17705 0.03573
804.89129 0.03563
803.60552 0.03553
802.31975 0.03550
801.03398 0.03555
799.74821 0.03560
798.46244 0.03556
797.17667 0.03547
795.89090 0.03538
794.60513 0.03536
793.31937 0.03539
792.03360 0.03545
790.74783 0.03550
789.46206 0.03552
788.17629 0.03546
786.89052 0.03535
785.60475 0.03527
784.31898 0.03526
783.03322 0.03525
781.74745 0.03514
780.46168 0.03491
779.17591 0.03472
777.89014 0.03469
776.60437 0.03483
775.31860 0.03497
774.03283 0.03497
772.74706 0.03481
771.46130 0.03461
770.17553 0.03449
768.88976 0.03452
767.60399 0.03468
766.31822 0.03488
765.03245 0.03501
763.74668 0.03499
762.46091 0.03485
761.17515 0.03473
759.88938 0.03480
758.60361 0.03506
757.31784 0.03537
756.03207 0.03553
754.74630 0.03551
753.46053 0.03537
752.17476 0.03523
750.88899 0.03513
749.60323 0.03507
748.31746 0.03499
747.03169 0.03492
745.74592 0.03490
744.46015 0.03491
743.17438 0.03491
741.88861 0.03481
740.60284 0.03463
739.31708 0.03446
738.03131 0.03438
736.74554 0.03436
735.45977 0.03436
734.17400 0.03433
732.88823 0.03432
731.60246 0.03439
730.31669 0.03451
729.03092 0.03460
727.74516 0.03460
726.45939 0.03455
725.17362 0.03447
723.88785 0.03426
722.60208 0.03422
721.31631 0.03428
720.03054 0.03438
718.74477 0.03456
717.45901 0.03477
716.17324 0.03492
714.88747 0.03495
713.60170 0.03486
712.31593 0.03474
711.03016 0.03465
709.74439 0.03461
708.45862 0.03460
707.17285 0.03460
705.88709 0.03459
704.60132 0.03458
703.31555 0.03457
702.02978 0.03456
700.74401 0.03453
699.45824 0.03450
698.17247 0.03448
696.88670 0.03449
695.60094 0.03450
694.31517 0.03452
693.02940 0.03453
691.74363 0.03455
690.45786 0.03460
689.17209 0.03465
687.88632 0.03464
686.60055 0.03455
685.31478 0.03439
684.02902 0.03422
682.74325 0.03409
681.45748 0.03402
680.17171 0.03396
678.88594 0.03388
677.60017 0.03378
676.31440 0.03373
675.02863 0.03376
673.74287 0.03390
672.45710 0.03417
671.17133 0.03460
669.88556 0.03497
668.59979 0.03485
667.31402 0.03487
666.02825 0.03523
664.74248 0.03496
663.45671 0.03455
662.17095 0.03426
660.88518 0.03406
659.59941 0.03391
658.31364 0.03382
657.02787 0.03376
655.74210 0.03372
654.45633 0.03365
653.17056 0.03354
651.88480 0.03339
650.59903 0.03323
649.31326 0.03308
648.02749 0.03299
646.74172 0.03297
645.45595 0.03301
644.17018 0.03306
642.88441 0.03305
641.59864 0.03296
640.31288 0.03280
639.02711 0.03265
637.74134 0.03255
636.45557 0.03253
635.16980 0.03262
633.88403 0.03279
632.59826 0.03301
631.31249 0.03334
630.02673 0.03413
628.74096 0.03529
627.45519 0.03567
626.16942 0.03744
624.88365 0.04003
623.59788 0.04212
622.31211 0.04314
621.02634 0.04348
619.74057 0.04406
618.45481 0.04535
617.16904 0.04713
615.88327 0.04902
614.59750 0.05089
613.31173 0.05300
612.02596 0.05589
610.74019 0.05991
609.45442 0.06480
608.16866 0.06995
606.88289 0.07520
605.59712 0.08075
604.31135 0.08637
603.02558 0.09098
601.73981 0.09342
600.45404 0.09347
599.16827 0.09189
597.88250 0.08956
596.59674 0.08691
595.31097 0.08409
594.02520 0.08131
592.73943 0.07891
591.45366 0.07709
590.16789 0.07587
588.88212 0.07520
587.59635 0.07508
586.31059 0.07548
585.02482 0.07635
583.73905 0.07758
582.45328 0.07909
581.16751 0.08083
579.88174 0.08282
578.59597 0.08506
577.31020 0.08749
576.02443 0.08995
574.73867 0.09231
573.45290 0.09451
572.16713 0.09662
570.88136 0.09878
569.59559 0.10120
568.30982 0.10402
567.02405 0.10723
565.73828 0.11063
564.45251 0.11388
563.16675 0.11654
561.88098 0.11820
560.59521 0.11870
559.30944 0.11812
558.02367 0.11656
556.73790 0.11401
555.45213 0.11047
554.16636 0.10617
552.88060 0.10147
551.59483 0.09672
550.30906 0.09218
549.02329 0.08798
547.73752 0.08418
546.45175 0.08075
545.16598 0.07764
543.88021 0.07484
542.59444 0.07233
541.30868 0.07006
540.02291 0.06800
538.73714 0.06615
537.45137 0.06451
536.16560 0.06298
534.87983 0.06146
533.59406 0.05991
532.30829 0.05838
531.02253 0.05693
529.73676 0.05557
528.45099 0.05433
527.16522 0.05324
525.87945 0.05230
524.59368 0.05146
523.30791 0.05062
522.02214 0.04970
520.73637 0.04870
519.45061 0.04768
518.16484 0.04665
516.87907 0.04561
515.59330 0.04459
514.30753 0.04368
513.02176 0.04293
511.73599 0.04231
510.45022 0.04172
509.16446 0.04104
507.87869 0.04027
506.59292 0.03951
505.30715 0.03889
504.02138 0.03847
502.73561 0.03820
501.44984 0.03794
500.16407 0.03759
498.87830 0.03709
497.59254 0.03645
496.30677 0.03577
495.02100 0.03518
493.73523 0.03474
492.44946 0.03445
491.16369 0.03423
489.87792 0.03399
488.59215 0.03372
487.30639 0.03349
486.02062 0.03338
484.73485 0.03336
483.44908 0.03332
482.16331 0.03317
480.87754 0.03293
479.59177 0.03268
478.30600 0.03253
477.02023 0.03251
475.73447 0.03263
474.44870 0.03284
473.16293 0.03305
471.87716 0.03315
470.59139 0.03313
469.30562 0.03303
468.01985 0.03290
466.73408 0.03273
465.44832 0.03249
464.16255 0.03218
462.87678 0.03181
461.59101 0.03138
460.30524 0.03087
459.01947 0.03032
457.73370 0.02978
456.44793 0.02932
455.16216 0.02896
453.87640 0.02870
452.59063 0.02849
451.30486 0.02826
450.01909 0.02795
448.73332 0.02753
447.44755 0.02706
446.16178 0.02665
444.87601 0.02635
443.59025 0.02611
442.30448 0.02586
441.01871 0.02552
439.73294 0.02513
438.44717 0.02475
437.16140 0.02449
435.87563 0.02436
434.58986 0.02437
433.30409 0.02443
432.01833 0.02446
430.73256 0.02439
429.44679 0.02424
428.16102 0.02403
426.87525 0.02378
425.58948 0.02353
424.30371 0.02330
423.01794 0.02308
421.73218 0.02288
420.44641 0.02268
419.16064 0.02246
417.87487 0.02221
416.58910 0.02194
415.30333 0.02172
414.01756 0.02157
412.73179 0.02152
411.44602 0.02153
410.16026 0.02157
408.87449 0.02156
407.58872 0.02150
406.30295 0.02140
405.01718 0.02130
403.73141 0.02123
402.44564 0.02116
401.15987 0.02108
399.87411 0.02101
