3997.45528	0.04324
3996.16951	0.04328
3994.88374	0.04305
3993.59798	0.04247
3992.31221	0.04178
3991.02644	0.04127
3989.74067	0.04106
3988.45490	0.04108
3987.16913	0.04128
3985.88336	0.04171
3984.59759	0.04226
3983.31183	0.04264
3982.02606	0.04267
3980.74029	0.04255
3979.45452	0.04270
3978.16875	0.04324
3976.88298	0.04383
3975.59721	0.04402
3974.31144	0.04373
3973.02567	0.04333
3971.73991	0.04328
3970.45414	0.04375
3969.16837	0.04446
3967.88260	0.04489
3966.59683	0.04461
3965.31106	0.04368
3964.02529	0.04260
3962.73952	0.04184
3961.45376	0.04151
3960.16799	0.04143
3958.88222	0.04157
3957.59645	0.04204
3956.31068	0.04282
3955.02491	0.04358
3953.73914	0.04402
3952.45337	0.04411
3951.16760	0.04412
3949.88184	0.04428
3948.59607	0.04455
3947.31030	0.04473
3946.02453	0.04464
3944.73876	0.04428
3943.45299	0.04374
3942.16722	0.04317
3940.88145	0.04273
3939.59569	0.04255
3938.30992	0.04267
3937.02415	0.04300
3935.73838	0.04336
3934.45261	0.04360
3933.16684	0.04366
3931.88107	0.04359
3930.59530	0.04340
3929.30953	0.04306
3928.02377	0.04252
3926.73800	0.04178
3925.45223	0.04098
3924.16646	0.04042
3922.88069	0.04032
3921.59492	0.04083
3920.30915	0.04192
3919.02338	0.04331
3917.73762	0.04445
3916.45185	0.04487
3915.16608	0.04445
3913.88031	0.04346
3912.59454	0.04244
3911.30877	0.04180
3910.02300	0.04174
3908.73723	0.04216
3907.45146	0.04279
3906.16570	0.04330
3904.87993	0.04340
3903.59416	0.04299
3902.30839	0.04224
3901.02262	0.04156
3899.73685	0.04124
3898.45108	0.04127
3897.16531	0.04143
3895.87955	0.04168
3894.59378	0.04211
3893.30801	0.04265
3892.02224	0.04300
3890.73647	0.04294
3889.45070	0.04252
3888.16493	0.04199
3886.87916	0.04164
3885.59339	0.04160
3884.30763	0.04162
3883.02186	0.04137
3881.73609	0.04093
3880.45032	0.04071
3879.16455	0.04096
3877.87878	0.04146
3876.59301	0.04189
3875.30724	0.04203
3874.02148	0.04188
3872.73571	0.04154
3871.44994	0.04129
3870.16417	0.04140
3868.87840	0.04182
3867.59263	0.04206
3866.30686	0.04181
3865.02109	0.04130
3863.73532	0.04084
3862.44956	0.04054
3861.16379	0.04038
3859.87802	0.04044
3858.59225	0.04070
3857.30648	0.04102
3856.02071	0.04120
3854.73494	0.04126
3853.44917	0.04138
3852.16341	0.04152
3850.87764	0.04150
3849.59187	0.04136
3848.30610	0.04137
3847.02033	0.04161
3845.73456	0.04192
3844.44879	0.04203
3843.16302	0.04185
3841.87725	0.04146
3840.59149	0.04092
3839.30572	0.04026
3838.01995	0.03955
3836.73418	0.03892
3835.44841	0.03848
3834.16264	0.03833
3832.87687	0.03860
3831.59110	0.03923
3830.30534	0.03995
3829.01957	0.04043
3827.73380	0.04054
3826.44803	0.04043
3825.16226	0.04023
3823.87649	0.03997
3822.59072	0.03968
3821.30495	0.03960
3820.01918	0.03989
3818.73342	0.04036
3817.44765	0.04066
3816.16188	0.04074
3814.87611	0.04069
3813.59034	0.04052
3812.30457	0.04024
3811.01880	0.03991
3809.73303	0.03951
3808.44726	0.03904
3807.16150	0.03877
3805.87573	0.03910
3804.58996	0.03994
3803.30419	0.04078
3802.01842	0.04114
3800.73265	0.04097
3799.44688	0.04052
3798.16111	0.04009
3796.87535	0.03987
3795.58958	0.03987
3794.30381	0.03996
3793.01804	0.04008
3791.73227	0.04024
3790.44650	0.04030
3789.16073	0.04004
3787.87496	0.03950
3786.58919	0.03894
3785.30343	0.03867
3784.01766	0.03875
3782.73189	0.03906
3781.44612	0.03935
3780.16035	0.03942
3778.87458	0.03914
3777.58881	0.03860
3776.30304	0.03812
3775.01728	0.03805
3773.73151	0.03836
3772.44574	0.03861
3771.15997	0.03843
3769.87420	0.03798
3768.58843	0.03764
3767.30266	0.03765
3766.01689	0.03795
3764.73112	0.03837
3763.44536	0.03872
3762.15959	0.03892
3760.87382	0.03898
3759.58805	0.03901
3758.30228	0.03909
3757.01651	0.03936
3755.73074	0.03990
3754.44497	0.04049
3753.15921	0.04069
3751.87344	0.04027
3750.58767	0.03939
3749.30190	0.03855
3748.01613	0.03817
3746.73036	0.03822
3745.44459	0.03853
3744.15882	0.03909
3742.87305	0.03964
3741.58729	0.03971
3740.30152	0.03910
3739.01575	0.03806
3737.72998	0.03710
3736.44421	0.03678
3735.15844	0.03727
3733.87267	0.03801
3732.58690	0.03832
3731.30114	0.03812
3730.01537	0.03784
3728.72960	0.03785
3727.44383	0.03821
3726.15806	0.03867
3724.87229	0.03885
3723.58652	0.03839
3722.30075	0.03731
3721.01498	0.03607
3719.72922	0.03534
3718.44345	0.03568
3717.15768	0.03703
3715.87191	0.03864
3714.58614	0.03962
3713.30037	0.03962
3712.01460	0.03903
3710.72883	0.03846
3709.44307	0.03824
3708.15730	0.03837
3706.87153	0.03849
3705.58576	0.03820
3704.29999	0.03755
3703.01422	0.03708
3701.72845	0.03730
3700.44268	0.03809
3699.15691	0.03880
3697.87115	0.03889
3696.58538	0.03843
3695.29961	0.03772
3694.01384	0.03695
3692.72807	0.03630
3691.44230	0.03590
3690.15653	0.03589
3688.87076	0.03640
3687.58500	0.03730
3686.29923	0.03807
3685.01346	0.03833
3683.72769	0.03811
3682.44192	0.03774
3681.15615	0.03764
3679.87038	0.03805
3678.58461	0.03885
3677.29884	0.03958
3676.01308	0.03966
3674.72731	0.03885
3673.44154	0.03747
3672.15577	0.03618
3670.87000	0.03564
3669.58423	0.03590
3668.29846	0.03633
3667.01269	0.03645
3665.72693	0.03628
3664.44116	0.03603
3663.15539	0.03577
3661.86962	0.03563
3660.58385	0.03585
3659.29808	0.03641
3658.01231	0.03692
3656.72654	0.03705
3655.44077	0.03691
3654.15501	0.03685
3652.86924	0.03699
3651.58347	0.03716
3650.29770	0.03726
3649.01193	0.03744
3647.72616	0.03786
3646.44039	0.03843
3645.15462	0.03888
3643.86886	0.03904
3642.58309	0.03892
3641.29732	0.03867
3640.01155	0.03844
3638.72578	0.03849
3637.44001	0.03892
3636.15424	0.03957
3634.86847	0.04004
3633.58270	0.04006
3632.29694	0.03965
3631.01117	0.03913
3629.72540	0.03896
3628.43963	0.03935
3627.15386	0.04001
3625.86809	0.04054
3624.58232	0.04098
3623.29655	0.04156
3622.01079	0.04234
3620.72502	0.04309
3619.43925	0.04368
3618.15348	0.04400
3616.86771	0.04404
3615.58194	0.04391
3614.29617	0.04376
3613.01040	0.04366
3611.72463	0.04345
3610.43887	0.04307
3609.15310	0.04270
3607.86733	0.04260
3606.58156	0.04283
3605.29579	0.04318
3604.01002	0.04355
3602.72425	0.04399
3601.43848	0.04465
3600.15272	0.04542
3598.86695	0.04598
3597.58118	0.04602
3596.29541	0.04559
3595.00964	0.04499
3593.72387	0.04463
3592.43810	0.04483
3591.15233	0.04555
3589.86656	0.04647
3588.58080	0.04723
3587.29503	0.04756
3586.00926	0.04741
3584.72349	0.04700
3583.43772	0.04672
3582.15195	0.04675
3580.86618	0.04690
3579.58041	0.04692
3578.29464	0.04691
3577.00888	0.04720
3575.72311	0.04791
3574.43734	0.04865
3573.15157	0.04894
3571.86580	0.04875
3570.58003	0.04847
3569.29426	0.04845
3568.00849	0.04869
3566.72273	0.04897
3565.43696	0.04916
3564.15119	0.04926
3562.86542	0.04931
3561.57965	0.04936
3560.29388	0.04948
3559.00811	0.04976
3557.72234	0.05019
3556.43657	0.05072
3555.15081	0.05121
3553.86504	0.05160
3552.57927	0.05186
3551.29350	0.05204
3550.00773	0.05220
3548.72196	0.05248
3547.43619	0.05300
3546.15042	0.05371
3544.86466	0.05439
3543.57889	0.05482
3542.29312	0.05493
3541.00735	0.05480
3539.72158	0.05463
3538.43581	0.05458
3537.15004	0.05473
3535.86427	0.05504
3534.57850	0.05543
3533.29274	0.05583
3532.00697	0.05620
3530.72120	0.05643
3529.43543	0.05643
3528.14966	0.05624
3526.86389	0.05604
3525.57812	0.05601
3524.29235	0.05623
3523.00659	0.05662
3521.72082	0.05701
3520.43505	0.05728
3519.14928	0.05756
3517.86351	0.05799
3516.57774	0.05858
3515.29197	0.05909
3514.00620	0.05929
3512.72043	0.05913
3511.43467	0.05873
3510.14890	0.05837
3508.86313	0.05831
3507.57736	0.05863
3506.29159	0.05912
3505.00582	0.05953
3503.72005	0.05984
3502.43428	0.06019
3501.14852	0.06061
3499.86275	0.06091
3498.57698	0.06082
3497.29121	0.06032
3496.00544	0.05964
3494.71967	0.05917
3493.43390	0.05920
3492.14813	0.05976
3490.86236	0.06061
3489.57660	0.06136
3488.29083	0.06176
3487.00506	0.06180
3485.71929	0.06163
3484.43352	0.06153
3483.14775	0.06170
3481.86198	0.06212
3480.57621	0.06255
3479.29045	0.06282
3478.00468	0.06301
3476.71891	0.06330
3475.43314	0.06374
3474.14737	0.06429
3472.86160	0.06491
3471.57583	0.06548
3470.29006	0.06584
3469.00429	0.06585
3467.71853	0.06560
3466.43276	0.06524
3465.14699	0.06490
3463.86122	0.06466
3462.57545	0.06473
3461.28968	0.06521
3460.00391	0.06594
3458.71814	0.06656
3457.43238	0.06686
3456.14661	0.06694
3454.86084	0.06701
3453.57507	0.06722
3452.28930	0.06764
3451.00353	0.06825
3449.71776	0.06883
3448.43199	0.06914
3447.14622	0.06914
3445.86046	0.06896
3444.57469	0.06875
3443.28892	0.06851
3442.00315	0.06823
3440.71738	0.06798
3439.43161	0.06783
3438.14584	0.06785
3436.86007	0.06804
3435.57431	0.06838
3434.28854	0.06874
3433.00277	0.06906
3431.71700	0.06937
3430.43123	0.06964
3429.14546	0.06979
3427.85969	0.06979
3426.57392	0.06980
3425.28815	0.07004
3424.00239	0.07053
3422.71662	0.07111
3421.43085	0.07162
3420.14508	0.07202
3418.85931	0.07227
3417.57354	0.07230
3416.28777	0.07211
3415.00200	0.07182
3413.71624	0.07159
3412.43047	0.07136
3411.14470	0.07099
3409.85893	0.07052
3408.57316	0.07028
3407.28739	0.07056
3406.00162	0.07136
3404.71585	0.07235
3403.43008	0.07316
3402.14432	0.07365
3400.85855	0.07392
3399.57278	0.07405
3398.28701	0.07401
3397.00124	0.07382
3395.71547	0.07365
3394.42970	0.07376
3393.14393	0.07419
3391.85817	0.07465
3390.57240	0.07478
3389.28663	0.07453
3388.00086	0.07427
3386.71509	0.07434
3385.42932	0.07470
3384.14355	0.07499
3382.85778	0.07496
3381.57201	0.07464
3380.28625	0.07426
3379.00048	0.07405
3377.71471	0.07409
3376.42894	0.07429
3375.14317	0.07449
3373.85740	0.07458
3372.57163	0.07467
3371.28586	0.07493
3370.00010	0.07538
3368.71433	0.07586
3367.42856	0.07614
3366.14279	0.07612
3364.85702	0.07587
3363.57125	0.07551
3362.28548	0.07516
3360.99971	0.07494
3359.71394	0.07493
3358.42818	0.07519
3357.14241	0.07572
3355.85664	0.07643
3354.57087	0.07717
3353.28510	0.07770
3351.99933	0.07784
3350.71356	0.07760
3349.42779	0.07716
3348.14202	0.07682
3346.85626	0.07670
3345.57049	0.07678
3344.28472	0.07693
3342.99895	0.07712
3341.71318	0.07730
3340.42741	0.07729
3339.14164	0.07682
3337.85587	0.07591
3336.57011	0.07497
3335.28434	0.07457
3333.99857	0.07494
3332.71280	0.07577
3331.42703	0.07652
3330.14126	0.07690
3328.85549	0.07699
3327.56972	0.07704
3326.28395	0.07723
3324.99819	0.07755
3323.71242	0.07790
3322.42665	0.07818
3321.14088	0.07831
3319.85511	0.07831
3318.56934	0.07827
3317.28357	0.07834
3315.99780	0.07859
3314.71204	0.07897
3313.42627	0.07938
3312.14050	0.07969
3310.85473	0.07982
3309.56896	0.07979
3308.28319	0.07962
3306.99742	0.07936
3305.71165	0.07909
3304.42588	0.07892
3303.14012	0.07893
3301.85435	0.07903
3300.56858	0.07908
3299.28281	0.07901
3297.99704	0.07889
3296.71127	0.07886
3295.42550	0.07901
3294.13973	0.07927
3292.85397	0.07947
3291.56820	0.07939
3290.28243	0.07898
3288.99666	0.07838
3287.71089	0.07785
3286.42512	0.07758
3285.13935	0.07759
3283.85358	0.07785
3282.56781	0.07828
3281.28205	0.07879
3279.99628	0.07925
3278.71051	0.07950
3277.42474	0.07949
3276.13897	0.07925
3274.85320	0.07890
3273.56743	0.07855
3272.28166	0.07833
3270.99590	0.07835
3269.71013	0.07864
3268.42436	0.07908
3267.13859	0.07943
3265.85282	0.07955
3264.56705	0.07950
3263.28128	0.07943
3261.99551	0.07936
3260.70974	0.07913
3259.42398	0.07860
3258.13821	0.07781
3256.85244	0.07699
3255.56667	0.07642
3254.28090	0.07621
3252.99513	0.07628
3251.70936	0.07637
3250.42359	0.07630
3249.13783	0.07609
3247.85206	0.07589
3246.56629	0.07578
3245.28052	0.07577
3243.99475	0.07584
3242.70898	0.07609
3241.42321	0.07652
3240.13744	0.07697
3238.85167	0.07714
3237.56591	0.07688
3236.28014	0.07629
3234.99437	0.07561
3233.70860	0.07499
3232.42283	0.07456
3231.13706	0.07441
3229.85129	0.07453
3228.56552	0.07479
3227.27976	0.07496
3225.99399	0.07498
3224.70822	0.07490
3223.42245	0.07488
3222.13668	0.07504
3220.85091	0.07535
3219.56514	0.07558
3218.27937	0.07549
3216.99360	0.07505
3215.70784	0.07449
3214.42207	0.07410
3213.13630	0.07392
3211.85053	0.07385
3210.56476	0.07378
3209.27899	0.07374
3207.99322	0.07374
3206.70745	0.07372
3205.42169	0.07353
3204.13592	0.07316
3202.85015	0.07276
3201.56438	0.07252
3200.27861	0.07250
3198.99284	0.07259
3197.70707	0.07261
3196.42130	0.07245
3195.13553	0.07220
3193.84977	0.07204
3192.56400	0.07211
3191.27823	0.07230
3189.99246	0.07237
3188.70669	0.07219
3187.42092	0.07187
3186.13515	0.07159
3184.84938	0.07132
3183.56362	0.07097
3182.27785	0.07054
3180.99208	0.07019
3179.70631	0.06999
3178.42054	0.06986
3177.13477	0.06976
3175.84900	0.06969
3174.56323	0.06954
3173.27746	0.06912
3171.99170	0.06842
3170.70593	0.06771
3169.42016	0.06729
3168.13439	0.06722
3166.84862	0.06733
3165.56285	0.06747
3164.27708	0.06762
3162.99131	0.06778
3161.70555	0.06790
3160.41978	0.06787
3159.13401	0.06764
3157.84824	0.06729
3156.56247	0.06698
3155.27670	0.06682
3153.99093	0.06670
3152.70516	0.06643
3151.41939	0.06601
3150.13363	0.06566
3148.84786	0.06567
3147.56209	0.06602
3146.27632	0.06646
3144.99055	0.06675
3143.70478	0.06680
3142.41901	0.06655
3141.13324	0.06594
3139.84748	0.06506
3138.56171	0.06417
3137.27594	0.06357
3135.99017	0.06341
3134.70440	0.06362
3133.41863	0.06398
3132.13286	0.06427
3130.84709	0.06431
3129.56132	0.06414
3128.27556	0.06391
3126.98979	0.06384
3125.70402	0.06400
3124.41825	0.06424
3123.13248	0.06431
3121.84671	0.06405
3120.56094	0.06356
3119.27517	0.06305
3117.98940	0.06265
3116.70364	0.06244
3115.41787	0.06243
3114.13210	0.06263
3112.84633	0.06294
3111.56056	0.06320
3110.27479	0.06328
3108.98902	0.06312
3107.70325	0.06265
3106.41749	0.06195
3105.13172	0.06132
3103.84595	0.06113
3102.56018	0.06153
3101.27441	0.06222
3099.98864	0.06277
3098.70287	0.06294
3097.41710	0.06282
3096.13133	0.06264
3094.84557	0.06260
3093.55980	0.06267
3092.27403	0.06269
3090.98826	0.06257
3089.70249	0.06242
3088.41672	0.06242
3087.13095	0.06261
3085.84518	0.06284
3084.55942	0.06293
3083.27365	0.06289
3081.98788	0.06284
3080.70211	0.06289
3079.41634	0.06296
3078.13057	0.06293
3076.84480	0.06279
3075.55903	0.06261
3074.27326	0.06249
3072.98750	0.06243
3071.70173	0.06236
3070.41596	0.06223
3069.13019	0.06200
3067.84442	0.06171
3066.55865	0.06151
3065.27288	0.06155
3063.98711	0.06184
3062.70135	0.06217
3061.41558	0.06230
3060.12981	0.06211
3058.84404	0.06175
3057.55827	0.06150
3056.27250	0.06150
3054.98673	0.06165
3053.70096	0.06174
3052.41519	0.06159
3051.12943	0.06110
3049.84366	0.06039
3048.55789	0.05969
3047.27212	0.05926
3045.98635	0.05924
3044.70058	0.05947
3043.41481	0.05971
3042.12904	0.05974
3040.84328	0.05958
3039.55751	0.05939
3038.27174	0.05928
3036.98597	0.05924
3035.70020	0.05921
3034.41443	0.05913
3033.12866	0.05894
3031.84289	0.05863
3030.55712	0.05821
3029.27136	0.05779
3027.98559	0.05744
3026.69982	0.05722
3025.41405	0.05708
3024.12828	0.05699
3022.84251	0.05689
3021.55674	0.05681
3020.27097	0.05680
3018.98521	0.05684
3017.69944	0.05678
3016.41367	0.05652
3015.12790	0.05612
3013.84213	0.05577
3012.55636	0.05557
3011.27059	0.05552
3009.98482	0.05547
3008.69905	0.05534
3007.41329	0.05518
3006.12752	0.05514
3004.84175	0.05535
3003.55598	0.05572
3002.27021	0.05605
3000.98444	0.05616
2999.69867	0.05604
2998.41290	0.05584
2997.12714	0.05578
2995.84137	0.05589
2994.55560	0.05598
2993.26983	0.05583
2991.98406	0.05543
2990.69829	0.05497
2989.41252	0.05470
2988.12675	0.05471
2986.84098	0.05487
2985.55522	0.05495
2984.26945	0.05476
2982.98368	0.05431
2981.69791	0.05384
2980.41214	0.05360
2979.12637	0.05372
2977.84060	0.05407
2976.55483	0.05442
2975.26907	0.05456
2973.98330	0.05445
2972.69753	0.05419
2971.41176	0.05401
2970.12599	0.05405
2968.84022	0.05425
2967.55445	0.05446
2966.26868	0.05459
2964.98291	0.05460
2963.69715	0.05447
2962.41138	0.05413
2961.12561	0.05371
2959.83984	0.05337
2958.55407	0.05318
2957.26830	0.05308
2955.98253	0.05308
2954.69676	0.05325
2953.41100	0.05357
2952.12523	0.05388
2950.83946	0.05400
2949.55369	0.05393
2948.26792	0.05381
2946.98215	0.05377
2945.69638	0.05387
2944.41061	0.05406
2943.12484	0.05419
2941.83908	0.05413
2940.55331	0.05382
2939.26754	0.05333
2937.98177	0.05283
2936.69600	0.05238
2935.41023	0.05190
2934.12446	0.05129
2932.83869	0.05058
2931.55293	0.04977
2930.26716	0.04886
2928.98139	0.04784
2927.69562	0.04681
2926.40985	0.04587
2925.12408	0.04498
2923.83831	0.04402
2922.55254	0.04294
2921.26677	0.04189
2919.98101	0.04100
2918.69524	0.04038
2917.40947	0.04015
2916.12370	0.04047
2914.83793	0.04142
2913.55216	0.04287
2912.26639	0.04454
2910.98062	0.04610
2909.69486	0.04735
2908.40909	0.04823
2907.12332	0.04877
2905.83755	0.04908
2904.55178	0.04919
2903.26601	0.04914
2901.98024	0.04901
2900.69447	0.04899
2899.40870	0.04921
2898.12294	0.04964
2896.83717	0.05012
2895.55140	0.05048
2894.26563	0.05066
2892.97986	0.05072
2891.69409	0.05071
2890.40832	0.05066
2889.12255	0.05056
2887.83678	0.05039
2886.55102	0.05015
2885.26525	0.04990
2883.97948	0.04978
2882.69371	0.04990
2881.40794	0.05018
2880.12217	0.05044
2878.83640	0.05056
2877.55063	0.05057
2876.26487	0.05056
2874.97910	0.05051
2873.69333	0.05041
2872.40756	0.05026
2871.12179	0.05008
2869.83602	0.04991
2868.55025	0.04971
2867.26448	0.04945
2865.97871	0.04910
2864.69295	0.04866
2863.40718	0.04823
2862.12141	0.04787
2860.83564	0.04758
2859.54987	0.04725
2858.26410	0.04670
2856.97833	0.04579
2855.69256	0.04451
2854.40680	0.04308
2853.12103	0.04174
2851.83526	0.04068
2850.54949	0.04005
2849.26372	0.04005
2847.97795	0.04077
2846.69218	0.04201
2845.40641	0.04344
2844.12064	0.04476
2842.83488	0.04577
2841.54911	0.04642
2840.26334	0.04674
2838.97757	0.04688
2837.69180	0.04701
2836.40603	0.04720
2835.12026	0.04739
2833.83449	0.04742
2832.54873	0.04717
2831.26296	0.04671
2829.97719	0.04628
2828.69142	0.04615
2827.40565	0.04635
2826.11988	0.04673
2824.83411	0.04708
2823.54834	0.04725
2822.26257	0.04717
2820.97681	0.04690
2819.69104	0.04659
2818.40527	0.04630
2817.11950	0.04603
2815.83373	0.04577
2814.54796	0.04555
2813.26219	0.04546
2811.97642	0.04549
2810.69066	0.04558
2809.40489	0.04567
2808.11912	0.04571
2806.83335	0.04575
2805.54758	0.04586
2804.26181	0.04604
2802.97604	0.04615
2801.69027	0.04605
2800.40450	0.04576
2799.11874	0.04538
2797.83297	0.04499
2796.54720	0.04464
2795.26143	0.04449
2793.97566	0.04464
2792.68989	0.04504
2791.40412	0.04543
2790.11835	0.04555
2788.83259	0.04535
2787.54682	0.04501
2786.26105	0.04468
2784.97528	0.04441
2783.68951	0.04419
2782.40374	0.04405
2781.11797	0.04404
2779.83220	0.04415
2778.54643	0.04432
2777.26067	0.04442
2775.97490	0.04438
2774.68913	0.04419
2773.40336	0.04392
2772.11759	0.04365
2770.83182	0.04346
2769.54605	0.04339
2768.26028	0.04338
2766.97452	0.04341
2765.68875	0.04348
2764.40298	0.04359
2763.11721	0.04366
2761.83144	0.04363
2760.54567	0.04349
2759.25990	0.04331
2757.97413	0.04316
2756.68836	0.04306
2755.40260	0.04309
2754.11683	0.04324
2752.83106	0.04341
2751.54529	0.04343
2750.25952	0.04327
2748.97375	0.04304
2747.68798	0.04288
2746.40221	0.04277
2745.11645	0.04265
2743.83068	0.04249
2742.54491	0.04231
2741.25914	0.04213
2739.97337	0.04194
2738.68760	0.04177
2737.40183	0.04168
2736.11606	0.04167
2734.83029	0.04172
2733.54453	0.04182
2732.25876	0.04193
2730.97299	0.04199
2729.68722	0.04194
2728.40145	0.04180
2727.11568	0.04167
2725.82991	0.04156
2724.54414	0.04139
2723.25838	0.04115
2721.97261	0.04093
2720.68684	0.04079
2719.40107	0.04071
2718.11530	0.04062
2716.82953	0.04052
2715.54376	0.04046
2714.25799	0.04049
2712.97222	0.04059
2711.68646	0.04071
2710.40069	0.04084
2709.11492	0.04092
2707.82915	0.04085
2706.54338	0.04062
2705.25761	0.04035
2703.97184	0.04020
2702.68607	0.04024
2701.40031	0.04038
2700.11454	0.04048
2698.82877	0.04040
2697.54300	0.04013
2696.25723	0.03982
2694.97146	0.03963
2693.68569	0.03964
2692.39992	0.03980
2691.11415	0.04003
2689.82839	0.04028
2688.54262	0.04047
2687.25685	0.04047
2685.97108	0.04018
2684.68531	0.03969
2683.39954	0.03924
2682.11377	0.03906
2680.82800	0.03918
2679.54224	0.03944
2678.25647	0.03965
2676.97070	0.03972
2675.68493	0.03969
2674.39916	0.03956
2673.11339	0.03933
2671.82762	0.03902
2670.54185	0.03876
2669.25608	0.03867
2667.97032	0.03878
2666.68455	0.03901
2665.39878	0.03926
2664.11301	0.03944
2662.82724	0.03953
2661.54147	0.03955
2660.25570	0.03950
2658.96993	0.03940
2657.68417	0.03925
2656.39840	0.03908
2655.11263	0.03897
2653.82686	0.03896
2652.54109	0.03896
2651.25532	0.03883
2649.96955	0.03850
2648.68378	0.03807
2647.39801	0.03776
2646.11225	0.03768
2644.82648	0.03780
2643.54071	0.03800
2642.25494	0.03808
2640.96917	0.03796
2639.68340	0.03764
2638.39763	0.03725
2637.11186	0.03692
2635.82609	0.03673
2634.54033	0.03662
2633.25456	0.03657
2631.96879	0.03655
2630.68302	0.03659
2629.39725	0.03664
2628.11148	0.03664
2626.82571	0.03656
2625.53994	0.03644
2624.25418	0.03636
2622.96841	0.03636
2621.68264	0.03640
2620.39687	0.03635
2619.11110	0.03609
2617.82533	0.03564
2616.53956	0.03512
2615.25379	0.03465
2613.96802	0.03434
2612.68226	0.03424
2611.39649	0.03429
2610.11072	0.03433
2608.82495	0.03420
2607.53918	0.03394
2606.25341	0.03375
2604.96764	0.03379
2603.68187	0.03399
2602.39611	0.03417
2601.11034	0.03416
2599.82457	0.03403
2598.53880	0.03390
2597.25303	0.03382
2595.96726	0.03374
2594.68149	0.03358
2593.39572	0.03343
2592.10995	0.03348
2590.82419	0.03376
2589.53842	0.03397
2588.25265	0.03380
2586.96688	0.03331
2585.68111	0.03292
2584.39534	0.03298
2583.10957	0.03339
2581.82380	0.03368
2580.53804	0.03347
2579.25227	0.03283
2577.96650	0.03214
2576.68073	0.03174
2575.39496	0.03161
2574.10919	0.03157
2572.82342	0.03155
2571.53765	0.03152
2570.25188	0.03145
2568.96612	0.03131
2567.68035	0.03121
2566.39458	0.03124
2565.10881	0.03139
2563.82304	0.03154
2562.53727	0.03170
2561.25150	0.03192
2559.96573	0.03212
2558.67997	0.03215
2557.39420	0.03193
2556.10843	0.03158
2554.82266	0.03126
2553.53689	0.03107
2552.25112	0.03101
2550.96535	0.03104
2549.67958	0.03110
2548.39381	0.03113
2547.10805	0.03112
2545.82228	0.03107
2544.53651	0.03095
2543.25074	0.03077
2541.96497	0.03066
2540.67920	0.03076
2539.39343	0.03112
2538.10766	0.03157
2536.82190	0.03181
2535.53613	0.03169
2534.25036	0.03126
2532.96459	0.03069
2531.67882	0.03021
2530.39305	0.02999
2529.10728	0.03008
2527.82151	0.03040
2526.53574	0.03076
2525.24998	0.03095
2523.96421	0.03086
2522.67844	0.03061
2521.39267	0.03043
2520.10690	0.03042
2518.82113	0.03044
2517.53536	0.03031
2516.24959	0.03008
2514.96383	0.02997
2513.67806	0.03013
2512.39229	0.03042
2511.10652	0.03061
2509.82075	0.03058
2508.53498	0.03039
2507.24921	0.03010
2505.96344	0.02980
2504.67767	0.02954
2503.39191	0.02935
2502.10614	0.02925
2500.82037	0.02931
2499.53460	0.02952
2498.24883	0.02977
2496.96306	0.02992
2495.67729	0.02989
2494.39152	0.02972
2493.10576	0.02942
2491.81999	0.02913
2490.53422	0.02904
2489.24845	0.02926
2487.96268	0.02961
2486.67691	0.02983
2485.39114	0.02981
2484.10537	0.02963
2482.81960	0.02946
2481.53384	0.02934
2480.24807	0.02924
2478.96230	0.02912
2477.67653	0.02904
2476.39076	0.02907
2475.10499	0.02913
2473.81922	0.02899
2472.53345	0.02858
2471.24769	0.02815
2469.96192	0.02806
2468.67615	0.02846
2467.39038	0.02911
2466.10461	0.02961
2464.81884	0.02969
2463.53307	0.02946
2462.24730	0.02924
2460.96153	0.02918
2459.67577	0.02917
2458.39000	0.02907
2457.10423	0.02895
2455.81846	0.02897
2454.53269	0.02912
2453.24692	0.02918
2451.96115	0.02906
2450.67538	0.02891
2449.38962	0.02896
2448.10385	0.02919
2446.81808	0.02932
2445.53231	0.02918
2444.24654	0.02886
2442.96077	0.02856
2441.67500	0.02835
2440.38923	0.02819
2439.10346	0.02810
2437.81770	0.02806
2436.53193	0.02803
2435.24616	0.02795
2433.96039	0.02777
2432.67462	0.02751
2431.38885	0.02724
2430.10308	0.02709
2428.81731	0.02712
2427.53155	0.02728
2426.24578	0.02746
2424.96001	0.02763
2423.67424	0.02782
2422.38847	0.02808
2421.10270	0.02836
2419.81693	0.02848
2418.53116	0.02832
2417.24539	0.02793
2415.95963	0.02751
2414.67386	0.02722
2413.38809	0.02703
2412.10232	0.02684
2410.81655	0.02669
2409.53078	0.02668
2408.24501	0.02688
2406.95924	0.02725
2405.67347	0.02768
2404.38771	0.02798
2403.10194	0.02798
2401.81617	0.02763
2400.53040	0.02716
2399.24463	0.02695
2397.95886	0.02708
2396.67309	0.02741
2395.38732	0.02764
2394.10156	0.02767
2392.81579	0.02762
2391.53002	0.02766
2390.24425	0.02779
2388.95848	0.02787
2387.67271	0.02776
2386.38694	0.02754
2385.10117	0.02736
2383.81540	0.02728
2382.52964	0.02728
2381.24387	0.02732
2379.95810	0.02737
2378.67233	0.02747
2377.38656	0.02767
2376.10079	0.02774
2374.81502	0.02763
2373.52925	0.02748
2372.24349	0.02730
2370.95772	0.02754
2369.67195	0.02773
2368.38618	0.02784
2367.10041	0.02815
2365.81464	0.02855
2364.52887	0.02829
2363.24310	0.02792
2361.95733	0.02811
2360.67157	0.02879
2359.38580	0.02890
2358.10003	0.02873
2356.81426	0.02849
2355.52849	0.02828
2354.24272	0.02831
2352.95695	0.02811
2351.67118	0.02811
2350.38542	0.02877
2349.09965	0.02919
2347.81388	0.02853
2346.52811	0.02781
2345.24234	0.02768
2343.95657	0.02805
2342.67080	0.02805
2341.38503	0.02819
2340.09926	0.02871
2338.81350	0.02904
2337.52773	0.02935
2336.24196	0.02912
2334.95619	0.02860
2333.67042	0.02869
2332.38465	0.02833
2331.09888	0.02823
2329.81311	0.02865
2328.52735	0.02850
2327.24158	0.02916
2325.95581	0.03027
2324.67004	0.03041
2323.38427	0.03035
2322.09850	0.03020
2320.81273	0.02899
2319.52696	0.02842
2318.24119	0.02835
2316.95543	0.02792
2315.66966	0.02783
2314.38389	0.02772
2313.09812	0.02738
2311.81235	0.02726
2310.52658	0.02693
2309.24081	0.02676
2307.95504	0.02683
2306.66928	0.02672
2305.38351	0.02671
2304.09774	0.02659
2302.81197	0.02636
2301.52620	0.02615
2300.24043	0.02581
2298.95466	0.02547
2297.66889	0.02522
2296.38312	0.02527
2295.09736	0.02565
2293.81159	0.02613
2292.52582	0.02645
2291.24005	0.02644
2289.95428	0.02625
2288.66851	0.02603
2287.38274	0.02586
2286.09697	0.02571
2284.81121	0.02558
2283.52544	0.02548
2282.23967	0.02535
2280.95390	0.02515
2279.66813	0.02486
2278.38236	0.02440
2277.09659	0.02367
2275.81082	0.02275
2274.52505	0.02205
2273.23929	0.02195
2271.95352	0.02240
2270.66775	0.02292
2269.38198	0.02307
2268.09621	0.02274
2266.81044	0.02219
2265.52467	0.02181
2264.23890	0.02190
2262.95314	0.02250
2261.66737	0.02327
2260.38160	0.02372
2259.09583	0.02353
2257.81006	0.02276
2256.52429	0.02179
2255.23852	0.02107
2253.95275	0.02090
2252.66698	0.02117
2251.38122	0.02150
2250.09545	0.02154
2248.80968	0.02121
2247.52391	0.02069
2246.23814	0.02009
2244.95237	0.01947
2243.66660	0.01898
2242.38083	0.01889
2241.09507	0.01928
2239.80930	0.01987
2238.52353	0.02029
2237.23776	0.02041
2235.95199	0.02040
2234.66622	0.02046
2233.38045	0.02062
2232.09468	0.02072
2230.80891	0.02054
2229.52315	0.01995
2228.23738	0.01908
2226.95161	0.01820
2225.66584	0.01749
2224.38007	0.01696
2223.09430	0.01660
2221.80853	0.01653
2220.52276	0.01673
2219.23700	0.01705
2217.95123	0.01728
2216.66546	0.01734
2215.37969	0.01725
2214.09392	0.01712
2212.80815	0.01701
2211.52238	0.01698
2210.23661	0.01720
2208.95084	0.01783
2207.66508	0.01872
2206.37931	0.01927
2205.09354	0.01907
2203.80777	0.01846
2202.52200	0.01828
2201.23623	0.01880
2199.95046	0.01944
2198.66469	0.01946
2197.37893	0.01871
2196.09316	0.01757
2194.80739	0.01650
2193.52162	0.01576
2192.23585	0.01558
2190.95008	0.01609
2189.66431	0.01701
2188.37854	0.01768
2187.09277	0.01759
2185.80701	0.01685
2184.52124	0.01594
2183.23547	0.01511
2181.94970	0.01432
2180.66393	0.01364
2179.37816	0.01330
2178.09239	0.01341
2176.80662	0.01380
2175.52085	0.01431
2174.23509	0.01492
2172.94932	0.01556
2171.66355	0.01594
2170.37778	0.01579
2169.09201	0.01515
2167.80624	0.01440
2166.52047	0.01386
2165.23470	0.01355
2163.94894	0.01313
2162.66317	0.01227
2161.37740	0.01101
2160.09163	0.00994
2158.80586	0.00958
2157.52009	0.00971
2156.23432	0.00960
2154.94855	0.00901
2153.66278	0.00848
2152.37702	0.00864
2151.09125	0.00956
2149.80548	0.01081
2148.51971	0.01201
2147.23394	0.01302
2145.94817	0.01380
2144.66240	0.01426
2143.37663	0.01425
2142.09087	0.01382
2140.80510	0.01328
2139.51933	0.01293
2138.23356	0.01281
2136.94779	0.01280
2135.66202	0.01286
2134.37625	0.01314
2133.09048	0.01364
2131.80471	0.01423
2130.51895	0.01475
2129.23318	0.01511
2127.94741	0.01527
2126.66164	0.01519
2125.37587	0.01497
2124.09010	0.01484
2122.80433	0.01500
2121.51856	0.01540
2120.23280	0.01586
2118.94703	0.01620
2117.66126	0.01633
2116.37549	0.01617
2115.08972	0.01575
2113.80395	0.01527
2112.51818	0.01508
2111.23241	0.01527
2109.94664	0.01558
2108.66088	0.01578
2107.37511	0.01584
2106.08934	0.01579
2104.80357	0.01565
2103.51780	0.01541
2102.23203	0.01507
2100.94626	0.01456
2099.66049	0.01450
2098.37473	0.01420
2097.08896	0.01394
2095.80319	0.01396
2094.51742	0.01410
2093.23165	0.01418
2091.94588	0.01426
2090.66011	0.01450
2089.37434	0.01493
2088.08857	0.01547
2086.80281	0.01600
2085.51704	0.01634
2084.23127	0.01635
2082.94550	0.01598
2081.65973	0.01536
2080.37396	0.01483
2079.08819	0.01465
2077.80242	0.01487
2076.51666	0.01528
2075.23089	0.01563
2073.94512	0.01574
2072.65935	0.01552
2071.37358	0.01507
2070.08781	0.01463
2068.80204	0.01446
2067.51627	0.01460
2066.23050	0.01488
2064.94474	0.01515
2063.65897	0.01528
2062.37320	0.01515
2061.08743	0.01465
2059.80166	0.01385
2058.51589	0.01295
2057.23012	0.01216
2055.94435	0.01153
2054.65859	0.01106
2053.37282	0.01078
2052.08705	0.01071
2050.80128	0.01077
2049.51551	0.01078
2048.22974	0.01066
2046.94397	0.01056
2045.65820	0.01078
2044.37243	0.01134
2043.08667	0.01179
2041.80090	0.01154
2040.51513	0.01051
2039.22936	0.00925
2037.94359	0.00840
2036.65782	0.00807
2035.37205	0.00795
2034.08628	0.00776
2032.80052	0.00748
2031.51475	0.00721
2030.22898	0.00716
2028.94321	0.00746
2027.65744	0.00800
2026.37167	0.00839
2025.08590	0.00839
2023.80013	0.00825
2022.51436	0.00848
2021.22860	0.00918
2019.94283	0.00982
2018.65706	0.00986
2017.37129	0.00928
2016.08552	0.00858
2014.79975	0.00826
2013.51398	0.00852
2012.22821	0.00927
2010.94245	0.01027
2009.65668	0.01103
2008.37091	0.01105
2007.08514	0.01028
2005.79937	0.00935
2004.51360	0.00898
2003.22783	0.00931
2001.94206	0.00989
2000.65629	0.01037
1999.37053	0.01084
1998.08476	0.01150
1996.79899	0.01224
1995.51322	0.01277
1994.22745	0.01299
1992.94168	0.01314
1991.65591	0.01347
1990.37014	0.01388
1989.08438	0.01391
1987.79861	0.01323
1986.51284	0.01202
1985.22707	0.01101
1983.94130	0.01090
1982.65553	0.01174
1981.36976	0.01280
1980.08399	0.01310
1978.79822	0.01228
1977.51246	0.01084
1976.22669	0.00969
1974.94092	0.00944
1973.65515	0.00997
1972.36938	0.01066
1971.08361	0.01097
1969.79784	0.01079
1968.51207	0.01046
1967.22631	0.01045
1965.94054	0.01090
1964.65477	0.01142
1963.36900	0.01138
1962.08323	0.01054
1960.79746	0.00948
1959.51169	0.00903
1958.22592	0.00948
1956.94015	0.01053
1955.65439	0.01176
1954.36862	0.01288
1953.08285	0.01365
1951.79708	0.01393
1950.51131	0.01377
1949.22554	0.01343
1947.93977	0.01311
1946.65400	0.01287
1945.36823	0.01268
1944.08247	0.01253
1942.79670	0.01250
1941.51093	0.01270
1940.22516	0.01312
1938.93939	0.01360
1937.65362	0.01393
1936.36785	0.01401
1935.08208	0.01387
1933.79632	0.01363
1932.51055	0.01352
1931.22478	0.01370
1929.93901	0.01416
1928.65324	0.01470
1927.36747	0.01504
1926.08170	0.01504
1924.79593	0.01485
1923.51016	0.01480
1922.22440	0.01503
1920.93863	0.01534
1919.65286	0.01544
1918.36709	0.01531
1917.08132	0.01521
1915.79555	0.01534
1914.50978	0.01570
1913.22401	0.01604
1911.93825	0.01612
1910.65248	0.01586
1909.36671	0.01540
1908.08094	0.01500
1906.79517	0.01484
1905.50940	0.01497
1904.22363	0.01528
1902.93786	0.01559
1901.65209	0.01573
1900.36633	0.01569
1899.08056	0.01557
1897.79479	0.01554
1896.50902	0.01565
1895.22325	0.01583
1893.93748	0.01593
1892.65171	0.01588
1891.36594	0.01570
1890.08018	0.01557
1888.79441	0.01560
1887.50864	0.01574
1886.22287	0.01578
1884.93710	0.01553
1883.65133	0.01505
1882.36556	0.01455
1881.07979	0.01425
1879.79402	0.01421
1878.50826	0.01434
1877.22249	0.01455
1875.93672	0.01479
1874.65095	0.01503
1873.36518	0.01527
1872.07941	0.01547
1870.79364	0.01561
1869.50787	0.01572
1868.22211	0.01583
1866.93634	0.01591
1865.65057	0.01592
1864.36480	0.01587
1863.07903	0.01582
1861.79326	0.01578
1860.50749	0.01575
1859.22172	0.01567
1857.93595	0.01552
1856.65019	0.01538
1855.36442	0.01533
1854.07865	0.01542
1852.79288	0.01558
1851.50711	0.01568
1850.22134	0.01567
1848.93557	0.01556
1847.64980	0.01543
1846.36404	0.01537
1845.07827	0.01542
1843.79250	0.01554
1842.50673	0.01565
1841.22096	0.01566
1839.93519	0.01559
1838.64942	0.01554
1837.36365	0.01559
1836.07788	0.01567
1834.79212	0.01572
1833.50635	0.01571
1832.22058	0.01569
1830.93481	0.01574
1829.64904	0.01587
1828.36327	0.01599
1827.07750	0.01604
1825.79173	0.01604
1824.50597	0.01606
1823.22020	0.01608
1821.93443	0.01607
1820.64866	0.01600
1819.36289	0.01586
1818.07712	0.01573
1816.79135	0.01566
1815.50558	0.01563
1814.21981	0.01559
1812.93405	0.01550
1811.64828	0.01540
1810.36251	0.01537
1809.07674	0.01543
1807.79097	0.01554
1806.50520	0.01567
1805.21943	0.01579
1803.93366	0.01588
1802.64790	0.01593
1801.36213	0.01594
1800.07636	0.01593
1798.79059	0.01588
1797.50482	0.01580
1796.21905	0.01572
1794.93328	0.01567
1793.64751	0.01565
1792.36174	0.01568
1791.07598	0.01575
1789.79021	0.01581
1788.50444	0.01581
1787.21867	0.01575
1785.93290	0.01567
1784.64713	0.01561
1783.36136	0.01556
1782.07559	0.01550
1780.78983	0.01544
1779.50406	0.01541
1778.21829	0.01543
1776.93252	0.01551
1775.64675	0.01562
1774.36098	0.01570
1773.07521	0.01572
1771.78944	0.01570
1770.50367	0.01565
1769.21791	0.01555
1767.93214	0.01545
1766.64637	0.01541
1765.36060	0.01540
1764.07483	0.01539
1762.78906	0.01538
1761.50329	0.01539
1760.21752	0.01537
1758.93176	0.01527
1757.64599	0.01510
1756.36022	0.01496
1755.07445	0.01484
1753.78868	0.01465
1752.50291	0.01434
1751.21714	0.01397
1749.93137	0.01363
1748.64560	0.01333
1747.35984	0.01303
1746.07407	0.01273
1744.78830	0.01244
1743.50253	0.01217
1742.21676	0.01195
1740.93099	0.01175
1739.64522	0.01166
1738.35945	0.01175
1737.07369	0.01199
1735.78792	0.01229
1734.50215	0.01260
1733.21638	0.01294
1731.93061	0.01323
1730.64484	0.01338
1729.35907	0.01339
1728.07330	0.01340
1726.78753	0.01350
1725.50177	0.01369
1724.21600	0.01393
1722.93023	0.01420
1721.64446	0.01444
1720.35869	0.01464
1719.07292	0.01481
1717.78715	0.01501
1716.50138	0.01529
1715.21561	0.01562
1713.92985	0.01596
1712.64408	0.01630
1711.35831	0.01668
1710.07254	0.01713
1708.78677	0.01768
1707.50100	0.01833
1706.21523	0.01910
1704.92946	0.01998
1703.64370	0.02095
1702.35793	0.02193
1701.07216	0.02295
1699.78639	0.02408
1698.50062	0.02525
1697.21485	0.02632
1695.92908	0.02731
1694.64331	0.02833
1693.35754	0.02937
1692.07178	0.03039
1690.78601	0.03150
1689.50024	0.03279
1688.21447	0.03421
1686.92870	0.03559
1685.64293	0.03688
1684.35716	0.03814
1683.07139	0.03940
1681.78563	0.04059
1680.49986	0.04170
1679.21409	0.04285
1677.92832	0.04406
1676.64255	0.04529
1675.35678	0.04646
1674.07101	0.04758
1672.78524	0.04864
1671.49947	0.04963
1670.21371	0.05061
1668.92794	0.05162
1667.64217	0.05268
1666.35640	0.05373
1665.07063	0.05476
1663.78486	0.05576
1662.49909	0.05675
1661.21332	0.05769
1659.92756	0.05856
1658.64179	0.05941
1657.35602	0.06033
1656.07025	0.06129
1654.78448	0.06214
1653.49871	0.06286
1652.21294	0.06351
1650.92717	0.06412
1649.64140	0.06460
1648.35564	0.06497
1647.06987	0.06531
1645.78410	0.06566
1644.49833	0.06595
1643.21256	0.06611
1641.92679	0.06614
1640.64102	0.06611
1639.35525	0.06605
1638.06949	0.06592
1636.78372	0.06567
1635.49795	0.06528
1634.21218	0.06479
1632.92641	0.06420
1631.64064	0.06352
1630.35487	0.06279
1629.06910	0.06202
1627.78333	0.06117
1626.49757	0.06024
1625.21180	0.05922
1623.92603	0.05817
1622.64026	0.05712
1621.35449	0.05609
1620.06872	0.05502
1618.78295	0.05389
1617.49718	0.05276
1616.21142	0.05171
1614.92565	0.05074
1613.63988	0.04979
1612.35411	0.04883
1611.06834	0.04791
1609.78257	0.04704
1608.49680	0.04624
1607.21103	0.04552
1605.92526	0.04488
1604.63950	0.04429
1603.35373	0.04373
1602.06796	0.04322
1600.78219	0.04277
1599.49642	0.04242
1598.21065	0.04214
1596.92488	0.04191
1595.63911	0.04172
1594.35335	0.04159
1593.06758	0.04154
1591.78181	0.04156
1590.49604	0.04159
1589.21027	0.04161
1587.92450	0.04163
1586.63873	0.04171
1585.35296	0.04188
1584.06719	0.04213
1582.78143	0.04244
1581.49566	0.04278
1580.20989	0.04316
1578.92412	0.04350
1577.63835	0.04380
1576.35258	0.04412
1575.06681	0.04454
1573.78104	0.04504
1572.49528	0.04552
1571.20951	0.04598
1569.92374	0.04644
1568.63797	0.04692
1567.35220	0.04736
1566.06643	0.04773
1564.78066	0.04812
1563.49489	0.04860
1562.20912	0.04916
1560.92336	0.04972
1559.63759	0.05025
1558.35182	0.05076
1557.06605	0.05120
1555.78028	0.05153
1554.49451	0.05181
1553.20874	0.05211
1551.92297	0.05241
1550.63721	0.05266
1549.35144	0.05288
1548.06567	0.05312
1546.77990	0.05337
1545.49413	0.05361
1544.20836	0.05381
1542.92259	0.05394
1541.63682	0.05399
1540.35105	0.05400
1539.06529	0.05405
1537.77952	0.05411
1536.49375	0.05411
1535.20798	0.05404
1533.92221	0.05399
1532.63644	0.05402
1531.35067	0.05410
1530.06490	0.05420
1528.77914	0.05435
1527.49337	0.05454
1526.20760	0.05479
1524.92183	0.05505
1523.63606	0.05529
1522.35029	0.05549
1521.06452	0.05569
1519.77875	0.05589
1518.49298	0.05608
1517.20722	0.05629
1515.92145	0.05661
1514.63568	0.05702
1513.34991	0.05746
1512.06414	0.05792
1510.77837	0.05845
1509.49260	0.05901
1508.20683	0.05957
1506.92107	0.06010
1505.63530	0.06060
1504.34953	0.06104
1503.06376	0.06137
1501.77799	0.06165
1500.49222	0.06199
1499.20645	0.06235
1497.92068	0.06264
1496.63491	0.06281
1495.34915	0.06291
1494.06338	0.06304
1492.77761	0.06321
1491.49184	0.06347
1490.20607	0.06381
1488.92030	0.06420
1487.63453	0.06462
1486.34876	0.06507
1485.06299	0.06558
1483.77723	0.06619
1482.49146	0.06687
1481.20569	0.06764
1479.91992	0.06847
1478.63415	0.06932
1477.34838	0.07018
1476.06261	0.07102
1474.77684	0.07179
1473.49108	0.07246
1472.20531	0.07304
1470.91954	0.07355
1469.63377	0.07399
1468.34800	0.07438
1467.06223	0.07474
1465.77646	0.07510
1464.49069	0.07548
1463.20492	0.07590
1461.91916	0.07638
1460.63339	0.07698
1459.34762	0.07768
1458.06185	0.07846
1456.77608	0.07927
1455.49031	0.08007
1454.20454	0.08077
1452.91877	0.08135
1451.63301	0.08185
1450.34724	0.08226
1449.06147	0.08255
1447.77570	0.08270
1446.48993	0.08271
1445.20416	0.08262
1443.91839	0.08242
1442.63262	0.08216
1441.34685	0.08188
1440.06109	0.08161
1438.77532	0.08135
1437.48955	0.08107
1436.20378	0.08082
1434.91801	0.08064
1433.63224	0.08057
1432.34647	0.08067
1431.06070	0.08098
1429.77494	0.08149
1428.48917	0.08212
1427.20340	0.08285
1425.91763	0.08365
1424.63186	0.08456
1423.34609	0.08556
1422.06032	0.08660
1420.77455	0.08762
1419.48878	0.08858
1418.20302	0.08944
1416.91725	0.09017
1415.63148	0.09077
1414.34571	0.09128
1413.05994	0.09173
1411.77417	0.09206
1410.48840	0.09222
1409.20263	0.09221
1407.91687	0.09206
1406.63110	0.09174
1405.34533	0.09124
1404.05956	0.09052
1402.77379	0.08961
1401.48802	0.08853
1400.20225	0.08733
1398.91648	0.08605
1397.63071	0.08470
1396.34495	0.08328
1395.05918	0.08180
1393.77341	0.08030
1392.48764	0.07882
1391.20187	0.07733
1389.91610	0.07583
1388.63033	0.07432
1387.34456	0.07279
1386.05880	0.07127
1384.77303	0.06974
1383.48726	0.06817
1382.20149	0.06655
1380.91572	0.06489
1379.62995	0.06323
1378.34418	0.06161
1377.05841	0.06003
1375.77264	0.05846
1374.48688	0.05690
1373.20111	0.05538
1371.91534	0.05390
1370.62957	0.05248
1369.34380	0.05111
1368.05803	0.04980
1366.77226	0.04854
1365.48649	0.04733
1364.20073	0.04615
1362.91496	0.04502
1361.62919	0.04395
1360.34342	0.04295
1359.05765	0.04207
1357.77188	0.04128
1356.48611	0.04059
1355.20034	0.03994
1353.91457	0.03934
1352.62881	0.03880
1351.34304	0.03834
1350.05727	0.03797
1348.77150	0.03765
1347.48573	0.03732
1346.19996	0.03697
1344.91419	0.03663
1343.62842	0.03632
1342.34266	0.03603
1341.05689	0.03575
1339.77112	0.03545
1338.48535	0.03515
1337.19958	0.03486
1335.91381	0.03459
1334.62804	0.03433
1333.34227	0.03406
1332.05650	0.03377
1330.77074	0.03347
1329.48497	0.03316
1328.19920	0.03285
1326.91343	0.03255
1325.62766	0.03225
1324.34189	0.03196
1323.05612	0.03168
1321.77035	0.03142
1320.48459	0.03115
1319.19882	0.03088
1317.91305	0.03060
1316.62728	0.03030
1315.34151	0.03001
1314.05574	0.02971
1312.76997	0.02941
1311.48420	0.02913
1310.19843	0.02888
1308.91267	0.02867
1307.62690	0.02849
1306.34113	0.02832
1305.05536	0.02810
1303.76959	0.02782
1302.48382	0.02748
1301.19805	0.02714
1299.91228	0.02684
1298.62652	0.02660
1297.34075	0.02642
1296.05498	0.02629
1294.76921	0.02617
1293.48344	0.02604
1292.19767	0.02591
1290.91190	0.02578
1289.62613	0.02568
1288.34036	0.02560
1287.05460	0.02554
1285.76883	0.02550
1284.48306	0.02548
1283.19729	0.02546
1281.91152	0.02542
1280.62575	0.02533
1279.33998	0.02521
1278.05421	0.02509
1276.76845	0.02501
1275.48268	0.02497
1274.19691	0.02493
1272.91114	0.02487
1271.62537	0.02478
1270.33960	0.02467
1269.05383	0.02455
1267.76806	0.02445
1266.48229	0.02438
1265.19653	0.02433
1263.91076	0.02426
1262.62499	0.02417
1261.33922	0.02407
1260.05345	0.02400
1258.76768	0.02400
1257.48191	0.02409
1256.19614	0.02424
1254.91037	0.02437
1253.62461	0.02444
1252.33884	0.02445
1251.05307	0.02441
1249.76730	0.02437
1248.48153	0.02435
1247.19576	0.02439
1245.90999	0.02447
1244.62422	0.02455
1243.33846	0.02459
1242.05269	0.02456
1240.76692	0.02448
1239.48115	0.02437
1238.19538	0.02425
1236.90961	0.02414
1235.62384	0.02401
1234.33807	0.02388
1233.05230	0.02375
1231.76654	0.02358
1230.48077	0.02337
1229.19500	0.02312
1227.90923	0.02285
1226.62346	0.02258
1225.33769	0.02236
1224.05192	0.02218
1222.76615	0.02200
1221.48039	0.02180
1220.19462	0.02160
1218.90885	0.02139
1217.62308	0.02117
1216.33731	0.02093
1215.05154	0.02067
1213.76577	0.02046
1212.48000	0.02034
1211.19423	0.02032
1209.90847	0.02034
1208.62270	0.02033
1207.33693	0.02028
1206.05116	0.02024
1204.76539	0.02022
1203.47962	0.02023
1202.19385	0.02023
1200.90808	0.02015
1199.62232	0.01999
1198.33655	0.01993
1197.05078	0.01989
1195.76501	0.01986
1194.47924	0.01981
1193.19347	0.01974
1191.90770	0.01962
1190.62193	0.01944
1189.33616	0.01919
1188.05040	0.01888
1186.76463	0.01856
1185.47886	0.01829
1184.19309	0.01812
1182.90732	0.01803
1181.62155	0.01795
1180.33578	0.01781
1179.05001	0.01767
1177.76425	0.01759
1176.47848	0.01759
1175.19271	0.01764
1173.90694	0.01768
1172.62117	0.01772
1171.33540	0.01780
1170.04963	0.01791
1168.76386	0.01805
1167.47809	0.01820
1166.19233	0.01838
1164.90656	0.01857
1163.62079	0.01872
1162.33502	0.01880
1161.04925	0.01884
1159.76348	0.01888
1158.47771	0.01892
1157.19194	0.01896
1155.90618	0.01901
1154.62041	0.01909
1153.33464	0.01923
1152.04887	0.01942
1150.76310	0.01959
1149.47733	0.01974
1148.19156	0.01990
1146.90579	0.02014
1145.62002	0.02048
1144.33426	0.02093
1143.04849	0.02148
1141.76272	0.02212
1140.47695	0.02281
1139.19118	0.02356
1137.90541	0.02436
1136.61964	0.02522
1135.33387	0.02615
1134.04811	0.02717
1132.76234	0.02832
1131.47657	0.02959
1130.19080	0.03100
1128.90503	0.03259
1127.61926	0.03436
1126.33349	0.03627
1125.04772	0.03829
1123.76195	0.04038
1122.47619	0.04255
1121.19042	0.04478
1119.90465	0.04709
1118.61888	0.04952
1117.33311	0.05208
1116.04734	0.05476
1114.76157	0.05746
1113.47580	0.06014
1112.19004	0.06280
1110.90427	0.06547
1109.61850	0.06815
1108.33273	0.07080
1107.04696	0.07336
1105.76119	0.07581
1104.47542	0.07814
1103.18965	0.08037
1101.90388	0.08255
1100.61812	0.08473
1099.33235	0.08692
1098.04658	0.08909
1096.76081	0.09121
1095.47504	0.09330
1094.18927	0.09534
1092.90350	0.09733
1091.61773	0.09920
1090.33197	0.10089
1089.04620	0.10237
1087.76043	0.10371
1086.47466	0.10505
1085.18889	0.10650
1083.90312	0.10811
1082.61735	0.10981
1081.33158	0.11154
1080.04581	0.11328
1078.76005	0.11505
1077.47428	0.11691
1076.18851	0.11892
1074.90274	0.12113
1073.61697	0.12348
1072.33120	0.12589
1071.04543	0.12831
1069.75966	0.13074
1068.47390	0.13327
1067.18813	0.13595
1065.90236	0.13874
1064.61659	0.14152
1063.33082	0.14421
1062.04505	0.14683
1060.75928	0.14947
1059.47351	0.15218
1058.18774	0.15492
1056.90198	0.15757
1055.61621	0.16007
1054.33044	0.16244
1053.04467	0.16479
1051.75890	0.16723
1050.47313	0.16980
1049.18736	0.17248
1047.90159	0.17519
1046.61583	0.17791
1045.33006	0.18059
1044.04429	0.18325
1042.75852	0.18593
1041.47275	0.18864
1040.18698	0.19138
1038.90121	0.19414
1037.61544	0.19693
1036.32967	0.19976
1035.04391	0.20257
1033.75814	0.20527
1032.47237	0.20778
1031.18660	0.21012
1029.90083	0.21234
1028.61506	0.21442
1027.32929	0.21633
1026.04352	0.21802
1024.75775	0.21947
1023.47199	0.22069
1022.18622	0.22170
1020.90045	0.22244
1019.61468	0.22285
1018.32891	0.22290
1017.04314	0.22260
1015.75737	0.22202
1014.47160	0.22114
1013.18584	0.21998
1011.90007	0.21853
1010.61430	0.21678
1009.32853	0.21469
1008.04276	0.21215
1006.75699	0.20915
1005.47122	0.20572
1004.18545	0.20198
1002.89968	0.19799
1001.61392	0.19381
1000.32815	0.18942
999.04238	0.18480
997.75661	0.17996
996.47084	0.17497
995.18507	0.16990
993.89930	0.16481
992.61353	0.15976
991.32777	0.15477
990.04200	0.14989
988.75623	0.14517
987.47046	0.14063
986.18469	0.13621
984.89892	0.13186
983.61315	0.12754
982.32738	0.12331
981.04161	0.11927
979.75585	0.11551
978.47008	0.11208
977.18431	0.10891
975.89854	0.10596
974.61277	0.10320
973.32700	0.10069
972.04123	0.09851
970.75546	0.09674
969.46970	0.09545
968.18393	0.09467
966.89816	0.09438
965.61239	0.09452
964.32662	0.09496
963.04085	0.09554
961.75508	0.09604
960.46931	0.09626
959.18354	0.09602
957.89778	0.09528
956.61201	0.09408
955.32624	0.09251
954.04047	0.09070
952.75470	0.08878
951.46893	0.08681
950.18316	0.08483
948.89739	0.08287
947.61163	0.08094
946.32586	0.07905
945.04009	0.07722
943.75432	0.07546
942.46855	0.07380
941.18278	0.07222
939.89701	0.07066
938.61124	0.06908
937.32547	0.06753
936.03971	0.06607
934.75394	0.06472
933.46817	0.06344
932.18240	0.06218
930.89663	0.06096
929.61086	0.05983
928.32509	0.05879
927.03932	0.05783
925.75356	0.05695
924.46779	0.05614
923.18202	0.05539
921.89625	0.05465
920.61048	0.05391
919.32471	0.05321
918.03894	0.05256
916.75317	0.05193
915.46740	0.05128
914.18164	0.05063
912.89587	0.05004
911.61010	0.04952
910.32433	0.04903
909.03856	0.04852
907.75279	0.04793
906.46702	0.04732
905.18125	0.04675
903.89549	0.04626
902.60972	0.04587
901.32395	0.04555
900.03818	0.04526
898.75241	0.04492
897.46664	0.04445
896.18087	0.04387
894.89510	0.04327
893.60933	0.04276
892.32357	0.04242
891.03780	0.04223
889.75203	0.04217
888.46626	0.04224
887.18049	0.04251
885.89472	0.04316
884.60895	0.04434
883.32318	0.04615
882.03742	0.04844
880.75165	0.05078
879.46588	0.05272
878.18011	0.05409
876.89434	0.05515
875.60857	0.05633
874.32280	0.05778
873.03703	0.05929
871.75126	0.06037
870.46550	0.06065
869.17973	0.06001
867.89396	0.05863
866.60819	0.05684
865.32242	0.05494
864.03665	0.05309
862.75088	0.05134
861.46511	0.04975
860.17935	0.04833
858.89358	0.04708
857.60781	0.04593
856.32204	0.04488
855.03627	0.04399
853.75050	0.04327
852.46473	0.04267
851.17896	0.04217
849.89319	0.04176
848.60743	0.04141
847.32166	0.04105
846.03589	0.04067
844.75012	0.04027
843.46435	0.03989
842.17858	0.03952
840.89281	0.03913
839.60704	0.03874
838.32128	0.03837
837.03551	0.03806
835.74974	0.03781
834.46397	0.03763
833.17820	0.03748
831.89243	0.03731
830.60666	0.03712
829.32089	0.03694
828.03512	0.03681
826.74936	0.03669
825.46359	0.03651
824.17782	0.03625
822.89205	0.03592
821.60628	0.03558
820.32051	0.03531
819.03474	0.03515
817.74897	0.03515
816.46321	0.03524
815.17744	0.03535
813.89167	0.03541
812.60590	0.03540
811.32013	0.03531
810.03436	0.03519
808.74859	0.03507
807.46282	0.03494
806.17705	0.03479
804.89129	0.03460
803.60552	0.03441
802.31975	0.03430
801.03398	0.03429
799.74821	0.03434
798.46244	0.03438
797.17667	0.03433
795.89090	0.03423
794.60513	0.03413
793.31937	0.03410
792.03360	0.03416
790.74783	0.03427
789.46206	0.03435
788.17629	0.03434
786.89052	0.03426
785.60475	0.03417
784.31898	0.03411
783.03322	0.03408
781.74745	0.03406
780.46168	0.03400
779.17591	0.03390
777.89014	0.03379
776.60437	0.03371
775.31860	0.03364
774.03283	0.03356
772.74706	0.03349
771.46130	0.03348
770.17553	0.03354
768.88976	0.03364
767.60399	0.03371
766.31822	0.03375
765.03245	0.03376
763.74668	0.03375
762.46091	0.03372
761.17515	0.03373
759.88938	0.03380
758.60361	0.03392
757.31784	0.03401
756.03207	0.03402
754.74630	0.03395
753.46053	0.03388
752.17476	0.03388
750.88899	0.03397
749.60323	0.03411
748.31746	0.03418
747.03169	0.03409
745.74592	0.03387
744.46015	0.03361
743.17438	0.03341
741.88861	0.03331
740.60284	0.03329
739.31708	0.03335
738.03131	0.03345
736.74554	0.03353
735.45977	0.03355
734.17400	0.03356
732.88823	0.03360
731.60246	0.03367
730.31669	0.03369
729.03092	0.03361
727.74516	0.03352
726.45939	0.03359
725.17362	0.03386
723.88785	0.03414
722.60208	0.03423
721.31631	0.03409
720.03054	0.03394
718.74477	0.03394
717.45901	0.03400
716.17324	0.03405
714.88747	0.03408
713.60170	0.03412
712.31593	0.03419
711.03016	0.03427
709.74439	0.03430
708.45862	0.03426
707.17285	0.03417
705.88709	0.03409
704.60132	0.03404
703.31555	0.03404
702.02978	0.03406
700.74401	0.03409
699.45824	0.03410
698.17247	0.03407
696.88670	0.03404
695.60094	0.03404
694.31517	0.03406
693.02940	0.03408
691.74363	0.03411
690.45786	0.03415
689.17209	0.03423
687.88632	0.03433
686.60055	0.03440
685.31478	0.03441
684.02902	0.03433
682.74325	0.03419
681.45748	0.03403
680.17171	0.03391
678.88594	0.03382
677.60017	0.03374
676.31440	0.03365
675.02863	0.03359
673.74287	0.03360
672.45710	0.03385
671.17133	0.03451
669.88556	0.03497
668.59979	0.03393
667.31402	0.03390
666.02825	0.03525
664.74248	0.03484
663.45671	0.03415
662.17095	0.03384
660.88518	0.03367
659.59941	0.03352
658.31364	0.03339
657.02787	0.03329
655.74210	0.03323
654.45633	0.03321
653.17056	0.03324
651.88480	0.03330
650.59903	0.03339
649.31326	0.03344
648.02749	0.03348
646.74172	0.03345
645.45595	0.03338
644.17018	0.03332
642.88441	0.03332
641.59864	0.03338
640.31288	0.03347
639.02711	0.03359
637.74134	0.03374
636.45557	0.03389
635.16980	0.03405
633.88403	0.03421
632.59826	0.03440
631.31249	0.03474
630.02673	0.03558
628.74096	0.03670
627.45519	0.03666
626.16942	0.03802
624.88365	0.04043
623.59788	0.04298
622.31211	0.04530
621.02634	0.04703
619.74057	0.04811
618.45481	0.04903
617.16904	0.05043
615.88327	0.05246
614.59750	0.05478
613.31173	0.05722
612.02596	0.06037
610.74019	0.06503
609.45442	0.07088
608.16866	0.07644
606.88289	0.08085
605.59712	0.08474
604.31135	0.08871
603.02558	0.09206
601.73981	0.09343
600.45404	0.09241
599.16827	0.08986
597.88250	0.08697
596.59674	0.08445
595.31097	0.08236
594.02520	0.08047
592.73943	0.07866
591.45366	0.07712
590.16789	0.07611
588.88212	0.07570
587.59635	0.07585
586.31059	0.07644
585.02482	0.07743
583.73905	0.07876
582.45328	0.08041
581.16751	0.08236
579.88174	0.08459
578.59597	0.08701
577.31020	0.08946
576.02443	0.09184
574.73867	0.09416
573.45290	0.09650
572.16713	0.09897
570.88136	0.10163
569.59559	0.10445
568.30982	0.10742
567.02405	0.11052
565.73828	0.11361
564.45251	0.11637
563.16675	0.11847
561.88098	0.11965
560.59521	0.11983
559.30944	0.11891
558.02367	0.11679
556.73790	0.11343
555.45213	0.10908
554.16636	0.10422
552.88060	0.09936
551.59483	0.09484
550.30906	0.09074
549.02329	0.08698
547.73752	0.08345
546.45175	0.08012
545.16598	0.07705
543.88021	0.07433
542.59444	0.07198
541.30868	0.06993
540.02291	0.06804
538.73714	0.06622
537.45137	0.06445
536.16560	0.06274
534.87983	0.06115
533.59406	0.05969
532.30829	0.05836
531.02253	0.05711
529.73676	0.05591
528.45099	0.05476
527.16522	0.05370
525.87945	0.05274
524.59368	0.05184
523.30791	0.05094
522.02214	0.04995
520.73637	0.04890
519.45061	0.04787
518.16484	0.04694
516.87907	0.04614
515.59330	0.04538
514.30753	0.04463
513.02176	0.04388
511.73599	0.04313
510.45022	0.04240
509.16446	0.04171
507.87869	0.04114
506.59292	0.04073
505.30715	0.04043
504.02138	0.04014
502.73561	0.03975
501.44984	0.03924
500.16407	0.03862
498.87830	0.03796
497.59254	0.03735
496.30677	0.03680
495.02100	0.03633
493.73523	0.03590
492.44946	0.03548
491.16369	0.03507
489.87792	0.03468
488.59215	0.03439
487.30639	0.03425
486.02062	0.03424
484.73485	0.03424
483.44908	0.03412
482.16331	0.03384
480.87754	0.03352
479.59177	0.03330
478.30600	0.03325
477.02023	0.03336
475.73447	0.03354
474.44870	0.03370
473.16293	0.03380
471.87716	0.03387
470.59139	0.03390
469.30562	0.03384
468.01985	0.03367
466.73408	0.03340
465.44832	0.03305
464.16255	0.03264
462.87678	0.03220
461.59101	0.03173
460.30524	0.03125
459.01947	0.03077
457.73370	0.03032
456.44793	0.02993
455.16216	0.02959
453.87640	0.02926
452.59063	0.02893
451.30486	0.02861
450.01909	0.02830
448.73332	0.02800
447.44755	0.02772
446.16178	0.02750
444.87601	0.02735
443.59025	0.02723
442.30448	0.02708
441.01871	0.02685
439.73294	0.02656
438.44717	0.02624
437.16140	0.02592
435.87563	0.02565
434.58986	0.02544
433.30409	0.02529
432.01833	0.02515
430.73256	0.02497
429.44679	0.02476
428.16102	0.02453
426.87525	0.02428
425.58948	0.02405
424.30371	0.02387
423.01794	0.02372
421.73218	0.02358
420.44641	0.02341
419.16064	0.02320
417.87487	0.02297
416.58910	0.02274
415.30333	0.02252
414.01756	0.02234
412.73179	0.02218
411.44602	0.02202
410.16026	0.02184
408.87449	0.02166
407.58872	0.02153
406.30295	0.02147
405.01718	0.02146
403.73141	0.02147
402.44564	0.02148
401.15987	0.02152
399.87411	0.02159
