3997.45528 0.03281
3996.16951 0.03276
3994.88374 0.03311
3993.59798 0.03323
3992.31221 0.03260
3991.02644 0.03140
3989.74067 0.03048
3988.45490 0.03060
3987.16913 0.03186
3985.88336 0.03355
3984.59759 0.03479
3983.31183 0.03522
3982.02606 0.03499
3980.74029 0.03435
3979.45452 0.03344
3978.16875 0.03251
3976.88298 0.03193
3975.59721 0.03191
3974.31144 0.03216
3973.02567 0.03223
3971.73991 0.03200
3970.45414 0.03173
3969.16837 0.03171
3967.88260 0.03189
3966.59683 0.03194
3965.31106 0.03171
3964.02529 0.03140
3962.73952 0.03140
3961.45376 0.03193
3960.16799 0.03287
3958.88222 0.03394
3957.59645 0.03474
3956.31068 0.03484
3955.02491 0.03400
3953.73914 0.03243
3952.45337 0.03081
3951.16760 0.02986
3949.88184 0.02993
3948.59607 0.03087
3947.31030 0.03219
3946.02453 0.03329
3944.73876 0.03378
3943.45299 0.03363
3942.16722 0.03316
3940.88145 0.03282
3939.59569 0.03291
3938.30992 0.03329
3937.02415 0.03349
3935.73838 0.03310
3934.45261 0.03222
3933.16684 0.03135
3931.88107 0.03092
3930.59530 0.03104
3929.30953 0.03142
3928.02377 0.03166
3926.73800 0.03153
3925.45223 0.03119
3924.16646 0.03099
3922.88069 0.03120
3921.59492 0.03190
3920.30915 0.03310
3919.02338 0.03452
3917.73762 0.03556
3916.45185 0.03570
3915.16608 0.03496
3913.88031 0.03388
3912.59454 0.03301
3911.30877 0.03263
3910.02300 0.03277
3908.73723 0.03332
3907.45146 0.03412
3906.16570 0.03494
3904.87993 0.03548
3903.59416 0.03545
3902.30839 0.03473
3901.02262 0.03353
3899.73685 0.03236
3898.45108 0.03165
3897.16531 0.03150
3895.87955 0.03170
3894.59378 0.03207
3893.30801 0.03254
3892.02224 0.03298
3890.73647 0.03303
3889.45070 0.03245
3888.16493 0.03163
3886.87916 0.03139
3885.59339 0.03203
3884.30763 0.03291
3883.02186 0.03317
3881.73609 0.03276
3880.45032 0.03232
3879.16455 0.03241
3877.87878 0.03294
3876.59301 0.03346
3875.30724 0.03362
3874.02148 0.03339
3872.73571 0.03303
3871.44994 0.03275
3870.16417 0.03256
3868.87840 0.03226
3867.59263 0.03170
3866.30686 0.03098
3865.02109 0.03043
3863.73532 0.03023
3862.44956 0.03031
3861.16379 0.03042
3859.87802 0.03043
3858.59225 0.03050
3857.30648 0.03100
3856.02071 0.03194
3854.73494 0.03286
3853.44917 0.03330
3852.16341 0.03327
3850.87764 0.03307
3849.59187 0.03291
3848.30610 0.03281
3847.02033 0.03286
3845.73456 0.03308
3844.44879 0.03323
3843.16302 0.03288
3841.87725 0.03201
3840.59149 0.03115
3839.30572 0.03087
3838.01995 0.03123
3836.73418 0.03180
3835.44841 0.03208
3834.16264 0.03188
3832.87687 0.03126
3831.59110 0.03040
3830.30534 0.02952
3829.01957 0.02886
3827.73380 0.02857
3826.44803 0.02868
3825.16226 0.02910
3823.87649 0.02970
3822.59072 0.03033
3821.30495 0.03092
3820.01918 0.03149
3818.73342 0.03208
3817.44765 0.03267
3816.16188 0.03308
3814.87611 0.03303
3813.59034 0.03239
3812.30457 0.03143
3811.01880 0.03067
3809.73303 0.03033
3808.44726 0.03023
3807.16150 0.03013
3805.87573 0.03010
3804.58996 0.03034
3803.30419 0.03096
3802.01842 0.03172
3800.73265 0.03221
3799.44688 0.03207
3798.16111 0.03137
3796.87535 0.03054
3795.58958 0.02990
3794.30381 0.02943
3793.01804 0.02907
3791.73227 0.02888
3790.44650 0.02894
3789.16073 0.02923
3787.87496 0.02975
3786.58919 0.03043
3785.30343 0.03095
3784.01766 0.03093
3782.73189 0.03025
3781.44612 0.02924
3780.16035 0.02840
3778.87458 0.02805
3777.58881 0.02822
3776.30304 0.02872
3775.01728 0.02937
3773.73151 0.03006
3772.44574 0.03069
3771.15997 0.03108
3769.87420 0.03103
3768.58843 0.03054
3767.30266 0.02998
3766.01689 0.02976
3764.73112 0.03007
3763.44536 0.03064
3762.15959 0.03103
3760.87382 0.03094
3759.58805 0.03043
3758.30228 0.02988
3757.01651 0.02987
3755.73074 0.03061
3754.44497 0.03170
3753.15921 0.03238
3751.87344 0.03223
3750.58767 0.03149
3749.30190 0.03075
3748.01613 0.03036
3746.73036 0.03021
3745.44459 0.03020
3744.15882 0.03049
3742.87305 0.03100
3741.58729 0.03131
3740.30152 0.03116
3739.01575 0.03076
3737.72998 0.03048
3736.44421 0.03044
3735.15844 0.03038
3733.87267 0.03003
3732.58690 0.02950
3731.30114 0.02926
3730.01537 0.02948
3728.72960 0.02975
3727.44383 0.02969
3726.15806 0.02933
3724.87229 0.02899
3723.58652 0.02883
3722.30075 0.02870
3721.01498 0.02837
3719.72922 0.02788
3718.44345 0.02764
3717.15768 0.02806
3715.87191 0.02909
3714.58614 0.03011
3713.30037 0.03044
3712.01460 0.03000
3710.72883 0.02941
3709.44307 0.02949
3708.15730 0.03043
3706.87153 0.03157
3705.58576 0.03200
3704.29999 0.03158
3703.01422 0.03097
3701.72845 0.03096
3700.44268 0.03157
3699.15691 0.03210
3697.87115 0.03181
3696.58538 0.03071
3695.29961 0.02951
3694.01384 0.02885
3692.72807 0.02880
3691.44230 0.02895
3690.15653 0.02875
3688.87076 0.02792
3687.58500 0.02674
3686.29923 0.02603
3685.01346 0.02632
3683.72769 0.02748
3682.44192 0.02893
3681.15615 0.03020
3679.87038 0.03128
3678.58461 0.03224
3677.29884 0.03288
3676.01308 0.03294
3674.72731 0.03241
3673.44154 0.03149
3672.15577 0.03050
3670.87000 0.02976
3669.58423 0.02949
3668.29846 0.02963
3667.01269 0.02996
3665.72693 0.03028
3664.44116 0.03049
3663.15539 0.03059
3661.86962 0.03069
3660.58385 0.03083
3659.29808 0.03092
3658.01231 0.03087
3656.72654 0.03079
3655.44077 0.03090
3654.15501 0.03129
3652.86924 0.03161
3651.58347 0.03141
3650.29770 0.03057
3649.01193 0.02952
3647.72616 0.02885
3646.44039 0.02877
3645.15462 0.02908
3643.86886 0.02949
3642.58309 0.02990
3641.29732 0.03038
3640.01155 0.03100
3638.72578 0.03180
3637.44001 0.03254
3636.15424 0.03282
3634.86847 0.03241
3633.58270 0.03167
3632.29694 0.03127
3631.01117 0.03154
3629.72540 0.03226
3628.43963 0.03290
3627.15386 0.03310
3625.86809 0.03287
3624.58232 0.03252
3623.29655 0.03240
3622.01079 0.03266
3620.72502 0.03318
3619.43925 0.03364
3618.15348 0.03381
3616.86771 0.03372
3615.58194 0.03364
3614.29617 0.03381
3613.01040 0.03421
3611.72463 0.03465
3610.43887 0.03509
3609.15310 0.03561
3607.86733 0.03625
3606.58156 0.03692
3605.29579 0.03746
3604.01002 0.03784
3602.72425 0.03799
3601.43848 0.03780
3600.15272 0.03724
3598.86695 0.03660
3597.58118 0.03627
3596.29541 0.03643
3595.00964 0.03685
3593.72387 0.03721
3592.43810 0.03742
3591.15233 0.03778
3589.86656 0.03865
3588.58080 0.03983
3587.29503 0.04070
3586.00926 0.04080
3584.72349 0.04028
3583.43772 0.03964
3582.15195 0.03918
3580.86618 0.03897
3579.58041 0.03902
3578.29464 0.03945
3577.00888 0.04035
3575.72311 0.04147
3574.43734 0.04231
3573.15157 0.04244
3571.86580 0.04189
3570.58003 0.04107
3569.29426 0.04043
3568.00849 0.04019
3566.72273 0.04033
3565.43696 0.04068
3564.15119 0.04100
3562.86542 0.04108
3561.57965 0.04091
3560.29388 0.04076
3559.00811 0.04105
3557.72234 0.04201
3556.43657 0.04344
3555.15081 0.04479
3553.86504 0.04551
3552.57927 0.04541
3551.29350 0.04481
3550.00773 0.04424
3548.72196 0.04399
3547.43619 0.04399
3546.15042 0.04410
3544.86466 0.04436
3543.57889 0.04496
3542.29312 0.04586
3541.00735 0.04672
3539.72158 0.04717
3538.43581 0.04717
3537.15004 0.04680
3535.86427 0.04615
3534.57850 0.04521
3533.29274 0.04424
3532.00697 0.04382
3530.72120 0.04439
3529.43543 0.04576
3528.14966 0.04722
3526.86389 0.04807
3525.57812 0.04814
3524.29235 0.04774
3523.00659 0.04724
3521.72082 0.04684
3520.43505 0.04661
3519.14928 0.04665
3517.86351 0.04707
3516.57774 0.04787
3515.29197 0.04869
3514.00620 0.04914
3512.72043 0.04907
3511.43467 0.04878
3510.14890 0.04875
3508.86313 0.04923
3507.57736 0.05005
3506.29159 0.05073
3505.00582 0.05092
3503.72005 0.05065
3502.43428 0.05023
3501.14852 0.04999
3499.86275 0.05011
3498.57698 0.05060
3497.29121 0.05135
3496.00544 0.05211
3494.71967 0.05259
3493.43390 0.05268
3492.14813 0.05253
3490.86236 0.05244
3489.57660 0.05255
3488.29083 0.05283
3487.00506 0.05321
3485.71929 0.05368
3484.43352 0.05417
3483.14775 0.05443
3481.86198 0.05432
3480.57621 0.05402
3479.29045 0.05387
3478.00468 0.05392
3476.71891 0.05390
3475.43314 0.05364
3474.14737 0.05333
3472.86160 0.05340
3471.57583 0.05404
3470.29006 0.05504
3469.00429 0.05593
3467.71853 0.05625
3466.43276 0.05578
3465.14699 0.05474
3463.86122 0.05367
3462.57545 0.05310
3461.28968 0.05320
3460.00391 0.05374
3458.71814 0.05437
3457.43238 0.05498
3456.14661 0.05557
3454.86084 0.05605
3453.57507 0.05619
3452.28930 0.05584
3451.00353 0.05516
3449.71776 0.05462
3448.43199 0.05457
3447.14622 0.05491
3445.86046 0.05533
3444.57469 0.05567
3443.28892 0.05612
3442.00315 0.05683
3440.71738 0.05764
3439.43161 0.05817
3438.14584 0.05829
3436.86007 0.05815
3435.57431 0.05784
3434.28854 0.05728
3433.00277 0.05655
3431.71700 0.05617
3430.43123 0.05667
3429.14546 0.05798
3427.85969 0.05939
3426.57392 0.06014
3425.28815 0.06003
3424.00239 0.05937
3422.71662 0.05864
3421.43085 0.05817
3420.14508 0.05814
3418.85931 0.05845
3417.57354 0.05893
3416.28777 0.05942
3415.00200 0.05996
3413.71624 0.06056
3412.43047 0.06106
3411.14470 0.06113
3409.85893 0.06072
3408.57316 0.06018
3407.28739 0.06000
3406.00162 0.06029
3404.71585 0.06069
3403.43008 0.06077
3402.14432 0.06063
3400.85855 0.06081
3399.57278 0.06126
3398.28701 0.06188
3397.00124 0.06274
3395.71547 0.06322
3394.42970 0.06302
3393.14393 0.06237
3391.85817 0.06176
3390.57240 0.06159
3389.28663 0.06192
3388.00086 0.06249
3386.71509 0.06303
3385.42932 0.06346
3384.14355 0.06381
3382.85778 0.06410
3381.57201 0.06427
3380.28625 0.06418
3379.00048 0.06381
3377.71471 0.06330
3376.42894 0.06294
3375.14317 0.06295
3373.85740 0.06323
3372.57163 0.06353
3371.28586 0.06362
3370.00010 0.06347
3368.71433 0.06322
3367.42856 0.06302
3366.14279 0.06293
3364.85702 0.06298
3363.57125 0.06307
3362.28548 0.06314
3360.99971 0.06320
3359.71394 0.06341
3358.42818 0.06391
3357.14241 0.06461
3355.85664 0.06521
3354.57087 0.06543
3353.28510 0.06521
3351.99933 0.06473
3350.71356 0.06431
3349.42779 0.06417
3348.14202 0.06429
3346.85626 0.06441
3345.57049 0.06441
3344.28472 0.06435
3342.99895 0.06433
3341.71318 0.06429
3340.42741 0.06420
3339.14164 0.06424
3337.85587 0.06466
3336.57011 0.06545
3335.28434 0.06633
3333.99857 0.06698
3332.71280 0.06731
3331.42703 0.06728
3330.14126 0.06691
3328.85549 0.06627
3327.56972 0.06562
3326.28395 0.06523
3324.99819 0.06519
3323.71242 0.06539
3322.42665 0.06566
3321.14088 0.06593
3319.85511 0.06625
3318.56934 0.06665
3317.28357 0.06706
3315.99780 0.06741
3314.71204 0.06773
3313.42627 0.06804
3312.14050 0.06831
3310.85473 0.06852
3309.56896 0.06882
3308.28319 0.06928
3306.99742 0.06968
3305.71165 0.06962
3304.42588 0.06899
3303.14012 0.06815
3301.85435 0.06759
3300.56858 0.06750
3299.28281 0.06768
3297.99704 0.06780
3296.71127 0.06762
3295.42550 0.06718
3294.13973 0.06679
3292.85397 0.06684
3291.56820 0.06743
3290.28243 0.06831
3288.99666 0.06914
3287.71089 0.06964
3286.42512 0.06972
3285.13935 0.06942
3283.85358 0.06896
3282.56781 0.06863
3281.28205 0.06856
3279.99628 0.06859
3278.71051 0.06853
3277.42474 0.06832
3276.13897 0.06804
3274.85320 0.06781
3273.56743 0.06775
3272.28166 0.06792
3270.99590 0.06826
3269.71013 0.06860
3268.42436 0.06883
3267.13859 0.06899
3265.85282 0.06913
3264.56705 0.06919
3263.28128 0.06906
3261.99551 0.06880
3260.70974 0.06855
3259.42398 0.06836
3258.13821 0.06809
3256.85244 0.06766
3255.56667 0.06717
3254.28090 0.06680
3252.99513 0.06666
3251.70936 0.06673
3250.42359 0.06697
3249.13783 0.06724
3247.85206 0.06728
3246.56629 0.06686
3245.28052 0.06607
3243.99475 0.06527
3242.70898 0.06485
3241.42321 0.06497
3240.13744 0.06556
3238.85167 0.06634
3237.56591 0.06694
3236.28014 0.06709
3234.99437 0.06673
3233.70860 0.06609
3232.42283 0.06547
3231.13706 0.06513
3229.85129 0.06510
3228.56552 0.06518
3227.27976 0.06506
3225.99399 0.06465
3224.70822 0.06422
3223.42245 0.06413
3222.13668 0.06449
3220.85091 0.06508
3219.56514 0.06551
3218.27937 0.06551
3216.99360 0.06511
3215.70784 0.06466
3214.42207 0.06444
3213.13630 0.06445
3211.85053 0.06446
3210.56476 0.06437
3209.27899 0.06429
3207.99322 0.06437
3206.70745 0.06453
3205.42169 0.06460
3204.13592 0.06455
3202.85015 0.06456
3201.56438 0.06473
3200.27861 0.06490
3198.99284 0.06481
3197.70707 0.06447
3196.42130 0.06419
3195.13553 0.06418
3193.84977 0.06432
3192.56400 0.06437
3191.27823 0.06424
3189.99246 0.06406
3188.70669 0.06396
3187.42092 0.06385
3186.13515 0.06353
3184.84938 0.06306
3183.56362 0.06278
3182.27785 0.06297
3180.99208 0.06349
3179.70631 0.06388
3178.42054 0.06383
3177.13477 0.06343
3175.84900 0.06302
3174.56323 0.06280
3173.27746 0.06264
3171.99170 0.06226
3170.70593 0.06161
3169.42016 0.06090
3168.13439 0.06038
3166.84862 0.06011
3165.56285 0.05996
3164.27708 0.05981
3162.99131 0.05967
3161.70555 0.05965
3160.41978 0.05981
3159.13401 0.06012
3157.84824 0.06039
3156.56247 0.06041
3155.27670 0.06011
3153.99093 0.05971
3152.70516 0.05956
3151.41939 0.05982
3150.13363 0.06026
3148.84786 0.06044
3147.56209 0.06023
3146.27632 0.05992
3144.99055 0.05992
3143.70478 0.06033
3142.41901 0.06088
3141.13324 0.06122
3139.84748 0.06120
3138.56171 0.06093
3137.27594 0.06065
3135.99017 0.06047
3134.70440 0.06031
3133.41863 0.06009
3132.13286 0.05984
3130.84709 0.05956
3129.56132 0.05912
3128.27556 0.05845
3126.98979 0.05771
3125.70402 0.05720
3124.41825 0.05706
3123.13248 0.05718
3121.84671 0.05737
3120.56094 0.05761
3119.27517 0.05792
3117.98940 0.05828
3116.70364 0.05858
3115.41787 0.05878
3114.13210 0.05893
3112.84633 0.05911
3111.56056 0.05931
3110.27479 0.05938
3108.98902 0.05919
3107.70325 0.05874
3106.41749 0.05816
3105.13172 0.05762
3103.84595 0.05729
3102.56018 0.05723
3101.27441 0.05737
3099.98864 0.05753
3098.70287 0.05760
3097.41710 0.05761
3096.13133 0.05764
3094.84557 0.05779
3093.55980 0.05809
3092.27403 0.05847
3090.98826 0.05875
3089.70249 0.05883
3088.41672 0.05869
3087.13095 0.05833
3085.84518 0.05774
3084.55942 0.05708
3083.27365 0.05671
3081.98788 0.05684
3080.70211 0.05725
3079.41634 0.05759
3078.13057 0.05770
3076.84480 0.05770
3075.55903 0.05774
3074.27326 0.05779
3072.98750 0.05779
3071.70173 0.05782
3070.41596 0.05799
3069.13019 0.05825
3067.84442 0.05832
3066.55865 0.05807
3065.27288 0.05765
3063.98711 0.05731
3062.70135 0.05707
3061.41558 0.05676
3060.12981 0.05632
3058.84404 0.05593
3057.55827 0.05578
3056.27250 0.05583
3054.98673 0.05591
3053.70096 0.05588
3052.41519 0.05579
3051.12943 0.05575
3049.84366 0.05578
3048.55789 0.05580
3047.27212 0.05572
3045.98635 0.05548
3044.70058 0.05507
3043.41481 0.05458
3042.12904 0.05421
3040.84328 0.05413
3039.55751 0.05431
3038.27174 0.05457
3036.98597 0.05469
3035.70020 0.05465
3034.41443 0.05458
3033.12866 0.05454
3031.84289 0.05444
3030.55712 0.05422
3029.27136 0.05394
3027.98559 0.05371
3026.69982 0.05357
3025.41405 0.05351
3024.12828 0.05351
3022.84251 0.05354
3021.55674 0.05349
3020.27097 0.05337
3018.98521 0.05331
3017.69944 0.05341
3016.41367 0.05355
3015.12790 0.05355
3013.84213 0.05335
3012.55636 0.05305
3011.27059 0.05274
3009.98482 0.05245
3008.69905 0.05221
3007.41329 0.05206
3006.12752 0.05200
3004.84175 0.05191
3003.55598 0.05172
3002.27021 0.05162
3000.98444 0.05169
2999.69867 0.05147
2998.41290 0.05167
2997.12714 0.05185
2995.84137 0.05204
2994.55560 0.05228
2993.26983 0.05248
2991.98406 0.05247
2990.69829 0.05226
2989.41252 0.05203
2988.12675 0.05190
2986.84098 0.05185
2985.55522 0.05183
2984.26945 0.05193
2982.98368 0.05218
2981.69791 0.05248
2980.41214 0.05265
2979.12637 0.05268
2977.84060 0.05272
2976.55483 0.05289
2975.26907 0.05313
2973.98330 0.05335
2972.69753 0.05352
2971.41176 0.05376
2970.12599 0.05415
2968.84022 0.05462
2967.55445 0.05501
2966.26868 0.05529
2964.98291 0.05559
2963.69715 0.05601
2962.41138 0.05647
2961.12561 0.05688
2959.83984 0.05722
2958.55407 0.05758
2957.26830 0.05800
2955.98253 0.05843
2954.69676 0.05875
2953.41100 0.05882
2952.12523 0.05866
2950.83946 0.05846
2949.55369 0.05844
2948.26792 0.05856
2946.98215 0.05852
2945.69638 0.05807
2944.41061 0.05729
2943.12484 0.05653
2941.83908 0.05621
2940.55331 0.05648
2939.26754 0.05715
2937.98177 0.05778
2936.69600 0.05801
2935.41023 0.05784
2934.12446 0.05771
2932.83869 0.05800
2931.55293 0.05860
2930.26716 0.05909
2928.98139 0.05921
2927.69562 0.05908
2926.40985 0.05887
2925.12408 0.05854
2923.83831 0.05804
2922.55254 0.05760
2921.26677 0.05751
2919.98101 0.05772
2918.69524 0.05790
2917.40947 0.05781
2916.12370 0.05749
2914.83793 0.05709
2913.55216 0.05666
2912.26639 0.05625
2910.98062 0.05600
2909.69486 0.05594
2908.40909 0.05588
2907.12332 0.05559
2905.83755 0.05512
2904.55178 0.05470
2903.26601 0.05447
2901.98024 0.05439
2900.69447 0.05439
2899.40870 0.05446
2898.12294 0.05456
2896.83717 0.05451
2895.55140 0.05421
2894.26563 0.05368
2892.97986 0.05313
2891.69409 0.05268
2890.40832 0.05232
2889.12255 0.05196
2887.83678 0.05149
2886.55102 0.05095
2885.26525 0.05051
2883.97948 0.05032
2882.69371 0.05041
2881.40794 0.05063
2880.12217 0.05077
2878.83640 0.05072
2877.55063 0.05061
2876.26487 0.05072
2874.97910 0.05113
2873.69333 0.05161
2872.40756 0.05185
2871.12179 0.05185
2869.83602 0.05181
2868.55025 0.05187
2867.26448 0.05187
2865.97871 0.05157
2864.69295 0.05102
2863.40718 0.05052
2862.12141 0.05035
2860.83564 0.05043
2859.54987 0.05050
2858.26410 0.05040
2856.97833 0.05021
2855.69256 0.05004
2854.40680 0.05001
2853.12103 0.05013
2851.83526 0.05028
2850.54949 0.05024
2849.26372 0.04988
2847.97795 0.04935
2846.69218 0.04891
2845.40641 0.04867
2844.12064 0.04850
2842.83488 0.04822
2841.54911 0.04775
2840.26334 0.04721
2838.97757 0.04672
2837.69180 0.04635
2836.40603 0.04604
2835.12026 0.04566
2833.83449 0.04519
2832.54873 0.04473
2831.26296 0.04437
2829.97719 0.04411
2828.69142 0.04390
2827.40565 0.04374
2826.11988 0.04368
2824.83411 0.04372
2823.54834 0.04380
2822.26257 0.04381
2820.97681 0.04370
2819.69104 0.04348
2818.40527 0.04320
2817.11950 0.04291
2815.83373 0.04268
2814.54796 0.04262
2813.26219 0.04276
2811.97642 0.04300
2810.69066 0.04315
2809.40489 0.04317
2808.11912 0.04314
2806.83335 0.04313
2805.54758 0.04297
2804.26181 0.04256
2802.97604 0.04201
2801.69027 0.04166
2800.40450 0.04162
2799.11874 0.04174
2797.83297 0.04173
2796.54720 0.04148
2795.26143 0.04117
2793.97566 0.04104
2792.68989 0.04116
2791.40412 0.04140
2790.11835 0.04155
2788.83259 0.04150
2787.54682 0.04128
2786.26105 0.04101
2784.97528 0.04079
2783.68951 0.04066
2782.40374 0.04055
2781.11797 0.04048
2779.83220 0.04056
2778.54643 0.04086
2777.26067 0.04125
2775.97490 0.04149
2774.68913 0.04144
2773.40336 0.04112
2772.11759 0.04073
2770.83182 0.04048
2769.54605 0.04050
2768.26028 0.04069
2766.97452 0.04079
2765.68875 0.04066
2764.40298 0.04038
2763.11721 0.04015
2761.83144 0.04004
2760.54567 0.03996
2759.25990 0.03978
2757.97413 0.03959
2756.68836 0.03954
2755.40260 0.03969
2754.11683 0.03994
2752.83106 0.04015
2751.54529 0.04022
2750.25952 0.04017
2748.97375 0.04011
2747.68798 0.04004
2746.40221 0.03986
2745.11645 0.03955
2743.83068 0.03923
2742.54491 0.03908
2741.25914 0.03906
2739.97337 0.03901
2738.68760 0.03886
2737.40183 0.03872
2736.11606 0.03870
2734.83029 0.03874
2733.54453 0.03877
2732.25876 0.03880
2730.97299 0.03886
2729.68722 0.03895
2728.40145 0.03898
2727.11568 0.03889
2725.82991 0.03871
2724.54414 0.03852
2723.25838 0.03838
2721.97261 0.03835
2720.68684 0.03838
2719.40107 0.03835
2718.11530 0.03819
2716.82953 0.03796
2715.54376 0.03778
2714.25799 0.03771
2712.97222 0.03776
2711.68646 0.03786
2710.40069 0.03796
2709.11492 0.03796
2707.82915 0.03783
2706.54338 0.03760
2705.25761 0.03737
2703.97184 0.03726
2702.68607 0.03725
2701.40031 0.03720
2700.11454 0.03701
2698.82877 0.03671
2697.54300 0.03648
2696.25723 0.03646
2694.97146 0.03660
2693.68569 0.03676
2692.39992 0.03677
2691.11415 0.03663
2689.82839 0.03646
2688.54262 0.03640
2687.25685 0.03646
2685.97108 0.03650
2684.68531 0.03641
2683.39954 0.03619
2682.11377 0.03597
2680.82800 0.03586
2679.54224 0.03585
2678.25647 0.03587
2676.97070 0.03584
2675.68493 0.03582
2674.39916 0.03584
2673.11339 0.03592
2671.82762 0.03599
2670.54185 0.03601
2669.25608 0.03598
2667.97032 0.03588
2666.68455 0.03564
2665.39878 0.03528
2664.11301 0.03499
2662.82724 0.03500
2661.54147 0.03534
2660.25570 0.03577
2658.96993 0.03609
2657.68417 0.03621
2656.39840 0.03621
2655.11263 0.03616
2653.82686 0.03615
2652.54109 0.03612
2651.25532 0.03595
2649.96955 0.03550
2648.68378 0.03482
2647.39801 0.03418
2646.11225 0.03381
2644.82648 0.03378
2643.54071 0.03392
2642.25494 0.03404
2640.96917 0.03396
2639.68340 0.03372
2638.39763 0.03348
2637.11186 0.03333
2635.82609 0.03321
2634.54033 0.03305
2633.25456 0.03295
2631.96879 0.03305
2630.68302 0.03344
2629.39725 0.03400
2628.11148 0.03445
2626.82571 0.03453
2625.53994 0.03417
2624.25418 0.03360
2622.96841 0.03307
2621.68264 0.03268
2620.39687 0.03236
2619.11110 0.03209
2617.82533 0.03181
2616.53956 0.03155
2615.25379 0.03141
2613.96802 0.03151
2612.68226 0.03174
2611.39649 0.03182
2610.11072 0.03160
2608.82495 0.03120
2607.53918 0.03086
2606.25341 0.03064
2604.96764 0.03053
2603.68187 0.03059
2602.39611 0.03082
2601.11034 0.03110
2599.82457 0.03124
2598.53880 0.03113
2597.25303 0.03084
2595.96726 0.03052
2594.68149 0.03028
2593.39572 0.03010
2592.10995 0.02992
2590.82419 0.02970
2589.53842 0.02946
2588.25265 0.02925
2586.96688 0.02912
2585.68111 0.02907
2584.39534 0.02908
2583.10957 0.02911
2581.82380 0.02911
2580.53804 0.02911
2579.25227 0.02920
2577.96650 0.02947
2576.68073 0.02990
2575.39496 0.03035
2574.10919 0.03061
2572.82342 0.03051
2571.53765 0.03001
2570.25188 0.02931
2568.96612 0.02879
2567.68035 0.02875
2566.39458 0.02910
2565.10881 0.02942
2563.82304 0.02930
2562.53727 0.02868
2561.25150 0.02790
2559.96573 0.02731
2558.67997 0.02695
2557.39420 0.02667
2556.10843 0.02644
2554.82266 0.02640
2553.53689 0.02651
2552.25112 0.02660
2550.96535 0.02657
2549.67958 0.02650
2548.39381 0.02644
2547.10805 0.02630
2545.82228 0.02612
2544.53651 0.02608
2543.25074 0.02632
2541.96497 0.02682
2540.67920 0.02738
2539.39343 0.02778
2538.10766 0.02786
2536.82190 0.02758
2535.53613 0.02704
2534.25036 0.02649
2532.96459 0.02620
2531.67882 0.02628
2530.39305 0.02647
2529.10728 0.02650
2527.82151 0.02636
2526.53574 0.02637
2525.24998 0.02674
2523.96421 0.02736
2522.67844 0.02791
2521.39267 0.02825
2520.10690 0.02839
2518.82113 0.02837
2517.53536 0.02819
2516.24959 0.02785
2514.96383 0.02745
2513.67806 0.02718
2512.39229 0.02721
2511.10652 0.02750
2509.82075 0.02779
2508.53498 0.02774
2507.24921 0.02722
2505.96344 0.02642
2504.67767 0.02579
2503.39191 0.02561
2502.10614 0.02577
2500.82037 0.02595
2499.53460 0.02601
2498.24883 0.02604
2496.96306 0.02614
2495.67729 0.02631
2494.39152 0.02646
2493.10576 0.02659
2491.81999 0.02671
2490.53422 0.02675
2489.24845 0.02667
2487.96268 0.02653
2486.67691 0.02647
2485.39114 0.02654
2484.10537 0.02670
2482.81960 0.02687
2481.53384 0.02695
2480.24807 0.02678
2478.96230 0.02636
2477.67653 0.02595
2476.39076 0.02589
2475.10499 0.02619
2473.81922 0.02647
2472.53345 0.02634
2471.24769 0.02580
2469.96192 0.02515
2468.67615 0.02470
2467.39038 0.02458
2466.10461 0.02477
2464.81884 0.02510
2463.53307 0.02540
2462.24730 0.02558
2460.96153 0.02566
2459.67577 0.02571
2458.39000 0.02574
2457.10423 0.02568
2455.81846 0.02550
2454.53269 0.02524
2453.24692 0.02507
2451.96115 0.02517
2450.67538 0.02557
2449.38962 0.02608
2448.10385 0.02649
2446.81808 0.02672
2445.53231 0.02680
2444.24654 0.02671
2442.96077 0.02640
2441.67500 0.02592
2440.38923 0.02551
2439.10346 0.02538
2437.81770 0.02549
2436.53193 0.02563
2435.24616 0.02563
2433.96039 0.02562
2432.67462 0.02583
2431.38885 0.02631
2430.10308 0.02678
2428.81731 0.02693
2427.53155 0.02668
2426.24578 0.02622
2424.96001 0.02570
2423.67424 0.02514
2422.38847 0.02449
2421.10270 0.02379
2419.81693 0.02324
2418.53116 0.02313
2417.24539 0.02355
2415.95963 0.02435
2414.67386 0.02518
2413.38809 0.02575
2412.10232 0.02592
2410.81655 0.02577
2409.53078 0.02547
2408.24501 0.02516
2406.95924 0.02486
2405.67347 0.02455
2404.38771 0.02430
2403.10194 0.02420
2401.81617 0.02422
2400.53040 0.02428
2399.24463 0.02518
2397.95886 0.02473
2396.67309 0.02454
2395.38732 0.02485
2394.10156 0.02518
2392.81579 0.02530
2391.53002 0.02520
2390.24425 0.02494
2388.95848 0.02462
2387.67271 0.02432
2386.38694 0.02412
2385.10117 0.02404
2383.81540 0.02403
2382.52964 0.02403
2381.24387 0.02400
2379.95810 0.02398
2378.67233 0.02386
2377.38656 0.02390
2376.10079 0.02433
2374.81502 0.02493
2373.52925 0.02499
2372.24349 0.02459
2370.95772 0.02443
2369.67195 0.02475
2368.38618 0.02530
2367.10041 0.02558
2365.81464 0.02559
2364.52887 0.02533
2363.24310 0.02500
2361.95733 0.02476
2360.67157 0.02457
2359.38580 0.02459
2358.10003 0.02479
2356.81426 0.02511
2355.52849 0.02555
2354.24272 0.02612
2352.95695 0.02657
2351.67118 0.02641
2350.38542 0.02606
2349.09965 0.02608
2347.81388 0.02616
2346.52811 0.02585
2345.24234 0.02562
2343.95657 0.02594
2342.67080 0.02690
2341.38503 0.02666
2340.09926 0.02555
2338.81350 0.02554
2337.52773 0.02641
2336.24196 0.02605
2334.95619 0.02527
2333.67042 0.02561
2332.38465 0.02673
2331.09888 0.02617
2329.81311 0.02603
2328.52735 0.02665
2327.24158 0.02657
2325.95581 0.02642
2324.67004 0.02667
2323.38427 0.02713
2322.09850 0.02689
2320.81273 0.02675
2319.52696 0.02659
2318.24119 0.02635
2316.95543 0.02607
2315.66966 0.02561
2314.38389 0.02523
2313.09812 0.02491
2311.81235 0.02457
2310.52658 0.02451
2309.24081 0.02453
2307.95504 0.02427
2306.66928 0.02383
2305.38351 0.02338
2304.09774 0.02330
2302.81197 0.02359
2301.52620 0.02391
2300.24043 0.02398
2298.95466 0.02362
2297.66889 0.02301
2296.38312 0.02253
2295.09736 0.02250
2293.81159 0.02290
2292.52582 0.02337
2291.24005 0.02361
2289.95428 0.02358
2288.66851 0.02347
2287.38274 0.02336
2286.09697 0.02316
2284.81121 0.02281
2283.52544 0.02252
2282.23967 0.02251
2280.95390 0.02276
2279.66813 0.02296
2278.38236 0.02281
2277.09659 0.02229
2275.81082 0.02170
2274.52505 0.02139
2273.23929 0.02141
2271.95352 0.02151
2270.66775 0.02142
2269.38198 0.02108
2268.09621 0.02060
2266.81044 0.02018
2265.52467 0.01996
2264.23890 0.01994
2262.95314 0.01992
2261.66737 0.01959
2260.38160 0.01890
2259.09583 0.01808
2257.81006 0.01750
2256.52429 0.01731
2255.23852 0.01745
2253.95275 0.01770
2252.66698 0.01789
2251.38122 0.01774
2250.09545 0.01753
2248.80968 0.01842
2247.52391 0.01806
2246.23814 0.01738
2244.95237 0.01684
2243.66660 0.01681
2242.38083 0.01740
2241.09507 0.01844
2239.80930 0.01952
2238.52353 0.02021
2237.23776 0.02027
2235.95199 0.01992
2234.66622 0.01960
2233.38045 0.01968
2232.09468 0.02010
2230.80891 0.02042
2229.52315 0.02020
2228.23738 0.01945
2226.95161 0.01856
2225.66584 0.01777
2224.38007 0.01701
2223.09430 0.01624
2221.80853 0.01577
2220.52276 0.01591
2219.23700 0.01653
2217.95123 0.01710
2216.66546 0.01711
2215.37969 0.01658
2214.09392 0.01609
2212.80815 0.01623
2211.52238 0.01698
2210.23661 0.01767
2208.95084 0.01770
2207.66508 0.01706
2206.37931 0.01610
2205.09354 0.01511
2203.80777 0.01430
2202.52200 0.01386
2201.23623 0.01381
2199.95046 0.01392
2198.66469 0.01397
2197.37893 0.01400
2196.09316 0.01415
2194.80739 0.01450
2193.52162 0.01501
2192.23585 0.01560
2190.95008 0.01605
2189.66431 0.01615
2188.37854 0.01568
2187.09277 0.01449
2185.80701 0.01259
2184.52124 0.01036
2183.23547 0.00856
2181.94970 0.00784
2180.66393 0.00822
2179.37816 0.00912
2178.09239 0.00997
2176.80662 0.01063
2175.52085 0.01114
2174.23509 0.01134
2172.94932 0.01097
2171.66355 0.01030
2170.37778 0.01000
2169.09201 0.01050
2167.80624 0.01139
2166.52047 0.01183
2165.23470 0.01135
2163.94894 0.01023
2162.66317 0.00915
2161.37740 0.00840
2160.09163 0.00771
2158.80586 0.00685
2157.52009 0.00617
2156.23432 0.00605
2154.94855 0.00629
2153.66278 0.00645
2152.37702 0.00667
2151.09125 0.00748
2149.80548 0.00898
2148.51971 0.01052
2147.23394 0.01128
2145.94817 0.01108
2144.66240 0.01037
2143.37663 0.00974
2142.09087 0.00943
2140.80510 0.00941
2139.51933 0.00954
2138.23356 0.00957
2136.94779 0.00932
2135.66202 0.00899
2134.37625 0.00910
2133.09048 0.00986
2131.80471 0.01084
2130.51895 0.01146
2129.23318 0.01150
2127.94741 0.01123
2126.66164 0.01114
2125.37587 0.01160
2124.09010 0.01257
2122.80433 0.01351
2121.51856 0.01388
2120.23280 0.01375
2118.94703 0.01365
2117.66126 0.01393
2116.37549 0.01435
2115.08972 0.01446
2113.80395 0.01415
2112.51818 0.01367
2111.23241 0.01334
2109.94664 0.01330
2108.66088 0.01340
2107.37511 0.01335
2106.08934 0.01299
2104.80357 0.01249
2103.51780 0.01228
2102.23203 0.01250
2100.94626 0.01289
2099.66049 0.01441
2098.37473 0.01516
2097.08896 0.01480
2095.80319 0.01398
2094.51742 0.01307
2093.23165 0.01243
2091.94588 0.01240
2090.66011 0.01291
2089.37434 0.01340
2088.08857 0.01327
2086.80281 0.01254
2085.51704 0.01173
2084.23127 0.01147
2082.94550 0.01190
2081.65973 0.01265
2080.37396 0.01324
2079.08819 0.01355
2077.80242 0.01376
2076.51666 0.01399
2075.23089 0.01413
2073.94512 0.01405
2072.65935 0.01381
2071.37358 0.01356
2070.08781 0.01339
2068.80204 0.01326
2067.51627 0.01302
2066.23050 0.01242
2064.94474 0.01136
2063.65897 0.01007
2062.37320 0.00905
2061.08743 0.00865
2059.80166 0.00883
2058.51589 0.00924
2057.23012 0.00951
2055.94435 0.00954
2054.65859 0.00952
2053.37282 0.00966
2052.08705 0.01001
2050.80128 0.01043
2049.51551 0.01073
2048.22974 0.01079
2046.94397 0.01052
2045.65820 0.00990
2044.37243 0.00908
2043.08667 0.00843
2041.80090 0.00830
2040.51513 0.00878
2039.22936 0.00959
2037.94359 0.01029
2036.65782 0.01066
2035.37205 0.01087
2034.08628 0.01120
2032.80052 0.01157
2031.51475 0.01146
2030.22898 0.01039
2028.94321 0.00863
2027.65744 0.00709
2026.37167 0.00655
2025.08590 0.00706
2023.80013 0.00810
2022.51436 0.00905
2021.22860 0.00944
2019.94283 0.00890
2018.65706 0.00751
2017.37129 0.00604
2016.08552 0.00546
2014.79975 0.00608
2013.51398 0.00735
2012.22821 0.00847
2010.94245 0.00896
2009.65668 0.00885
2008.37091 0.00852
2007.08514 0.00852
2005.79937 0.00912
2004.51360 0.00992
2003.22783 0.01018
2001.94206 0.00968
2000.65629 0.00898
1999.37053 0.00881
1998.08476 0.00925
1996.79899 0.00978
1995.51322 0.01003
1994.22745 0.01012
1992.94168 0.01033
1991.65591 0.01060
1990.37014 0.01059
1989.08438 0.01020
1987.79861 0.00979
1986.51284 0.00985
1985.22707 0.01060
1983.94130 0.01178
1982.65553 0.01288
1981.36976 0.01337
1980.08399 0.01301
1978.79822 0.01203
1977.51246 0.01096
1976.22669 0.01019
1974.94092 0.00969
1973.65515 0.00938
1972.36938 0.00945
1971.08361 0.01024
1969.79784 0.01171
1968.51207 0.01319
1967.22631 0.01397
1965.94054 0.01396
1964.65477 0.01374
1963.36900 0.01393
1962.08323 0.01445
1960.79746 0.01476
1959.51169 0.01447
1958.22592 0.01372
1956.94015 0.01288
1955.65439 0.01217
1954.36862 0.01165
1953.08285 0.01133
1951.79708 0.01124
1950.51131 0.01152
1949.22554 0.01223
1947.93977 0.01321
1946.65400 0.01402
1945.36823 0.01439
1944.08247 0.01436
1942.79670 0.01422
1941.51093 0.01424
1940.22516 0.01443
1938.93939 0.01468
1937.65362 0.01476
1936.36785 0.01454
1935.08208 0.01408
1933.79632 0.01368
1932.51055 0.01361
1931.22478 0.01391
1929.93901 0.01440
1928.65324 0.01491
1927.36747 0.01531
1926.08170 0.01544
1924.79593 0.01525
1923.51016 0.01501
1922.22440 0.01513
1920.93863 0.01571
1919.65286 0.01634
1918.36709 0.01656
1917.08132 0.01628
1915.79555 0.01575
1914.50978 0.01531
1913.22401 0.01514
1911.93825 0.01527
1910.65248 0.01558
1909.36671 0.01587
1908.08094 0.01596
1906.79517 0.01574
1905.50940 0.01526
1904.22363 0.01474
1902.93786 0.01441
1901.65209 0.01439
1900.36633 0.01459
1899.08056 0.01488
1897.79479 0.01510
1896.50902 0.01519
1895.22325 0.01521
1893.93748 0.01529
1892.65171 0.01555
1891.36594 0.01591
1890.08018 0.01616
1888.79441 0.01616
1887.50864 0.01593
1886.22287 0.01561
1884.93710 0.01532
1883.65133 0.01511
1882.36556 0.01500
1881.07979 0.01498
1879.79402 0.01501
1878.50826 0.01507
1877.22249 0.01516
1875.93672 0.01524
1874.65095 0.01530
1873.36518 0.01538
1872.07941 0.01552
1870.79364 0.01564
1869.50787 0.01562
1868.22211 0.01544
1866.93634 0.01525
1865.65057 0.01517
1864.36480 0.01518
1863.07903 0.01516
1861.79326 0.01504
1860.50749 0.01483
1859.22172 0.01462
1857.93595 0.01447
1856.65019 0.01447
1855.36442 0.01468
1854.07865 0.01503
1852.79288 0.01536
1851.50711 0.01548
1850.22134 0.01537
1848.93557 0.01517
1847.64980 0.01508
1846.36404 0.01518
1845.07827 0.01536
1843.79250 0.01547
1842.50673 0.01543
1841.22096 0.01524
1839.93519 0.01499
1838.64942 0.01478
1837.36365 0.01469
1836.07788 0.01478
1834.79212 0.01504
1833.50635 0.01536
1832.22058 0.01564
1830.93481 0.01579
1829.64904 0.01582
1828.36327 0.01585
1827.07750 0.01600
1825.79173 0.01628
1824.50597 0.01660
1823.22020 0.01684
1821.93443 0.01692
1820.64866 0.01684
1819.36289 0.01661
1818.07712 0.01623
1816.79135 0.01577
1815.50558 0.01531
1814.21981 0.01494
1812.93405 0.01469
1811.64828 0.01459
1810.36251 0.01462
1809.07674 0.01471
1807.79097 0.01482
1806.50520 0.01495
1805.21943 0.01514
1803.93366 0.01536
1802.64790 0.01551
1801.36213 0.01551
1800.07636 0.01539
1798.79059 0.01528
1797.50482 0.01528
1796.21905 0.01543
1794.93328 0.01566
1793.64751 0.01586
1792.36174 0.01601
1791.07598 0.01614
1789.79021 0.01628
1788.50444 0.01644
1787.21867 0.01655
1785.93290 0.01657
1784.64713 0.01650
1783.36136 0.01645
1782.07559 0.01646
1780.78983 0.01651
1779.50406 0.01653
1778.21829 0.01646
1776.93252 0.01635
1775.64675 0.01626
1774.36098 0.01615
1773.07521 0.01599
1771.78944 0.01580
1770.50367 0.01564
1769.21791 0.01554
1767.93214 0.01548
1766.64637 0.01547
1765.36060 0.01552
1764.07483 0.01565
1762.78906 0.01587
1761.50329 0.01609
1760.21752 0.01624
1758.93176 0.01628
1757.64599 0.01622
1756.36022 0.01613
1755.07445 0.01608
1753.78868 0.01611
1752.50291 0.01620
1751.21714 0.01628
1749.93137 0.01631
1748.64560 0.01626
1747.35984 0.01620
1746.07407 0.01619
1744.78830 0.01623
1743.50253 0.01629
1742.21676 0.01634
1740.93099 0.01638
1739.64522 0.01645
1738.35945 0.01659
1737.07369 0.01683
1735.78792 0.01710
1734.50215 0.01727
1733.21638 0.01725
1731.93061 0.01703
1730.64484 0.01674
1729.35907 0.01658
1728.07330 0.01662
1726.78753 0.01676
1725.50177 0.01685
1724.21600 0.01689
1722.93023 0.01701
1721.64446 0.01733
1720.35869 0.01785
1719.07292 0.01842
1717.78715 0.01893
1716.50138 0.01927
1715.21561 0.01944
1713.92985 0.01954
1712.64408 0.01971
1711.35831 0.02002
1710.07254 0.02047
1708.78677 0.02101
1707.50100 0.02159
1706.21523 0.02218
1704.92946 0.02285
1703.64370 0.02364
1702.35793 0.02449
1701.07216 0.02533
1699.78639 0.02615
1698.50062 0.02696
1697.21485 0.02776
1695.92908 0.02857
1694.64331 0.02935
1693.35754 0.03004
1692.07178 0.03064
1690.78601 0.03129
1689.50024 0.03208
1688.21447 0.03304
1686.92870 0.03412
1685.64293 0.03523
1684.35716 0.03624
1683.07139 0.03708
1681.78563 0.03776
1680.49986 0.03839
1679.21409 0.03915
1677.92832 0.04008
1676.64255 0.04111
1675.35678 0.04214
1674.07101 0.04309
1672.78524 0.04394
1671.49947 0.04472
1670.21371 0.04551
1668.92794 0.04632
1667.64217 0.04714
1666.35640 0.04796
1665.07063 0.04879
1663.78486 0.04962
1662.49909 0.05042
1661.21332 0.05113
1659.92756 0.05175
1658.64179 0.05241
1657.35602 0.05323
1656.07025 0.05423
1654.78448 0.05524
1653.49871 0.05605
1652.21294 0.05655
1650.92717 0.05675
1649.64140 0.05678
1648.35564 0.05682
1647.06987 0.05696
1645.78410 0.05712
1644.49833 0.05721
1643.21256 0.05718
1641.92679 0.05705
1640.64102 0.05689
1639.35525 0.05676
1638.06949 0.05671
1636.78372 0.05668
1635.49795 0.05655
1634.21218 0.05620
1632.92641 0.05568
1631.64064 0.05514
1630.35487 0.05473
1629.06910 0.05443
1627.78333 0.05414
1626.49757 0.05378
1625.21180 0.05332
1623.92603 0.05279
1622.64026 0.05225
1621.35449 0.05180
1620.06872 0.05148
1618.78295 0.05125
1617.49718 0.05100
1616.21142 0.05062
1614.92565 0.05014
1613.63988 0.04963
1612.35411 0.04924
1611.06834 0.04900
1609.78257 0.04886
1608.49680 0.04874
1607.21103 0.04861
1605.92526 0.04849
1604.63950 0.04840
1603.35373 0.04834
1602.06796 0.04830
1600.78219 0.04827
1599.49642 0.04826
1598.21065 0.04829
1596.92488 0.04838
1595.63911 0.04855
1594.35335 0.04875
1593.06758 0.04897
1591.78181 0.04918
1590.49604 0.04937
1589.21027 0.04956
1587.92450 0.04973
1586.63873 0.04990
1585.35296 0.05005
1584.06719 0.05024
1582.78143 0.05049
1581.49566 0.05086
1580.20989 0.05138
1578.92412 0.05197
1577.63835 0.05253
1576.35258 0.05296
1575.06681 0.05328
1573.78104 0.05355
1572.49528 0.05383
1571.20951 0.05419
1569.92374 0.05459
1568.63797 0.05498
1567.35220 0.05530
1566.06643 0.05557
1564.78066 0.05586
1563.49489 0.05627
1562.20912 0.05680
1560.92336 0.05735
1559.63759 0.05779
1558.35182 0.05805
1557.06605 0.05812
1555.78028 0.05808
1554.49451 0.05804
1553.20874 0.05809
1551.92297 0.05818
1550.63721 0.05827
1549.35144 0.05833
1548.06567 0.05839
1546.77990 0.05847
1545.49413 0.05859
1544.20836 0.05873
1542.92259 0.05883
1541.63682 0.05879
1540.35105 0.05852
1539.06529 0.05807
1537.77952 0.05754
1536.49375 0.05708
1535.20798 0.05672
1533.92221 0.05649
1532.63644 0.05633
1531.35067 0.05618
1530.06490 0.05603
1528.77914 0.05593
1527.49337 0.05592
1526.20760 0.05601
1524.92183 0.05619
1523.63606 0.05642
1522.35029 0.05665
1521.06452 0.05687
1519.77875 0.05707
1518.49298 0.05725
1517.20722 0.05743
1515.92145 0.05767
1514.63568 0.05798
1513.34991 0.05840
1512.06414 0.05896
1510.77837 0.05970
1509.49260 0.06055
1508.20683 0.06138
1506.92107 0.06203
1505.63530 0.06246
1504.34953 0.06270
1503.06376 0.06287
1501.77799 0.06311
1500.49222 0.06351
1499.20645 0.06398
1497.92068 0.06441
1496.63491 0.06471
1495.34915 0.06488
1494.06338 0.06499
1492.77761 0.06512
1491.49184 0.06535
1490.20607 0.06571
1488.92030 0.06616
1487.63453 0.06667
1486.34876 0.06722
1485.06299 0.06782
1483.77723 0.06847
1482.49146 0.06921
1481.20569 0.07003
1479.91992 0.07096
1478.63415 0.07197
1477.34838 0.07300
1476.06261 0.07402
1474.77684 0.07496
1473.49108 0.07582
1472.20531 0.07659
1470.91954 0.07722
1469.63377 0.07771
1468.34800 0.07809
1467.06223 0.07848
1465.77646 0.07893
1464.49069 0.07944
1463.20492 0.07999
1461.91916 0.08057
1460.63339 0.08124
1459.34762 0.08197
1458.06185 0.08271
1456.77608 0.08340
1455.49031 0.08398
1454.20454 0.08442
1452.91877 0.08475
1451.63301 0.08502
1450.34724 0.08526
1449.06147 0.08542
1447.77570 0.08551
1446.48993 0.08552
1445.20416 0.08547
1443.91839 0.08535
1442.63262 0.08517
1441.34685 0.08498
1440.06109 0.08481
1438.77532 0.08469
1437.48955 0.08461
1436.20378 0.08458
1434.91801 0.08463
1433.63224 0.08481
1432.34647 0.08514
1431.06070 0.08564
1429.77494 0.08630
1428.48917 0.08709
1427.20340 0.08803
1425.91763 0.08911
1424.63186 0.09030
1423.34609 0.09154
1422.06032 0.09273
1420.77455 0.09382
1419.48878 0.09481
1418.20302 0.09570
1416.91725 0.09646
1415.63148 0.09708
1414.34571 0.09758
1413.05994 0.09793
1411.77417 0.09810
1410.48840 0.09806
1409.20263 0.09781
1407.91687 0.09738
1406.63110 0.09676
1405.34533 0.09594
1404.05956 0.09493
1402.77379 0.09377
1401.48802 0.09251
1400.20225 0.09115
1398.91648 0.08972
1397.63071 0.08821
1396.34495 0.08663
1395.05918 0.08499
1393.77341 0.08327
1392.48764 0.08153
1391.20187 0.07981
1389.91610 0.07816
1388.63033 0.07657
1387.34456 0.07500
1386.05880 0.07342
1384.77303 0.07181
1383.48726 0.07018
1382.20149 0.06854
1380.91572 0.06689
1379.62995 0.06526
1378.34418 0.06365
1377.05841 0.06205
1375.77264 0.06045
1374.48688 0.05883
1373.20111 0.05720
1371.91534 0.05560
1370.62957 0.05406
1369.34380 0.05259
1368.05803 0.05121
1366.77226 0.04992
1365.48649 0.04873
1364.20073 0.04763
1362.91496 0.04659
1361.62919 0.04559
1360.34342 0.04465
1359.05765 0.04381
1357.77188 0.04308
1356.48611 0.04244
1355.20034 0.04180
1353.91457 0.04115
1352.62881 0.04054
1351.34304 0.04005
1350.05727 0.03968
1348.77150 0.03932
1347.48573 0.03891
1346.19996 0.03843
1344.91419 0.03794
1343.62842 0.03750
1342.34266 0.03709
1341.05689 0.03669
1339.77112 0.03628
1338.48535 0.03588
1337.19958 0.03548
1335.91381 0.03510
1334.62804 0.03472
1333.34227 0.03438
1332.05650 0.03407
1330.77074 0.03380
1329.48497 0.03352
1328.19920 0.03323
1326.91343 0.03291
1325.62766 0.03256
1324.34189 0.03218
1323.05612 0.03182
1321.77035 0.03150
1320.48459 0.03124
1319.19882 0.03101
1317.91305 0.03077
1316.62728 0.03051
1315.34151 0.03022
1314.05574 0.02993
1312.76997 0.02964
1311.48420 0.02937
1310.19843 0.02915
1308.91267 0.02894
1307.62690 0.02875
1306.34113 0.02855
1305.05536 0.02833
1303.76959 0.02807
1302.48382 0.02777
1301.19805 0.02748
1299.91228 0.02720
1298.62652 0.02696
1297.34075 0.02676
1296.05498 0.02660
1294.76921 0.02646
1293.48344 0.02634
1292.19767 0.02622
1290.91190 0.02609
1289.62613 0.02595
1288.34036 0.02579
1287.05460 0.02560
1285.76883 0.02542
1284.48306 0.02528
1283.19729 0.02519
1281.91152 0.02514
1280.62575 0.02512
1279.33998 0.02509
1278.05421 0.02504
1276.76845 0.02495
1275.48268 0.02484
1274.19691 0.02471
1272.91114 0.02460
1271.62537 0.02450
1270.33960 0.02442
1269.05383 0.02437
1267.76806 0.02434
1266.48229 0.02434
1265.19653 0.02434
1263.91076 0.02434
1262.62499 0.02430
1261.33922 0.02422
1260.05345 0.02409
1258.76768 0.02396
1257.48191 0.02386
1256.19614 0.02380
1254.91037 0.02377
1253.62461 0.02374
1252.33884 0.02374
1251.05307 0.02379
1249.76730 0.02387
1248.48153 0.02394
1247.19576 0.02392
1245.90999 0.02384
1244.62422 0.02372
1243.33846 0.02363
1242.05269 0.02358
1240.76692 0.02358
1239.48115 0.02358
1238.19538 0.02358
1236.90961 0.02357
1235.62384 0.02353
1234.33807 0.02344
1233.05230 0.02331
1231.76654 0.02317
1230.48077 0.02301
1229.19500 0.02284
1227.90923 0.02265
1226.62346 0.02247
1225.33769 0.02230
1224.05192 0.02215
1222.76615 0.02197
1221.48039 0.02174
1220.19462 0.02148
1218.90885 0.02122
1217.62308 0.02102
1216.33731 0.02088
1215.05154 0.02080
1213.76577 0.02075
1212.48000 0.02074
1211.19423 0.02076
1209.90847 0.02081
1208.62270 0.02088
1207.33693 0.02096
1206.05116 0.02102
1204.76539 0.02108
1203.47962 0.02114
1202.19385 0.02113
1200.90808 0.02100
1199.62232 0.02097
1198.33655 0.02100
1197.05078 0.02098
1195.76501 0.02089
1194.47924 0.02076
1193.19347 0.02062
1191.90770 0.02051
1190.62193 0.02045
1189.33616 0.02040
1188.05040 0.02036
1186.76463 0.02032
1185.47886 0.02028
1184.19309 0.02024
1182.90732 0.02019
1181.62155 0.02015
1180.33578 0.02014
1179.05001 0.02015
1177.76425 0.02019
1176.47848 0.02028
1175.19271 0.02042
1173.90694 0.02060
1172.62117 0.02076
1171.33540 0.02089
1170.04963 0.02102
1168.76386 0.02119
1167.47809 0.02141
1166.19233 0.02164
1164.90656 0.02185
1163.62079 0.02204
1162.33502 0.02224
1161.04925 0.02245
1159.76348 0.02264
1158.47771 0.02284
1157.19194 0.02312
1155.90618 0.02351
1154.62041 0.02398
1153.33464 0.02443
1152.04887 0.02480
1150.76310 0.02512
1149.47733 0.02544
1148.19156 0.02581
1146.90579 0.02627
1145.62002 0.02681
1144.33426 0.02741
1143.04849 0.02810
1141.76272 0.02889
1140.47695 0.02974
1139.19118 0.03064
1137.90541 0.03158
1136.61964 0.03262
1135.33387 0.03382
1134.04811 0.03518
1132.76234 0.03664
1131.47657 0.03816
1130.19080 0.03974
1128.90503 0.04146
1127.61926 0.04339
1126.33349 0.04555
1125.04772 0.04790
1123.76195 0.05038
1122.47619 0.05296
1121.19042 0.05563
1119.90465 0.05834
1118.61888 0.06107
1117.33311 0.06382
1116.04734 0.06662
1114.76157 0.06950
1113.47580 0.07242
1112.19004 0.07533
1110.90427 0.07817
1109.61850 0.08096
1108.33273 0.08371
1107.04696 0.08645
1105.76119 0.08916
1104.47542 0.09186
1103.18965 0.09452
1101.90388 0.09708
1100.61812 0.09951
1099.33235 0.10181
1098.04658 0.10404
1096.76081 0.10625
1095.47504 0.10843
1094.18927 0.11047
1092.90350 0.11232
1091.61773 0.11401
1090.33197 0.11563
1089.04620 0.11728
1087.76043 0.11899
1086.47466 0.12071
1085.18889 0.12245
1083.90312 0.12419
1082.61735 0.12592
1081.33158 0.12766
1080.04581 0.12944
1078.76005 0.13135
1077.47428 0.13348
1076.18851 0.13583
1074.90274 0.13834
1073.61697 0.14089
1072.33120 0.14344
1071.04543 0.14599
1069.75966 0.14860
1068.47390 0.15127
1067.18813 0.15398
1065.90236 0.15668
1064.61659 0.15938
1063.33082 0.16212
1062.04505 0.16496
1060.75928 0.16788
1059.47351 0.17080
1058.18774 0.17365
1056.90198 0.17635
1055.61621 0.17892
1054.33044 0.18141
1053.04467 0.18387
1051.75890 0.18639
1050.47313 0.18901
1049.18736 0.19173
1047.90159 0.19457
1046.61583 0.19748
1045.33006 0.20042
1044.04429 0.20338
1042.75852 0.20637
1041.47275 0.20943
1040.18698 0.21256
1038.90121 0.21573
1037.61544 0.21888
1036.32967 0.22199
1035.04391 0.22509
1033.75814 0.22816
1032.47237 0.23112
1031.18660 0.23389
1029.90083 0.23639
1028.61506 0.23862
1027.32929 0.24055
1026.04352 0.24224
1024.75775 0.24374
1023.47199 0.24513
1022.18622 0.24639
1020.90045 0.24742
1019.61468 0.24808
1018.32891 0.24826
1017.04314 0.24799
1015.75737 0.24740
1014.47160 0.24661
1013.18584 0.24564
1011.90007 0.24439
1010.61430 0.24278
1009.32853 0.24077
1008.04276 0.23845
1006.75699 0.23585
1005.47122 0.23294
1004.18545 0.22964
1002.89968 0.22594
1001.61392 0.22190
1000.32815 0.21760
999.04238 0.21311
997.75661 0.20848
996.47084 0.20368
995.18507 0.19867
993.89930 0.19344
992.61353 0.18806
991.32777 0.18265
990.04200 0.17731
988.75623 0.17209
987.47046 0.16697
986.18469 0.16190
984.89892 0.15687
983.61315 0.15192
982.32738 0.14711
981.04161 0.14245
979.75585 0.13795
978.47008 0.13362
977.18431 0.12949
975.89854 0.12565
974.61277 0.12219
973.32700 0.11913
972.04123 0.11654
970.75546 0.11448
969.46970 0.11300
968.18393 0.11211
966.89816 0.11174
965.61239 0.11181
964.32662 0.11218
963.04085 0.11263
961.75508 0.11292
960.46931 0.11283
959.18354 0.11222
957.89778 0.11106
956.61201 0.10946
955.32624 0.10760
954.04047 0.10562
952.75470 0.10358
951.46893 0.10144
950.18316 0.09915
948.89739 0.09675
947.61163 0.09437
946.32586 0.09211
945.04009 0.08996
943.75432 0.08786
942.46855 0.08575
941.18278 0.08363
939.89701 0.08157
938.61124 0.07964
937.32547 0.07785
936.03971 0.07617
934.75394 0.07456
933.46817 0.07303
932.18240 0.07161
930.89663 0.07028
929.61086 0.06904
928.32509 0.06787
927.03932 0.06678
925.75356 0.06570
924.46779 0.06462
923.18202 0.06352
921.89625 0.06248
920.61048 0.06150
919.32471 0.06057
918.03894 0.05968
916.75317 0.05887
915.46740 0.05819
914.18164 0.05764
912.89587 0.05715
911.61010 0.05663
910.32433 0.05604
909.03856 0.05539
907.75279 0.05473
906.46702 0.05410
905.18125 0.05351
903.89549 0.05293
902.60972 0.05240
901.32395 0.05196
900.03818 0.05161
898.75241 0.05128
897.46664 0.05088
896.18087 0.05035
894.89510 0.04977
893.60933 0.04929
892.32357 0.04896
891.03780 0.04878
889.75203 0.04873
888.46626 0.04883
887.18049 0.04918
885.89472 0.04988
884.60895 0.05107
883.32318 0.05289
882.03742 0.05527
880.75165 0.05780
879.46588 0.05996
878.18011 0.06154
876.89434 0.06274
875.60857 0.06397
874.32280 0.06534
873.03703 0.06659
871.75126 0.06729
870.46550 0.06725
869.17973 0.06651
867.89396 0.06527
866.60819 0.06370
865.32242 0.06191
864.03665 0.06002
862.75088 0.05813
861.46511 0.05632
860.17935 0.05466
858.89358 0.05317
857.60781 0.05187
856.32204 0.05074
855.03627 0.04975
853.75050 0.04890
852.46473 0.04819
851.17896 0.04757
849.89319 0.04701
848.60743 0.04650
847.32166 0.04606
846.03589 0.04569
844.75012 0.04536
843.46435 0.04503
842.17858 0.04469
840.89281 0.04438
839.60704 0.04408
838.32128 0.04378
837.03551 0.04346
835.74974 0.04309
834.46397 0.04270
833.17820 0.04233
831.89243 0.04201
830.60666 0.04176
829.32089 0.04162
828.03512 0.04157
826.74936 0.04154
825.46359 0.04144
824.17782 0.04125
822.89205 0.04106
821.60628 0.04091
820.32051 0.04082
819.03474 0.04072
817.74897 0.04056
816.46321 0.04038
815.17744 0.04022
813.89167 0.04012
812.60590 0.04005
811.32013 0.03999
810.03436 0.03988
808.74859 0.03973
807.46282 0.03959
806.17705 0.03950
804.89129 0.03949
803.60552 0.03953
802.31975 0.03958
801.03398 0.03960
799.74821 0.03958
798.46244 0.03952
797.17667 0.03944
795.89090 0.03936
794.60513 0.03928
793.31937 0.03922
792.03360 0.03925
790.74783 0.03935
789.46206 0.03947
788.17629 0.03953
786.89052 0.03949
785.60475 0.03942
784.31898 0.03936
783.03322 0.03930
781.74745 0.03922
780.46168 0.03915
779.17591 0.03911
777.89014 0.03908
776.60437 0.03902
775.31860 0.03893
774.03283 0.03884
772.74706 0.03879
771.46130 0.03878
770.17553 0.03881
768.88976 0.03886
767.60399 0.03895
766.31822 0.03904
765.03245 0.03913
763.74668 0.03917
762.46091 0.03911
761.17515 0.03902
759.88938 0.03896
758.60361 0.03898
757.31784 0.03902
756.03207 0.03904
754.74630 0.03905
753.46053 0.03914
752.17476 0.03929
750.88899 0.03938
749.60323 0.03931
748.31746 0.03909
747.03169 0.03880
745.74592 0.03854
744.46015 0.03837
743.17438 0.03830
741.88861 0.03824
740.60284 0.03814
739.31708 0.03802
738.03131 0.03794
736.74554 0.03791
735.45977 0.03792
734.17400 0.03798
732.88823 0.03814
731.60246 0.03838
730.31669 0.03858
729.03092 0.03861
727.74516 0.03845
726.45939 0.03820
725.17362 0.03799
723.88785 0.03813
722.60208 0.03803
721.31631 0.03807
720.03054 0.03824
718.74477 0.03837
717.45901 0.03843
716.17324 0.03843
714.88747 0.03841
713.60170 0.03839
712.31593 0.03839
711.03016 0.03838
709.74439 0.03834
708.45862 0.03823
707.17285 0.03808
705.88709 0.03795
704.60132 0.03790
703.31555 0.03794
702.02978 0.03800
700.74401 0.03801
699.45824 0.03794
698.17247 0.03782
696.88670 0.03768
695.60094 0.03753
694.31517 0.03739
693.02940 0.03730
691.74363 0.03726
690.45786 0.03727
689.17209 0.03730
687.88632 0.03735
686.60055 0.03738
685.31478 0.03734
684.02902 0.03721
682.74325 0.03697
681.45748 0.03675
680.17171 0.03662
678.88594 0.03657
677.60017 0.03657
676.31440 0.03655
675.02863 0.03655
673.74287 0.03662
672.45710 0.03679
671.17133 0.03703
669.88556 0.03727
668.59979 0.03746
667.31402 0.03757
666.02825 0.03749
664.74248 0.03723
663.45671 0.03691
662.17095 0.03665
660.88518 0.03652
659.59941 0.03647
658.31364 0.03640
657.02787 0.03623
655.74210 0.03601
654.45633 0.03578
653.17056 0.03561
651.88480 0.03549
650.59903 0.03539
649.31326 0.03530
648.02749 0.03526
646.74172 0.03526
645.45595 0.03529
644.17018 0.03534
642.88441 0.03536
641.59864 0.03536
640.31288 0.03538
639.02711 0.03549
637.74134 0.03570
636.45557 0.03599
635.16980 0.03633
633.88403 0.03669
632.59826 0.03695
631.31249 0.03668
630.02673 0.03650
628.74096 0.03870
627.45519 0.04001
626.16942 0.04385
624.88365 0.04915
623.59788 0.05363
622.31211 0.05652
621.02634 0.05842
619.74057 0.06031
618.45481 0.06229
617.16904 0.06363
615.88327 0.06405
614.59750 0.06463
613.31173 0.06723
612.02596 0.07288
610.74019 0.08064
609.45442 0.08827
608.16866 0.09403
606.88289 0.09774
605.59712 0.10018
604.31135 0.10201
603.02558 0.10319
601.73981 0.10327
600.45404 0.10210
599.16827 0.09998
597.88250 0.09745
596.59674 0.09489
595.31097 0.09251
594.02520 0.09037
592.73943 0.08858
591.45366 0.08719
590.16789 0.08624
588.88212 0.08575
587.59635 0.08573
586.31059 0.08624
585.02482 0.08732
583.73905 0.08891
582.45328 0.09089
581.16751 0.09317
579.88174 0.09563
578.59597 0.09815
577.31020 0.10063
576.02443 0.10302
574.73867 0.10538
573.45290 0.10783
572.16713 0.11050
570.88136 0.11350
569.59559 0.11681
568.30982 0.12031
567.02405 0.12380
565.73828 0.12711
564.45251 0.13007
563.16675 0.13243
561.88098 0.13389
560.59521 0.13415
559.30944 0.13309
558.02367 0.13076
556.73790 0.12731
555.45213 0.12298
554.16636 0.11809
552.88060 0.11304
551.59483 0.10811
550.30906 0.10343
549.02329 0.09904
547.73752 0.09494
546.45175 0.09120
545.16598 0.08784
543.88021 0.08488
542.59444 0.08224
541.30868 0.07977
540.02291 0.07730
538.73714 0.07475
537.45137 0.07223
536.16560 0.06995
534.87983 0.06802
533.59406 0.06640
532.30829 0.06496
531.02253 0.06353
529.73676 0.06202
528.45099 0.06046
527.16522 0.05892
525.87945 0.05754
524.59368 0.05635
523.30791 0.05535
522.02214 0.05444
520.73637 0.05349
519.45061 0.05243
518.16484 0.05128
516.87907 0.05011
515.59330 0.04898
514.30753 0.04793
513.02176 0.04699
511.73599 0.04614
510.45022 0.04541
509.16446 0.04478
507.87869 0.04425
506.59292 0.04374
505.30715 0.04320
504.02138 0.04263
502.73561 0.04207
501.44984 0.04154
500.16407 0.04104
498.87830 0.04051
497.59254 0.03993
496.30677 0.03931
495.02100 0.03868
493.73523 0.03815
492.44946 0.03781
491.16369 0.03768
489.87792 0.03764
488.59215 0.03754
487.30639 0.03731
486.02062 0.03700
484.73485 0.03672
483.44908 0.03654
482.16331 0.03643
480.87754 0.03635
479.59177 0.03628
478.30600 0.03626
477.02023 0.03630
475.73447 0.03641
474.44870 0.03657
473.16293 0.03675
471.87716 0.03689
470.59139 0.03696
469.30562 0.03695
468.01985 0.03683
466.73408 0.03661
465.44832 0.03627
464.16255 0.03582
462.87678 0.03535
461.59101 0.03492
460.30524 0.03455
459.01947 0.03423
457.73370 0.03393
456.44793 0.03363
455.16216 0.03328
453.87640 0.03288
452.59063 0.03248
451.30486 0.03216
450.01909 0.03189
448.73332 0.03165
447.44755 0.03137
446.16178 0.03109
444.87601 0.03082
443.59025 0.03061
442.30448 0.03045
441.01871 0.03032
439.73294 0.03022
438.44717 0.03013
437.16140 0.03004
435.87563 0.02994
434.58986 0.02981
433.30409 0.02963
432.01833 0.02944
430.73256 0.02926
429.44679 0.02912
428.16102 0.02899
426.87525 0.02883
425.58948 0.02865
424.30371 0.02847
423.01794 0.02834
421.73218 0.02826
420.44641 0.02821
419.16064 0.02817
417.87487 0.02811
416.58910 0.02801
415.30333 0.02786
414.01756 0.02769
412.73179 0.02754
411.44602 0.02745
410.16026 0.02740
408.87449 0.02736
407.58872 0.02734
406.30295 0.02735
405.01718 0.02741
403.73141 0.02752
402.44564 0.02762
401.15987 0.02769
399.87411 0.02773
