3997.45528 0.04591
3996.16951 0.04639
3994.88374 0.04741
3993.59798 0.04843
3992.31221 0.04897
3991.02644 0.04904
3989.74067 0.04887
3988.45490 0.04872
3987.16913 0.04871
3985.88336 0.04872
3984.59759 0.04854
3983.31183 0.04824
3982.02606 0.04808
3980.74029 0.04807
3979.45452 0.04788
3978.16875 0.04729
3976.88298 0.04655
3975.59721 0.04618
3974.31144 0.04642
3973.02567 0.04703
3971.73991 0.04752
3970.45414 0.04763
3969.16837 0.04739
3967.88260 0.04702
3966.59683 0.04662
3965.31106 0.04621
3964.02529 0.04579
3962.73952 0.04547
3961.45376 0.04550
3960.16799 0.04610
3958.88222 0.04717
3957.59645 0.04828
3956.31068 0.04884
3955.02491 0.04861
3953.73914 0.04776
3952.45337 0.04670
3951.16760 0.04575
3949.88184 0.04516
3948.59607 0.04521
3947.31030 0.04603
3946.02453 0.04727
3944.73876 0.04828
3943.45299 0.04859
3942.16722 0.04820
3940.88145 0.04737
3939.59569 0.04638
3938.30992 0.04552
3937.02415 0.04496
3935.73838 0.04467
3934.45261 0.04459
3933.16684 0.04481
3931.88107 0.04542
3930.59530 0.04624
3929.30953 0.04693
3928.02377 0.04724
3926.73800 0.04712
3925.45223 0.04672
3924.16646 0.04627
3922.88069 0.04597
3921.59492 0.04603
3920.30915 0.04661
3919.02338 0.04769
3917.73762 0.04884
3916.45185 0.04938
3915.16608 0.04885
3913.88031 0.04749
3912.59454 0.04624
3911.30877 0.04609
3910.02300 0.04727
3908.73723 0.04911
3907.45146 0.05060
3906.16570 0.05108
3904.87993 0.05053
3903.59416 0.04935
3902.30839 0.04793
3901.02262 0.04661
3899.73685 0.04570
3898.45108 0.04530
3897.16531 0.04524
3895.87955 0.04524
3894.59378 0.04524
3893.30801 0.04528
3892.02224 0.04534
3890.73647 0.04520
3889.45070 0.04463
3888.16493 0.04380
3886.87916 0.04350
3885.59339 0.04430
3884.30763 0.04569
3883.02186 0.04660
3881.73609 0.04668
3880.45032 0.04647
3879.16455 0.04652
3877.87878 0.04673
3876.59301 0.04678
3875.30724 0.04654
3874.02148 0.04593
3872.73571 0.04488
3871.44994 0.04365
3870.16417 0.04288
3868.87840 0.04287
3867.59263 0.04315
3866.30686 0.04322
3865.02109 0.04320
3863.73532 0.04344
3862.44956 0.04393
3861.16379 0.04449
3859.87802 0.04504
3858.59225 0.04558
3857.30648 0.04608
3856.02071 0.04650
3854.73494 0.04689
3853.44917 0.04741
3852.16341 0.04795
3850.87764 0.04813
3849.59187 0.04780
3848.30610 0.04714
3847.02033 0.04636
3845.73456 0.04560
3844.44879 0.04508
3843.16302 0.04505
3841.87725 0.04551
3840.59149 0.04607
3839.30572 0.04642
3838.01995 0.04658
3836.73418 0.04665
3835.44841 0.04647
3834.16264 0.04588
3832.87687 0.04511
3831.59110 0.04460
3830.30534 0.04437
3829.01957 0.04414
3827.73380 0.04381
3826.44803 0.04364
3825.16226 0.04391
3823.87649 0.04450
3822.59072 0.04518
3821.30495 0.04589
3820.01918 0.04656
3818.73342 0.04690
3817.44765 0.04680
3816.16188 0.04645
3814.87611 0.04598
3813.59034 0.04533
3812.30457 0.04475
3811.01880 0.04476
3809.73303 0.04526
3808.44726 0.04560
3807.16150 0.04554
3805.87573 0.04540
3804.58996 0.04537
3803.30419 0.04544
3802.01842 0.04558
3800.73265 0.04576
3799.44688 0.04562
3798.16111 0.04490
3796.87535 0.04394
3795.58958 0.04328
3794.30381 0.04310
3793.01804 0.04323
3791.73227 0.04346
3790.44650 0.04364
3789.16073 0.04388
3787.87496 0.04452
3786.58919 0.04557
3785.30343 0.04646
3784.01766 0.04642
3782.73189 0.04519
3781.44612 0.04330
3780.16035 0.04175
3778.87458 0.04130
3777.58881 0.04194
3776.30304 0.04312
3775.01728 0.04430
3773.73151 0.04527
3772.44574 0.04587
3771.15997 0.04590
3769.87420 0.04526
3768.58843 0.04401
3767.30266 0.04254
3766.01689 0.04151
3764.73112 0.04134
3763.44536 0.04167
3762.15959 0.04159
3760.87382 0.04066
3759.58805 0.03933
3758.30228 0.03845
3757.01651 0.03856
3755.73074 0.03950
3754.44497 0.04072
3753.15921 0.04179
3751.87344 0.04257
3750.58767 0.04303
3749.30190 0.04336
3748.01613 0.04377
3746.73036 0.04410
3745.44459 0.04415
3744.15882 0.04413
3742.87305 0.04412
3741.58729 0.04391
3740.30152 0.04361
3739.01575 0.04339
3737.72998 0.04307
3736.44421 0.04245
3735.15844 0.04169
3733.87267 0.04107
3732.58690 0.04077
3731.30114 0.04077
3730.01537 0.04071
3728.72960 0.04037
3727.44383 0.04017
3726.15806 0.04067
3724.87229 0.04164
3723.58652 0.04222
3722.30075 0.04190
3721.01498 0.04097
3719.72922 0.04012
3718.44345 0.03989
3717.15768 0.04031
3715.87191 0.04087
3714.58614 0.04099
3713.30037 0.04057
3712.01460 0.04006
3710.72883 0.03999
3709.44307 0.04050
3708.15730 0.04137
3706.87153 0.04219
3705.58576 0.04256
3704.29999 0.04249
3703.01422 0.04248
3701.72845 0.04298
3700.44268 0.04371
3699.15691 0.04381
3697.87115 0.04293
3696.58538 0.04173
3695.29961 0.04110
3694.01384 0.04131
3692.72807 0.04201
3691.44230 0.04251
3690.15653 0.04225
3688.87076 0.04142
3687.58500 0.04060
3686.29923 0.04009
3685.01346 0.04001
3683.72769 0.04026
3682.44192 0.04057
3681.15615 0.04072
3679.87038 0.04079
3678.58461 0.04096
3677.29884 0.04127
3676.01308 0.04168
3674.72731 0.04213
3673.44154 0.04236
3672.15577 0.04218
3670.87000 0.04198
3669.58423 0.04231
3668.29846 0.04304
3667.01269 0.04363
3665.72693 0.04374
3664.44116 0.04338
3663.15539 0.04280
3661.86962 0.04239
3660.58385 0.04231
3659.29808 0.04231
3658.01231 0.04203
3656.72654 0.04161
3655.44077 0.04153
3654.15501 0.04191
3652.86924 0.04230
3651.58347 0.04232
3650.29770 0.04214
3649.01193 0.04207
3647.72616 0.04215
3646.44039 0.04215
3645.15462 0.04195
3643.86886 0.04178
3642.58309 0.04197
3641.29732 0.04257
3640.01155 0.04326
3638.72578 0.04371
3637.44001 0.04374
3636.15424 0.04334
3634.86847 0.04276
3633.58270 0.04245
3632.29694 0.04265
3631.01117 0.04314
3629.72540 0.04363
3628.43963 0.04406
3627.15386 0.04423
3625.86809 0.04383
3624.58232 0.04289
3623.29655 0.04178
3622.01079 0.04094
3620.72502 0.04074
3619.43925 0.04141
3618.15348 0.04276
3616.86771 0.04415
3615.58194 0.04499
3614.29617 0.04534
3613.01040 0.04572
3611.72463 0.04645
3610.43887 0.04730
3609.15310 0.04786
3607.86733 0.04817
3606.58156 0.04856
3605.29579 0.04918
3604.01002 0.04972
3602.72425 0.04976
3601.43848 0.04926
3600.15272 0.04863
3598.86695 0.04828
3597.58118 0.04831
3596.29541 0.04857
3595.00964 0.04879
3593.72387 0.04881
3592.43810 0.04872
3591.15233 0.04882
3589.86656 0.04928
3588.58080 0.05004
3587.29503 0.05066
3586.00926 0.05052
3584.72349 0.04947
3583.43772 0.04808
3582.15195 0.04718
3580.86618 0.04714
3579.58041 0.04783
3578.29464 0.04880
3577.00888 0.04961
3575.72311 0.05003
3574.43734 0.05007
3573.15157 0.04995
3571.86580 0.04990
3570.58003 0.04991
3569.29426 0.04989
3568.00849 0.05006
3566.72273 0.05079
3565.43696 0.05207
3564.15119 0.05332
3562.86542 0.05384
3561.57965 0.05339
3560.29388 0.05233
3559.00811 0.05130
3557.72234 0.05085
3556.43657 0.05118
3555.15081 0.05200
3553.86504 0.05281
3552.57927 0.05322
3551.29350 0.05329
3550.00773 0.05325
3548.72196 0.05324
3547.43619 0.05323
3546.15042 0.05326
3544.86466 0.05357
3543.57889 0.05437
3542.29312 0.05547
3541.00735 0.05636
3539.72158 0.05664
3538.43581 0.05636
3537.15004 0.05580
3535.86427 0.05514
3534.57850 0.05442
3533.29274 0.05377
3532.00697 0.05357
3530.72120 0.05406
3529.43543 0.05500
3528.14966 0.05582
3526.86389 0.05615
3525.57812 0.05615
3524.29235 0.05627
3523.00659 0.05668
3521.72082 0.05707
3520.43505 0.05709
3519.14928 0.05681
3517.86351 0.05664
3516.57774 0.05678
3515.29197 0.05708
3514.00620 0.05735
3512.72043 0.05761
3511.43467 0.05790
3510.14890 0.05815
3508.86313 0.05835
3507.57736 0.05857
3506.29159 0.05886
3505.00582 0.05911
3503.72005 0.05917
3502.43428 0.05904
3501.14852 0.05882
3499.86275 0.05866
3498.57698 0.05875
3497.29121 0.05927
3496.00544 0.06020
3494.71967 0.06113
3493.43390 0.06144
3492.14813 0.06087
3490.86236 0.05985
3489.57660 0.05916
3488.29083 0.05927
3487.00506 0.06004
3485.71929 0.06097
3484.43352 0.06167
3483.14775 0.06190
3481.86198 0.06167
3480.57621 0.06113
3479.29045 0.06061
3478.00468 0.06037
3476.71891 0.06049
3475.43314 0.06086
3474.14737 0.06130
3472.86160 0.06164
3471.57583 0.06174
3470.29006 0.06156
3469.00429 0.06118
3467.71853 0.06081
3466.43276 0.06066
3465.14699 0.06082
3463.86122 0.06124
3462.57545 0.06183
3461.28968 0.06242
3460.00391 0.06282
3458.71814 0.06283
3457.43238 0.06251
3456.14661 0.06211
3454.86084 0.06183
3453.57507 0.06158
3452.28930 0.06123
3451.00353 0.06087
3449.71776 0.06078
3448.43199 0.06111
3447.14622 0.06168
3445.86046 0.06225
3444.57469 0.06275
3443.28892 0.06327
3442.00315 0.06381
3440.71738 0.06431
3439.43161 0.06475
3438.14584 0.06521
3436.86007 0.06564
3435.57431 0.06578
3434.28854 0.06533
3433.00277 0.06439
3431.71700 0.06351
3430.43123 0.06328
3429.14546 0.06376
3427.85969 0.06446
3426.57392 0.06481
3425.28815 0.06466
3424.00239 0.06430
3422.71662 0.06426
3421.43085 0.06486
3420.14508 0.06602
3418.85931 0.06718
3417.57354 0.06775
3416.28777 0.06758
3415.00200 0.06704
3413.71624 0.06661
3412.43047 0.06652
3411.14470 0.06661
3409.85893 0.06665
3408.57316 0.06670
3407.28739 0.06707
3406.00162 0.06790
3404.71585 0.06884
3403.43008 0.06931
3402.14432 0.06919
3400.85855 0.06885
3399.57278 0.06840
3398.28701 0.06805
3397.00124 0.06822
3395.71547 0.06848
3394.42970 0.06842
3393.14393 0.06807
3391.85817 0.06783
3390.57240 0.06801
3389.28663 0.06854
3388.00086 0.06912
3386.71509 0.06957
3385.42932 0.06995
3384.14355 0.07038
3382.85778 0.07079
3381.57201 0.07101
3380.28625 0.07101
3379.00048 0.07090
3377.71471 0.07079
3376.42894 0.07074
3375.14317 0.07087
3373.85740 0.07123
3372.57163 0.07161
3371.28586 0.07168
3370.00010 0.07134
3368.71433 0.07083
3367.42856 0.07048
3366.14279 0.07033
3364.85702 0.07025
3363.57125 0.07017
3362.28548 0.07017
3360.99971 0.07041
3359.71394 0.07091
3358.42818 0.07151
3357.14241 0.07190
3355.85664 0.07190
3354.57087 0.07161
3353.28510 0.07136
3351.99933 0.07143
3350.71356 0.07178
3349.42779 0.07209
3348.14202 0.07204
3346.85626 0.07155
3345.57049 0.07098
3344.28472 0.07088
3342.99895 0.07144
3341.71318 0.07232
3340.42741 0.07296
3339.14164 0.07315
3337.85587 0.07313
3336.57011 0.07320
3335.28434 0.07341
3333.99857 0.07366
3332.71280 0.07389
3331.42703 0.07406
3330.14126 0.07416
3328.85549 0.07413
3327.56972 0.07396
3326.28395 0.07371
3324.99819 0.07341
3323.71242 0.07308
3322.42665 0.07279
3321.14088 0.07265
3319.85511 0.07276
3318.56934 0.07306
3317.28357 0.07348
3315.99780 0.07400
3314.71204 0.07465
3313.42627 0.07542
3312.14050 0.07614
3310.85473 0.07664
3309.56896 0.07689
3308.28319 0.07704
3306.99742 0.07718
3305.71165 0.07717
3304.42588 0.07682
3303.14012 0.07619
3301.85435 0.07561
3300.56858 0.07541
3299.28281 0.07554
3297.99704 0.07568
3296.71127 0.07555
3295.42550 0.07516
3294.13973 0.07482
3292.85397 0.07483
3291.56820 0.07526
3290.28243 0.07593
3288.99666 0.07665
3287.71089 0.07723
3286.42512 0.07750
3285.13935 0.07737
3283.85358 0.07701
3282.56781 0.07663
3281.28205 0.07634
3279.99628 0.07607
3278.71051 0.07583
3277.42474 0.07567
3276.13897 0.07559
3274.85320 0.07553
3273.56743 0.07550
3272.28166 0.07559
3270.99590 0.07577
3269.71013 0.07585
3268.42436 0.07573
3267.13859 0.07553
3265.85282 0.07548
3264.56705 0.07565
3263.28128 0.07584
3261.99551 0.07587
3260.70974 0.07576
3259.42398 0.07566
3258.13821 0.07566
3256.85244 0.07574
3255.56667 0.07585
3254.28090 0.07593
3252.99513 0.07587
3251.70936 0.07567
3250.42359 0.07550
3249.13783 0.07556
3247.85206 0.07580
3246.56629 0.07594
3245.28052 0.07571
3243.99475 0.07508
3242.70898 0.07430
3241.42321 0.07377
3240.13744 0.07377
3238.85167 0.07417
3237.56591 0.07452
3236.28014 0.07446
3234.99437 0.07400
3233.70860 0.07333
3232.42283 0.07258
3231.13706 0.07191
3229.85129 0.07154
3228.56552 0.07152
3227.27976 0.07162
3225.99399 0.07152
3224.70822 0.07125
3223.42245 0.07112
3222.13668 0.07135
3220.85091 0.07179
3219.56514 0.07211
3218.27937 0.07217
3216.99360 0.07212
3215.70784 0.07219
3214.42207 0.07234
3213.13630 0.07228
3211.85053 0.07184
3210.56476 0.07124
3209.27899 0.07090
3207.99322 0.07100
3206.70745 0.07136
3205.42169 0.07165
3204.13592 0.07172
3202.85015 0.07167
3201.56438 0.07166
3200.27861 0.07167
3198.99284 0.07154
3197.70707 0.07119
3196.42130 0.07082
3195.13553 0.07066
3193.84977 0.07075
3192.56400 0.07094
3191.27823 0.07113
3189.99246 0.07131
3188.70669 0.07150
3187.42092 0.07157
3186.13515 0.07146
3184.84938 0.07129
3183.56362 0.07128
3182.27785 0.07153
3180.99208 0.07184
3179.70631 0.07188
3178.42054 0.07139
3177.13477 0.07044
3175.84900 0.06944
3174.56323 0.06880
3173.27746 0.06852
3171.99170 0.06829
3170.70593 0.06790
3169.42016 0.06754
3168.13439 0.06759
3166.84862 0.06809
3165.56285 0.06863
3164.27708 0.06880
3162.99131 0.06852
3161.70555 0.06803
3160.41978 0.06757
3159.13401 0.06726
3157.84824 0.06707
3156.56247 0.06692
3155.27670 0.06669
3153.99093 0.06636
3152.70516 0.06602
3151.41939 0.06579
3150.13363 0.06572
3148.84786 0.06582
3147.56209 0.06611
3146.27632 0.06650
3144.99055 0.06684
3143.70478 0.06698
3142.41901 0.06699
3141.13324 0.06696
3139.84748 0.06695
3138.56171 0.06684
3137.27594 0.06653
3135.99017 0.06603
3134.70440 0.06552
3133.41863 0.06526
3132.13286 0.06537
3130.84709 0.06570
3129.56132 0.06596
3128.27556 0.06596
3126.98979 0.06574
3125.70402 0.06547
3124.41825 0.06529
3123.13248 0.06527
3121.84671 0.06539
3120.56094 0.06550
3119.27517 0.06544
3117.98940 0.06514
3116.70364 0.06477
3115.41787 0.06453
3114.13210 0.06451
3112.84633 0.06458
3111.56056 0.06457
3110.27479 0.06443
3108.98902 0.06427
3107.70325 0.06418
3106.41749 0.06412
3105.13172 0.06400
3103.84595 0.06385
3102.56018 0.06383
3101.27441 0.06407
3099.98864 0.06453
3098.70287 0.06499
3097.41710 0.06521
3096.13133 0.06504
3094.84557 0.06457
3093.55980 0.06403
3092.27403 0.06366
3090.98826 0.06356
3089.70249 0.06371
3088.41672 0.06400
3087.13095 0.06428
3085.84518 0.06437
3084.55942 0.06424
3083.27365 0.06401
3081.98788 0.06380
3080.70211 0.06364
3079.41634 0.06353
3078.13057 0.06358
3076.84480 0.06389
3075.55903 0.06434
3074.27326 0.06469
3072.98750 0.06474
3071.70173 0.06460
3070.41596 0.06452
3069.13019 0.06464
3067.84442 0.06477
3066.55865 0.06467
3065.27288 0.06432
3063.98711 0.06392
3062.70135 0.06353
3061.41558 0.06309
3060.12981 0.06260
3058.84404 0.06222
3057.55827 0.06211
3056.27250 0.06219
3054.98673 0.06225
3053.70096 0.06218
3052.41519 0.06198
3051.12943 0.06172
3049.84366 0.06146
3048.55789 0.06122
3047.27212 0.06101
3045.98635 0.06081
3044.70058 0.06063
3043.41481 0.06057
3042.12904 0.06067
3040.84328 0.06087
3039.55751 0.06102
3038.27174 0.06097
3036.98597 0.06077
3035.70020 0.06060
3034.41443 0.06054
3033.12866 0.06044
3031.84289 0.06017
3030.55712 0.05983
3029.27136 0.05970
3027.98559 0.05987
3026.69982 0.06012
3025.41405 0.06010
3024.12828 0.05968
3022.84251 0.05907
3021.55674 0.05863
3020.27097 0.05863
3018.98521 0.05910
3017.69944 0.05982
3016.41367 0.06042
3015.12790 0.06058
3013.84213 0.06033
3012.55636 0.05988
3011.27059 0.05937
3009.98482 0.05876
3008.69905 0.05805
3007.41329 0.05739
3006.12752 0.05703
3004.84175 0.05707
3003.55598 0.05744
3002.27021 0.05803
3000.98444 0.05856
2999.69867 0.05843
2998.41290 0.05838
2997.12714 0.05816
2995.84137 0.05785
2994.55560 0.05755
2993.26983 0.05743
2991.98406 0.05753
2990.69829 0.05779
2989.41252 0.05804
2988.12675 0.05813
2986.84098 0.05806
2985.55522 0.05805
2984.26945 0.05832
2982.98368 0.05886
2981.69791 0.05944
2980.41214 0.05990
2979.12637 0.06030
2977.84060 0.06066
2976.55483 0.06084
2975.26907 0.06072
2973.98330 0.06051
2972.69753 0.06064
2971.41176 0.06138
2970.12599 0.06258
2968.84022 0.06379
2967.55445 0.06470
2966.26868 0.06534
2964.98291 0.06592
2963.69715 0.06653
2962.41138 0.06714
2961.12561 0.06774
2959.83984 0.06844
2958.55407 0.06929
2957.26830 0.07012
2955.98253 0.07076
2954.69676 0.07113
2953.41100 0.07130
2952.12523 0.07138
2950.83946 0.07147
2949.55369 0.07164
2948.26792 0.07183
2946.98215 0.07188
2945.69638 0.07167
2944.41061 0.07123
2943.12484 0.07081
2941.83908 0.07070
2940.55331 0.07107
2939.26754 0.07177
2937.98177 0.07245
2936.69600 0.07288
2935.41023 0.07310
2934.12446 0.07337
2932.83869 0.07384
2931.55293 0.07444
2930.26716 0.07498
2928.98139 0.07543
2927.69562 0.07597
2926.40985 0.07664
2925.12408 0.07725
2923.83831 0.07762
2922.55254 0.07781
2921.26677 0.07796
2919.98101 0.07806
2918.69524 0.07796
2917.40947 0.07757
2916.12370 0.07697
2914.83793 0.07623
2913.55216 0.07542
2912.26639 0.07461
2910.98062 0.07396
2909.69486 0.07352
2908.40909 0.07312
2907.12332 0.07259
2905.83755 0.07194
2904.55178 0.07140
2903.26601 0.07110
2901.98024 0.07098
2900.69447 0.07083
2899.40870 0.07044
2898.12294 0.06972
2896.83717 0.06875
2895.55140 0.06775
2894.26563 0.06698
2892.97986 0.06649
2891.69409 0.06619
2890.40832 0.06586
2889.12255 0.06537
2887.83678 0.06477
2886.55102 0.06428
2885.26525 0.06404
2883.97948 0.06399
2882.69371 0.06406
2881.40794 0.06420
2880.12217 0.06436
2878.83640 0.06443
2877.55063 0.06446
2876.26487 0.06468
2874.97910 0.06521
2873.69333 0.06580
2872.40756 0.06610
2871.12179 0.06607
2869.83602 0.06602
2868.55025 0.06610
2867.26448 0.06609
2865.97871 0.06575
2864.69295 0.06513
2863.40718 0.06458
2862.12141 0.06437
2860.83564 0.06448
2859.54987 0.06469
2858.26410 0.06482
2856.97833 0.06477
2855.69256 0.06460
2854.40680 0.06438
2853.12103 0.06417
2851.83526 0.06398
2850.54949 0.06377
2849.26372 0.06346
2847.97795 0.06298
2846.69218 0.06239
2845.40641 0.06183
2844.12064 0.06144
2842.83488 0.06115
2841.54911 0.06077
2840.26334 0.06012
2838.97757 0.05922
2837.69180 0.05824
2836.40603 0.05738
2835.12026 0.05677
2833.83449 0.05636
2832.54873 0.05603
2831.26296 0.05564
2829.97719 0.05512
2828.69142 0.05452
2827.40565 0.05394
2826.11988 0.05350
2824.83411 0.05327
2823.54834 0.05323
2822.26257 0.05326
2820.97681 0.05324
2819.69104 0.05317
2818.40527 0.05310
2817.11950 0.05303
2815.83373 0.05289
2814.54796 0.05262
2813.26219 0.05231
2811.97642 0.05206
2810.69066 0.05184
2809.40489 0.05156
2808.11912 0.05128
2806.83335 0.05108
2805.54758 0.05089
2804.26181 0.05055
2802.97604 0.05013
2801.69027 0.04989
2800.40450 0.05001
2799.11874 0.05035
2797.83297 0.05063
2796.54720 0.05071
2795.26143 0.05062
2793.97566 0.05045
2792.68989 0.05025
2791.40412 0.05012
2790.11835 0.05010
2788.83259 0.05011
2787.54682 0.04998
2786.26105 0.04967
2784.97528 0.04934
2783.68951 0.04922
2782.40374 0.04932
2781.11797 0.04946
2779.83220 0.04951
2778.54643 0.04950
2777.26067 0.04946
2775.97490 0.04934
2774.68913 0.04904
2773.40336 0.04864
2772.11759 0.04832
2770.83182 0.04820
2769.54605 0.04829
2768.26028 0.04849
2766.97452 0.04868
2765.68875 0.04874
2764.40298 0.04860
2763.11721 0.04832
2761.83144 0.04801
2760.54567 0.04773
2759.25990 0.04750
2757.97413 0.04730
2756.68836 0.04713
2755.40260 0.04709
2754.11683 0.04724
2752.83106 0.04753
2751.54529 0.04771
2750.25952 0.04767
2748.97375 0.04748
2747.68798 0.04729
2746.40221 0.04711
2745.11645 0.04690
2743.83068 0.04670
2742.54491 0.04663
2741.25914 0.04664
2739.97337 0.04665
2738.68760 0.04662
2737.40183 0.04668
2736.11606 0.04689
2734.83029 0.04710
2733.54453 0.04715
2732.25876 0.04703
2730.97299 0.04687
2729.68722 0.04673
2728.40145 0.04656
2727.11568 0.04631
2725.82991 0.04606
2724.54414 0.04591
2723.25838 0.04589
2721.97261 0.04593
2720.68684 0.04592
2719.40107 0.04583
2718.11530 0.04572
2716.82953 0.04561
2715.54376 0.04546
2714.25799 0.04529
2712.97222 0.04515
2711.68646 0.04506
2710.40069 0.04496
2709.11492 0.04484
2707.82915 0.04473
2706.54338 0.04465
2705.25761 0.04460
2703.97184 0.04459
2702.68607 0.04463
2701.40031 0.04466
2700.11454 0.04458
2698.82877 0.04433
2697.54300 0.04400
2696.25723 0.04373
2694.97146 0.04369
2693.68569 0.04386
2692.39992 0.04405
2691.11415 0.04404
2689.82839 0.04387
2688.54262 0.04374
2687.25685 0.04372
2685.97108 0.04366
2684.68531 0.04346
2683.39954 0.04325
2682.11377 0.04323
2680.82800 0.04338
2679.54224 0.04356
2678.25647 0.04365
2676.97070 0.04367
2675.68493 0.04367
2674.39916 0.04364
2673.11339 0.04355
2671.82762 0.04344
2670.54185 0.04338
2669.25608 0.04335
2667.97032 0.04324
2666.68455 0.04291
2665.39878 0.04241
2664.11301 0.04204
2662.82724 0.04203
2661.54147 0.04236
2660.25570 0.04274
2658.96993 0.04291
2657.68417 0.04283
2656.39840 0.04265
2655.11263 0.04253
2653.82686 0.04246
2652.54109 0.04232
2651.25532 0.04202
2649.96955 0.04152
2648.68378 0.04092
2647.39801 0.04034
2646.11225 0.03995
2644.82648 0.03988
2643.54071 0.04014
2642.25494 0.04049
2640.96917 0.04067
2639.68340 0.04063
2638.39763 0.04048
2637.11186 0.04031
2635.82609 0.04010
2634.54033 0.03979
2633.25456 0.03946
2631.96879 0.03923
2630.68302 0.03919
2629.39725 0.03940
2628.11148 0.03977
2626.82571 0.04010
2625.53994 0.04019
2624.25418 0.03996
2622.96841 0.03955
2621.68264 0.03921
2620.39687 0.03906
2619.11110 0.03904
2617.82533 0.03892
2616.53956 0.03861
2615.25379 0.03828
2613.96802 0.03814
2612.68226 0.03812
2611.39649 0.03795
2610.11072 0.03756
2608.82495 0.03714
2607.53918 0.03700
2606.25341 0.03721
2604.96764 0.03764
2603.68187 0.03806
2602.39611 0.03827
2601.11034 0.03826
2599.82457 0.03809
2598.53880 0.03781
2597.25303 0.03740
2595.96726 0.03691
2594.68149 0.03645
2593.39572 0.03603
2592.10995 0.03564
2590.82419 0.03533
2589.53842 0.03521
2588.25265 0.03531
2586.96688 0.03551
2585.68111 0.03569
2584.39534 0.03579
2583.10957 0.03571
2581.82380 0.03550
2580.53804 0.03535
2579.25227 0.03541
2577.96650 0.03558
2576.68073 0.03566
2575.39496 0.03558
2574.10919 0.03546
2572.82342 0.03541
2571.53765 0.03542
2570.25188 0.03540
2568.96612 0.03539
2567.68035 0.03549
2566.39458 0.03565
2565.10881 0.03565
2563.82304 0.03529
2562.53727 0.03466
2561.25150 0.03411
2559.96573 0.03394
2558.67997 0.03411
2557.39420 0.03432
2556.10843 0.03435
2554.82266 0.03428
2553.53689 0.03423
2552.25112 0.03423
2550.96535 0.03419
2549.67958 0.03408
2548.39381 0.03391
2547.10805 0.03367
2545.82228 0.03342
2544.53651 0.03334
2543.25074 0.03359
2541.96497 0.03410
2540.67920 0.03455
2539.39343 0.03459
2538.10766 0.03416
2536.82190 0.03352
2535.53613 0.03299
2534.25036 0.03274
2532.96459 0.03275
2531.67882 0.03289
2530.39305 0.03301
2529.10728 0.03298
2527.82151 0.03284
2526.53574 0.03276
2525.24998 0.03294
2523.96421 0.03337
2522.67844 0.03387
2521.39267 0.03420
2520.10690 0.03426
2518.82113 0.03410
2517.53536 0.03388
2516.24959 0.03372
2514.96383 0.03360
2513.67806 0.03340
2512.39229 0.03311
2511.10652 0.03289
2509.82075 0.03292
2508.53498 0.03313
2507.24921 0.03323
2505.96344 0.03307
2504.67767 0.03280
2503.39191 0.03266
2502.10614 0.03265
2500.82037 0.03261
2499.53460 0.03254
2498.24883 0.03254
2496.96306 0.03264
2495.67729 0.03275
2494.39152 0.03284
2493.10576 0.03291
2491.81999 0.03293
2490.53422 0.03283
2489.24845 0.03256
2487.96268 0.03220
2486.67691 0.03193
2485.39114 0.03186
2484.10537 0.03205
2482.81960 0.03243
2481.53384 0.03286
2480.24807 0.03312
2478.96230 0.03302
2477.67653 0.03264
2476.39076 0.03232
2475.10499 0.03233
2473.81922 0.03261
2472.53345 0.03289
2471.24769 0.03294
2469.96192 0.03271
2468.67615 0.03226
2467.39038 0.03179
2466.10461 0.03151
2464.81884 0.03150
2463.53307 0.03162
2462.24730 0.03176
2460.96153 0.03196
2459.67577 0.03230
2458.39000 0.03267
2457.10423 0.03280
2455.81846 0.03250
2454.53269 0.03191
2453.24692 0.03139
2451.96115 0.03127
2450.67538 0.03165
2449.38962 0.03230
2448.10385 0.03285
2446.81808 0.03311
2445.53231 0.03308
2444.24654 0.03287
2442.96077 0.03261
2441.67500 0.03241
2440.38923 0.03230
2439.10346 0.03222
2437.81770 0.03208
2436.53193 0.03182
2435.24616 0.03150
2433.96039 0.03125
2432.67462 0.03117
2431.38885 0.03130
2430.10308 0.03154
2428.81731 0.03170
2427.53155 0.03164
2426.24578 0.03134
2424.96001 0.03099
2423.67424 0.03075
2422.38847 0.03064
2421.10270 0.03059
2419.81693 0.03054
2418.53116 0.03045
2417.24539 0.03030
2415.95963 0.03019
2414.67386 0.03032
2413.38809 0.03075
2412.10232 0.03126
2410.81655 0.03155
2409.53078 0.03157
2408.24501 0.03144
2406.95924 0.03125
2405.67347 0.03100
2404.38771 0.03076
2403.10194 0.03066
2401.81617 0.03072
2400.53040 0.03088
2399.24463 0.03169
2397.95886 0.03137
2396.67309 0.03126
2395.38732 0.03151
2394.10156 0.03170
2392.81579 0.03174
2391.53002 0.03165
2390.24425 0.03147
2388.95848 0.03122
2387.67271 0.03097
2386.38694 0.03081
2385.10117 0.03080
2383.81540 0.03095
2382.52964 0.03111
2381.24387 0.03111
2379.95810 0.03090
2378.67233 0.03060
2377.38656 0.03046
2376.10079 0.03062
2374.81502 0.03098
2373.52925 0.03142
2372.24349 0.03181
2370.95772 0.03215
2369.67195 0.03218
2368.38618 0.03200
2367.10041 0.03189
2365.81464 0.03194
2364.52887 0.03175
2363.24310 0.03143
2361.95733 0.03139
2360.67157 0.03180
2359.38580 0.03201
2358.10003 0.03194
2356.81426 0.03175
2355.52849 0.03163
2354.24272 0.03168
2352.95695 0.03186
2351.67118 0.03246
2350.38542 0.03326
2349.09965 0.03341
2347.81388 0.03268
2346.52811 0.03209
2345.24234 0.03192
2343.95657 0.03147
2342.67080 0.03064
2341.38503 0.03083
2340.09926 0.03201
2338.81350 0.03213
2337.52773 0.03100
2336.24196 0.03077
2334.95619 0.03134
2333.67042 0.03076
2332.38465 0.02944
2331.09888 0.02987
2329.81311 0.03038
2328.52735 0.02910
2327.24158 0.02915
2325.95581 0.03015
2324.67004 0.02983
2323.38427 0.03008
2322.09850 0.03125
2320.81273 0.03126
2319.52696 0.03161
2318.24119 0.03210
2316.95543 0.03141
2315.66966 0.03081
2314.38389 0.03036
2313.09812 0.02973
2311.81235 0.02967
2310.52658 0.02950
2309.24081 0.02919
2307.95504 0.02895
2306.66928 0.02845
2305.38351 0.02811
2304.09774 0.02788
2302.81197 0.02774
2301.52620 0.02787
2300.24043 0.02805
2298.95466 0.02819
2297.66889 0.02811
2296.38312 0.02786
2295.09736 0.02761
2293.81159 0.02739
2292.52582 0.02721
2291.24005 0.02702
2289.95428 0.02694
2288.66851 0.02702
2287.38274 0.02710
2286.09697 0.02700
2284.81121 0.02668
2283.52544 0.02635
2282.23967 0.02624
2280.95390 0.02640
2279.66813 0.02656
2278.38236 0.02643
2277.09659 0.02600
2275.81082 0.02557
2274.52505 0.02547
2273.23929 0.02575
2271.95352 0.02611
2270.66775 0.02610
2269.38198 0.02550
2268.09621 0.02455
2266.81044 0.02382
2265.52467 0.02373
2264.23890 0.02411
2262.95314 0.02439
2261.66737 0.02412
2260.38160 0.02333
2259.09583 0.02250
2257.81006 0.02212
2256.52429 0.02224
2255.23852 0.02252
2253.95275 0.02264
2252.66698 0.02242
2251.38122 0.02178
2250.09545 0.02137
2248.80968 0.02251
2247.52391 0.02233
2246.23814 0.02208
2244.95237 0.02196
2243.66660 0.02192
2242.38083 0.02181
2241.09507 0.02166
2239.80930 0.02170
2238.52353 0.02202
2237.23776 0.02240
2235.95199 0.02254
2234.66622 0.02243
2233.38045 0.02229
2232.09468 0.02223
2230.80891 0.02197
2229.52315 0.02115
2228.23738 0.01973
2226.95161 0.01825
2225.66584 0.01737
2224.38007 0.01734
2223.09430 0.01787
2221.80853 0.01839
2220.52276 0.01864
2219.23700 0.01885
2217.95123 0.01941
2216.66546 0.02013
2215.37969 0.02034
2214.09392 0.01978
2212.80815 0.01901
2211.52238 0.01876
2210.23661 0.01910
2208.95084 0.01951
2207.66508 0.01957
2206.37931 0.01927
2205.09354 0.01890
2203.80777 0.01879
2202.52200 0.01897
2201.23623 0.01910
2199.95046 0.01883
2198.66469 0.01824
2197.37893 0.01773
2196.09316 0.01748
2194.80739 0.01730
2193.52162 0.01707
2192.23585 0.01694
2190.95008 0.01714
2189.66431 0.01758
2188.37854 0.01780
2187.09277 0.01725
2185.80701 0.01577
2184.52124 0.01388
2183.23547 0.01249
2181.94970 0.01223
2180.66393 0.01294
2179.37816 0.01378
2178.09239 0.01401
2176.80662 0.01358
2175.52085 0.01315
2174.23509 0.01327
2172.94932 0.01385
2171.66355 0.01433
2170.37778 0.01449
2169.09201 0.01461
2167.80624 0.01488
2166.52047 0.01491
2165.23470 0.01411
2163.94894 0.01252
2162.66317 0.01088
2161.37740 0.00985
2160.09163 0.00941
2158.80586 0.00911
2157.52009 0.00887
2156.23432 0.00896
2154.94855 0.00920
2153.66278 0.00899
2152.37702 0.00818
2151.09125 0.00753
2149.80548 0.00794
2148.51971 0.00950
2147.23394 0.01158
2145.94817 0.01358
2144.66240 0.01521
2143.37663 0.01621
2142.09087 0.01641
2140.80510 0.01593
2139.51933 0.01518
2138.23356 0.01455
2136.94779 0.01423
2135.66202 0.01431
2134.37625 0.01472
2133.09048 0.01527
2131.80471 0.01572
2130.51895 0.01603
2129.23318 0.01628
2127.94741 0.01649
2126.66164 0.01670
2125.37587 0.01695
2124.09010 0.01731
2122.80433 0.01767
2121.51856 0.01789
2120.23280 0.01802
2118.94703 0.01824
2117.66126 0.01865
2116.37549 0.01908
2115.08972 0.01916
2113.80395 0.01866
2112.51818 0.01768
2111.23241 0.01667
2109.94664 0.01612
2108.66088 0.01618
2107.37511 0.01655
2106.08934 0.01687
2104.80357 0.01698
2103.51780 0.01694
2102.23203 0.01678
2100.94626 0.01665
2099.66049 0.01873
2098.37473 0.02015
2097.08896 0.02053
2095.80319 0.02053
2094.51742 0.02026
2093.23165 0.01963
2091.94588 0.01872
2090.66011 0.01772
2089.37434 0.01684
2088.08857 0.01615
2086.80281 0.01570
2085.51704 0.01553
2084.23127 0.01568
2082.94550 0.01612
2081.65973 0.01669
2080.37396 0.01724
2079.08819 0.01767
2077.80242 0.01794
2076.51666 0.01801
2075.23089 0.01789
2073.94512 0.01770
2072.65935 0.01762
2071.37358 0.01767
2070.08781 0.01776
2068.80204 0.01784
2067.51627 0.01782
2066.23050 0.01751
2064.94474 0.01675
2063.65897 0.01564
2062.37320 0.01446
2061.08743 0.01332
2059.80166 0.01216
2058.51589 0.01098
2057.23012 0.01001
2055.94435 0.00953
2054.65859 0.00968
2053.37282 0.01045
2052.08705 0.01174
2050.80128 0.01330
2049.51551 0.01469
2048.22974 0.01546
2046.94397 0.01529
2045.65820 0.01432
2044.37243 0.01309
2043.08667 0.01225
2041.80090 0.01213
2040.51513 0.01261
2039.22936 0.01337
2037.94359 0.01415
2036.65782 0.01478
2035.37205 0.01517
2034.08628 0.01519
2032.80052 0.01474
2031.51475 0.01374
2030.22898 0.01227
2028.94321 0.01073
2027.65744 0.00974
2026.37167 0.00959
2025.08590 0.00996
2023.80013 0.01019
2022.51436 0.00993
2021.22860 0.00933
2019.94283 0.00878
2018.65706 0.00860
2017.37129 0.00896
2016.08552 0.00980
2014.79975 0.01096
2013.51398 0.01225
2012.22821 0.01357
2010.94245 0.01478
2009.65668 0.01564
2008.37091 0.01590
2007.08514 0.01564
2005.79937 0.01517
2004.51360 0.01468
2003.22783 0.01409
2001.94206 0.01336
2000.65629 0.01276
1999.37053 0.01258
1998.08476 0.01272
1996.79899 0.01275
1995.51322 0.01250
1994.22745 0.01232
1992.94168 0.01250
1991.65591 0.01278
1990.37014 0.01267
1989.08438 0.01212
1987.79861 0.01170
1986.51284 0.01194
1985.22707 0.01277
1983.94130 0.01373
1982.65553 0.01447
1981.36976 0.01503
1980.08399 0.01567
1978.79822 0.01667
1977.51246 0.01808
1976.22669 0.01952
1974.94092 0.02037
1973.65515 0.02022
1972.36938 0.01936
1971.08361 0.01852
1969.79784 0.01826
1968.51207 0.01846
1967.22631 0.01858
1965.94054 0.01827
1964.65477 0.01770
1963.36900 0.01723
1962.08323 0.01697
1960.79746 0.01676
1959.51169 0.01641
1958.22592 0.01591
1956.94015 0.01523
1955.65439 0.01445
1954.36862 0.01382
1953.08285 0.01369
1951.79708 0.01418
1950.51131 0.01505
1949.22554 0.01592
1947.93977 0.01656
1946.65400 0.01705
1945.36823 0.01759
1944.08247 0.01823
1942.79670 0.01882
1941.51093 0.01918
1940.22516 0.01930
1938.93939 0.01934
1937.65362 0.01944
1936.36785 0.01951
1935.08208 0.01944
1933.79632 0.01920
1932.51055 0.01894
1931.22478 0.01881
1929.93901 0.01889
1928.65324 0.01910
1927.36747 0.01930
1926.08170 0.01932
1924.79593 0.01907
1923.51016 0.01869
1922.22440 0.01852
1920.93863 0.01880
1919.65286 0.01941
1918.36709 0.02002
1917.08132 0.02032
1915.79555 0.02020
1914.50978 0.01979
1913.22401 0.01937
1911.93825 0.01915
1910.65248 0.01917
1909.36671 0.01934
1908.08094 0.01946
1906.79517 0.01939
1905.50940 0.01911
1904.22363 0.01876
1902.93786 0.01855
1901.65209 0.01855
1900.36633 0.01867
1899.08056 0.01882
1897.79479 0.01897
1896.50902 0.01912
1895.22325 0.01935
1893.93748 0.01972
1892.65171 0.02011
1891.36594 0.02030
1890.08018 0.02015
1888.79441 0.01974
1887.50864 0.01932
1886.22287 0.01905
1884.93710 0.01895
1883.65133 0.01897
1882.36556 0.01903
1881.07979 0.01905
1879.79402 0.01895
1878.50826 0.01869
1877.22249 0.01833
1875.93672 0.01800
1874.65095 0.01786
1873.36518 0.01797
1872.07941 0.01827
1870.79364 0.01856
1869.50787 0.01867
1868.22211 0.01857
1866.93634 0.01833
1865.65057 0.01806
1864.36480 0.01783
1863.07903 0.01767
1861.79326 0.01761
1860.50749 0.01768
1859.22172 0.01784
1857.93595 0.01805
1856.65019 0.01826
1855.36442 0.01845
1854.07865 0.01858
1852.79288 0.01857
1851.50711 0.01841
1850.22134 0.01826
1848.93557 0.01829
1847.64980 0.01856
1846.36404 0.01890
1845.07827 0.01909
1843.79250 0.01911
1842.50673 0.01904
1841.22096 0.01895
1839.93519 0.01889
1838.64942 0.01886
1837.36365 0.01887
1836.07788 0.01890
1834.79212 0.01895
1833.50635 0.01903
1832.22058 0.01910
1830.93481 0.01915
1829.64904 0.01922
1828.36327 0.01935
1827.07750 0.01953
1825.79173 0.01972
1824.50597 0.01995
1823.22020 0.02019
1821.93443 0.02037
1820.64866 0.02047
1819.36289 0.02042
1818.07712 0.02012
1816.79135 0.01952
1815.50558 0.01877
1814.21981 0.01810
1812.93405 0.01768
1811.64828 0.01753
1810.36251 0.01755
1809.07674 0.01762
1807.79097 0.01769
1806.50520 0.01779
1805.21943 0.01797
1803.93366 0.01823
1802.64790 0.01850
1801.36213 0.01867
1800.07636 0.01871
1798.79059 0.01866
1797.50482 0.01858
1796.21905 0.01856
1794.93328 0.01861
1793.64751 0.01871
1792.36174 0.01886
1791.07598 0.01905
1789.79021 0.01917
1788.50444 0.01914
1787.21867 0.01900
1785.93290 0.01884
1784.64713 0.01876
1783.36136 0.01876
1782.07559 0.01877
1780.78983 0.01876
1779.50406 0.01878
1778.21829 0.01884
1776.93252 0.01891
1775.64675 0.01894
1774.36098 0.01887
1773.07521 0.01879
1771.78944 0.01878
1770.50367 0.01883
1769.21791 0.01882
1767.93214 0.01872
1766.64637 0.01863
1765.36060 0.01862
1764.07483 0.01866
1762.78906 0.01875
1761.50329 0.01885
1760.21752 0.01886
1758.93176 0.01873
1757.64599 0.01849
1756.36022 0.01831
1755.07445 0.01825
1753.78868 0.01829
1752.50291 0.01838
1751.21714 0.01853
1749.93137 0.01865
1748.64560 0.01864
1747.35984 0.01847
1746.07407 0.01828
1744.78830 0.01816
1743.50253 0.01817
1742.21676 0.01827
1740.93099 0.01841
1739.64522 0.01858
1738.35945 0.01880
1737.07369 0.01896
1735.78792 0.01900
1734.50215 0.01903
1733.21638 0.01912
1731.93061 0.01912
1730.64484 0.01890
1729.35907 0.01860
1728.07330 0.01844
1726.78753 0.01842
1725.50177 0.01843
1724.21600 0.01844
1722.93023 0.01855
1721.64446 0.01886
1720.35869 0.01928
1719.07292 0.01970
1717.78715 0.02008
1716.50138 0.02040
1715.21561 0.02062
1713.92985 0.02074
1712.64408 0.02092
1711.35831 0.02127
1710.07254 0.02183
1708.78677 0.02249
1707.50100 0.02318
1706.21523 0.02389
1704.92946 0.02474
1703.64370 0.02571
1702.35793 0.02667
1701.07216 0.02759
1699.78639 0.02864
1698.50062 0.02973
1697.21485 0.03066
1695.92908 0.03151
1694.64331 0.03245
1693.35754 0.03339
1692.07178 0.03420
1690.78601 0.03504
1689.50024 0.03612
1688.21447 0.03744
1686.92870 0.03875
1685.64293 0.03993
1684.35716 0.04104
1683.07139 0.04210
1681.78563 0.04300
1680.49986 0.04377
1679.21409 0.04463
1677.92832 0.04566
1676.64255 0.04678
1675.35678 0.04796
1674.07101 0.04919
1672.78524 0.05039
1671.49947 0.05146
1670.21371 0.05247
1668.92794 0.05351
1667.64217 0.05457
1666.35640 0.05561
1665.07063 0.05660
1663.78486 0.05758
1662.49909 0.05857
1661.21332 0.05952
1659.92756 0.06040
1658.64179 0.06129
1657.35602 0.06231
1656.07025 0.06339
1654.78448 0.06437
1653.49871 0.06527
1652.21294 0.06614
1650.92717 0.06682
1649.64140 0.06708
1648.35564 0.06703
1647.06987 0.06700
1645.78410 0.06710
1644.49833 0.06716
1643.21256 0.06704
1641.92679 0.06677
1640.64102 0.06652
1639.35525 0.06637
1638.06949 0.06623
1636.78372 0.06601
1635.49795 0.06565
1634.21218 0.06509
1632.92641 0.06427
1631.64064 0.06325
1630.35487 0.06223
1629.06910 0.06133
1627.78333 0.06053
1626.49757 0.05967
1625.21180 0.05866
1623.92603 0.05755
1622.64026 0.05649
1621.35449 0.05559
1620.06872 0.05477
1618.78295 0.05391
1617.49718 0.05298
1616.21142 0.05207
1614.92565 0.05117
1613.63988 0.05022
1612.35411 0.04927
1611.06834 0.04844
1609.78257 0.04776
1608.49680 0.04716
1607.21103 0.04662
1605.92526 0.04615
1604.63950 0.04579
1603.35373 0.04554
1602.06796 0.04534
1600.78219 0.04518
1599.49642 0.04503
1598.21065 0.04494
1596.92488 0.04494
1595.63911 0.04503
1594.35335 0.04518
1593.06758 0.04531
1591.78181 0.04537
1590.49604 0.04540
1589.21027 0.04548
1587.92450 0.04565
1586.63873 0.04590
1585.35296 0.04618
1584.06719 0.04648
1582.78143 0.04684
1581.49566 0.04731
1580.20989 0.04796
1578.92412 0.04870
1577.63835 0.04939
1576.35258 0.05004
1575.06681 0.05071
1573.78104 0.05135
1572.49528 0.05186
1571.20951 0.05230
1569.92374 0.05280
1568.63797 0.05340
1567.35220 0.05400
1566.06643 0.05453
1564.78066 0.05511
1563.49489 0.05586
1562.20912 0.05668
1560.92336 0.05743
1559.63759 0.05809
1558.35182 0.05870
1557.06605 0.05917
1555.78028 0.05940
1554.49451 0.05949
1553.20874 0.05963
1551.92297 0.05982
1550.63721 0.05999
1549.35144 0.06015
1548.06567 0.06037
1546.77990 0.06064
1545.49413 0.06096
1544.20836 0.06130
1542.92259 0.06159
1541.63682 0.06170
1540.35105 0.06161
1539.06529 0.06141
1537.77952 0.06117
1536.49375 0.06085
1535.20798 0.06052
1533.92221 0.06032
1532.63644 0.06033
1531.35067 0.06045
1530.06490 0.06059
1528.77914 0.06077
1527.49337 0.06109
1526.20760 0.06157
1524.92183 0.06216
1523.63606 0.06273
1522.35029 0.06320
1521.06452 0.06365
1519.77875 0.06411
1518.49298 0.06451
1517.20722 0.06485
1515.92145 0.06529
1514.63568 0.06589
1513.34991 0.06662
1512.06414 0.06755
1510.77837 0.06867
1509.49260 0.06986
1508.20683 0.07090
1506.92107 0.07175
1505.63530 0.07250
1504.34953 0.07315
1503.06376 0.07366
1501.77799 0.07414
1500.49222 0.07471
1499.20645 0.07534
1497.92068 0.07591
1496.63491 0.07635
1495.34915 0.07673
1494.06338 0.07710
1492.77761 0.07746
1491.49184 0.07787
1490.20607 0.07840
1488.92030 0.07906
1487.63453 0.07978
1486.34876 0.08055
1485.06299 0.08138
1483.77723 0.08228
1482.49146 0.08324
1481.20569 0.08425
1479.91992 0.08533
1478.63415 0.08649
1477.34838 0.08775
1476.06261 0.08905
1474.77684 0.09030
1473.49108 0.09141
1472.20531 0.09240
1470.91954 0.09329
1469.63377 0.09407
1468.34800 0.09475
1467.06223 0.09536
1465.77646 0.09593
1464.49069 0.09649
1463.20492 0.09711
1461.91916 0.09786
1460.63339 0.09876
1459.34762 0.09978
1458.06185 0.10083
1456.77608 0.10185
1455.49031 0.10274
1454.20454 0.10337
1452.91877 0.10374
1451.63301 0.10401
1450.34724 0.10425
1449.06147 0.10441
1447.77570 0.10445
1446.48993 0.10439
1445.20416 0.10428
1443.91839 0.10413
1442.63262 0.10398
1441.34685 0.10388
1440.06109 0.10381
1438.77532 0.10369
1437.48955 0.10353
1436.20378 0.10345
1434.91801 0.10353
1433.63224 0.10377
1432.34647 0.10417
1431.06070 0.10480
1429.77494 0.10566
1428.48917 0.10668
1427.20340 0.10778
1425.91763 0.10894
1424.63186 0.11020
1423.34609 0.11155
1422.06032 0.11291
1420.77455 0.11414
1419.48878 0.11528
1418.20302 0.11637
1416.91725 0.11737
1415.63148 0.11823
1414.34571 0.11893
1413.05994 0.11951
1411.77417 0.11995
1410.48840 0.12020
1409.20263 0.12028
1407.91687 0.12018
1406.63110 0.11988
1405.34533 0.11939
1404.05956 0.11870
1402.77379 0.11780
1401.48802 0.11669
1400.20225 0.11541
1398.91648 0.11404
1397.63071 0.11260
1396.34495 0.11106
1395.05918 0.10940
1393.77341 0.10765
1392.48764 0.10583
1391.20187 0.10395
1389.91610 0.10203
1388.63033 0.10012
1387.34456 0.09820
1386.05880 0.09626
1384.77303 0.09427
1383.48726 0.09221
1382.20149 0.09014
1380.91572 0.08810
1379.62995 0.08613
1378.34418 0.08421
1377.05841 0.08227
1375.77264 0.08024
1374.48688 0.07808
1373.20111 0.07587
1371.91534 0.07366
1370.62957 0.07148
1369.34380 0.06935
1368.05803 0.06730
1366.77226 0.06534
1365.48649 0.06351
1364.20073 0.06177
1362.91496 0.06010
1361.62919 0.05847
1360.34342 0.05688
1359.05765 0.05543
1357.77188 0.05417
1356.48611 0.05309
1355.20034 0.05212
1353.91457 0.05118
1352.62881 0.05028
1351.34304 0.04945
1350.05727 0.04871
1348.77150 0.04804
1347.48573 0.04737
1346.19996 0.04670
1344.91419 0.04607
1343.62842 0.04552
1342.34266 0.04504
1341.05689 0.04462
1339.77112 0.04420
1338.48535 0.04377
1337.19958 0.04334
1335.91381 0.04293
1334.62804 0.04255
1333.34227 0.04218
1332.05650 0.04180
1330.77074 0.04138
1329.48497 0.04091
1328.19920 0.04043
1326.91343 0.03997
1325.62766 0.03956
1324.34189 0.03915
1323.05612 0.03873
1321.77035 0.03832
1320.48459 0.03793
1319.19882 0.03758
1317.91305 0.03725
1316.62728 0.03694
1315.34151 0.03664
1314.05574 0.03634
1312.76997 0.03603
1311.48420 0.03570
1310.19843 0.03534
1308.91267 0.03498
1307.62690 0.03466
1306.34113 0.03440
1305.05536 0.03416
1303.76959 0.03390
1302.48382 0.03360
1301.19805 0.03328
1299.91228 0.03294
1298.62652 0.03260
1297.34075 0.03227
1296.05498 0.03198
1294.76921 0.03174
1293.48344 0.03156
1292.19767 0.03142
1290.91190 0.03132
1289.62613 0.03122
1288.34036 0.03109
1287.05460 0.03094
1285.76883 0.03079
1284.48306 0.03066
1283.19729 0.03056
1281.91152 0.03047
1280.62575 0.03037
1279.33998 0.03022
1278.05421 0.03003
1276.76845 0.02982
1275.48268 0.02961
1274.19691 0.02945
1272.91114 0.02931
1271.62537 0.02918
1270.33960 0.02905
1269.05383 0.02897
1267.76806 0.02896
1266.48229 0.02899
1265.19653 0.02899
1263.91076 0.02892
1262.62499 0.02879
1261.33922 0.02866
1260.05345 0.02856
1258.76768 0.02850
1257.48191 0.02847
1256.19614 0.02848
1254.91037 0.02849
1253.62461 0.02847
1252.33884 0.02843
1251.05307 0.02838
1249.76730 0.02834
1248.48153 0.02830
1247.19576 0.02824
1245.90999 0.02818
1244.62422 0.02814
1243.33846 0.02811
1242.05269 0.02806
1240.76692 0.02797
1239.48115 0.02782
1238.19538 0.02766
1236.90961 0.02751
1235.62384 0.02739
1234.33807 0.02728
1233.05230 0.02716
1231.76654 0.02699
1230.48077 0.02677
1229.19500 0.02651
1227.90923 0.02622
1226.62346 0.02592
1225.33769 0.02563
1224.05192 0.02535
1222.76615 0.02505
1221.48039 0.02472
1220.19462 0.02436
1218.90885 0.02400
1217.62308 0.02367
1216.33731 0.02336
1215.05154 0.02306
1213.76577 0.02279
1212.48000 0.02257
1211.19423 0.02242
1209.90847 0.02235
1208.62270 0.02231
1207.33693 0.02227
1206.05116 0.02223
1204.76539 0.02224
1203.47962 0.02229
1202.19385 0.02226
1200.90808 0.02199
1199.62232 0.02165
1198.33655 0.02144
1197.05078 0.02123
1195.76501 0.02104
1194.47924 0.02088
1193.19347 0.02073
1191.90770 0.02056
1190.62193 0.02035
1189.33616 0.02010
1188.05040 0.01984
1186.76463 0.01960
1185.47886 0.01941
1184.19309 0.01926
1182.90732 0.01913
1181.62155 0.01902
1180.33578 0.01890
1179.05001 0.01873
1177.76425 0.01857
1176.47848 0.01848
1175.19271 0.01850
1173.90694 0.01856
1172.62117 0.01863
1171.33540 0.01869
1170.04963 0.01877
1168.76386 0.01888
1167.47809 0.01900
1166.19233 0.01909
1164.90656 0.01909
1163.62079 0.01902
1162.33502 0.01892
1161.04925 0.01887
1159.76348 0.01890
1158.47771 0.01903
1157.19194 0.01922
1155.90618 0.01944
1154.62041 0.01962
1153.33464 0.01973
1152.04887 0.01976
1150.76310 0.01978
1149.47733 0.01984
1148.19156 0.01999
1146.90579 0.02022
1145.62002 0.02051
1144.33426 0.02087
1143.04849 0.02132
1141.76272 0.02186
1140.47695 0.02249
1139.19118 0.02322
1137.90541 0.02408
1136.61964 0.02509
1135.33387 0.02624
1134.04811 0.02750
1132.76234 0.02885
1131.47657 0.03037
1130.19080 0.03211
1128.90503 0.03411
1127.61926 0.03638
1126.33349 0.03887
1125.04772 0.04154
1123.76195 0.04434
1122.47619 0.04726
1121.19042 0.05028
1119.90465 0.05336
1118.61888 0.05645
1117.33311 0.05953
1116.04734 0.06262
1114.76157 0.06570
1113.47580 0.06877
1112.19004 0.07176
1110.90427 0.07461
1109.61850 0.07732
1108.33273 0.07994
1107.04696 0.08256
1105.76119 0.08519
1104.47542 0.08783
1103.18965 0.09039
1101.90388 0.09277
1100.61812 0.09496
1099.33235 0.09707
1098.04658 0.09922
1096.76081 0.10144
1095.47504 0.10362
1094.18927 0.10565
1092.90350 0.10749
1091.61773 0.10919
1090.33197 0.11081
1089.04620 0.11235
1087.76043 0.11380
1086.47466 0.11517
1085.18889 0.11655
1083.90312 0.11802
1082.61735 0.11959
1081.33158 0.12127
1080.04581 0.12305
1078.76005 0.12500
1077.47428 0.12720
1076.18851 0.12961
1074.90274 0.13214
1073.61697 0.13466
1072.33120 0.13714
1071.04543 0.13964
1069.75966 0.14227
1068.47390 0.14507
1067.18813 0.14799
1065.90236 0.15095
1064.61659 0.15393
1063.33082 0.15697
1062.04505 0.16011
1060.75928 0.16329
1059.47351 0.16641
1058.18774 0.16939
1056.90198 0.17228
1055.61621 0.17520
1054.33044 0.17822
1053.04467 0.18131
1051.75890 0.18432
1050.47313 0.18721
1049.18736 0.19003
1047.90159 0.19290
1046.61583 0.19586
1045.33006 0.19892
1044.04429 0.20202
1042.75852 0.20512
1041.47275 0.20820
1040.18698 0.21125
1038.90121 0.21434
1037.61544 0.21750
1036.32967 0.22074
1035.04391 0.22403
1033.75814 0.22727
1032.47237 0.23038
1031.18660 0.23333
1029.90083 0.23611
1028.61506 0.23870
1027.32929 0.24104
1026.04352 0.24313
1024.75775 0.24500
1023.47199 0.24666
1022.18622 0.24807
1020.90045 0.24911
1019.61468 0.24968
1018.32891 0.24980
1017.04314 0.24953
1015.75737 0.24898
1014.47160 0.24820
1013.18584 0.24718
1011.90007 0.24581
1010.61430 0.24404
1009.32853 0.24189
1008.04276 0.23934
1006.75699 0.23641
1005.47122 0.23313
1004.18545 0.22957
1002.89968 0.22579
1001.61392 0.22178
1000.32815 0.21753
999.04238 0.21303
997.75661 0.20831
996.47084 0.20338
995.18507 0.19825
993.89930 0.19299
992.61353 0.18767
991.32777 0.18231
990.04200 0.17693
988.75623 0.17154
987.47046 0.16626
986.18469 0.16112
984.89892 0.15615
983.61315 0.15130
982.32738 0.14659
981.04161 0.14205
979.75585 0.13776
978.47008 0.13374
977.18431 0.12998
975.89854 0.12646
974.61277 0.12320
973.32700 0.12030
972.04123 0.11793
970.75546 0.11620
969.46970 0.11515
968.18393 0.11480
966.89816 0.11508
965.61239 0.11582
964.32662 0.11673
963.04085 0.11748
961.75508 0.11783
960.46931 0.11764
959.18354 0.11685
957.89778 0.11549
956.61201 0.11368
955.32624 0.11160
954.04047 0.10939
952.75470 0.10706
951.46893 0.10462
950.18316 0.10207
948.89739 0.09951
947.61163 0.09699
946.32586 0.09454
945.04009 0.09220
943.75432 0.08995
942.46855 0.08778
941.18278 0.08569
939.89701 0.08367
938.61124 0.08176
937.32547 0.07995
936.03971 0.07824
934.75394 0.07662
933.46817 0.07512
932.18240 0.07376
930.89663 0.07251
929.61086 0.07130
928.32509 0.07011
927.03932 0.06895
925.75356 0.06786
924.46779 0.06683
923.18202 0.06585
921.89625 0.06492
920.61048 0.06400
919.32471 0.06303
918.03894 0.06202
916.75317 0.06105
915.46740 0.06026
914.18164 0.05970
912.89587 0.05926
911.61010 0.05876
910.32433 0.05809
909.03856 0.05727
907.75279 0.05644
906.46702 0.05569
905.18125 0.05503
903.89549 0.05443
902.60972 0.05389
901.32395 0.05345
900.03818 0.05309
898.75241 0.05273
897.46664 0.05227
896.18087 0.05167
894.89510 0.05101
893.60933 0.05039
892.32357 0.04996
891.03780 0.04974
889.75203 0.04976
888.46626 0.05001
887.18049 0.05055
885.89472 0.05146
884.60895 0.05290
883.32318 0.05503
882.03742 0.05782
880.75165 0.06093
879.46588 0.06380
878.18011 0.06609
876.89434 0.06791
875.60857 0.06968
874.32280 0.07165
873.03703 0.07366
871.75126 0.07524
870.46550 0.07597
869.17973 0.07565
867.89396 0.07441
866.60819 0.07252
865.32242 0.07023
864.03665 0.06770
862.75088 0.06503
861.46511 0.06236
860.17935 0.05989
858.89358 0.05779
857.60781 0.05610
856.32204 0.05475
855.03627 0.05358
853.75050 0.05254
852.46473 0.05164
851.17896 0.05090
849.89319 0.05030
848.60743 0.04977
847.32166 0.04925
846.03589 0.04869
844.75012 0.04811
843.46435 0.04759
842.17858 0.04715
840.89281 0.04677
839.60704 0.04642
838.32128 0.04603
837.03551 0.04557
835.74974 0.04503
834.46397 0.04449
833.17820 0.04404
831.89243 0.04366
830.60666 0.04331
829.32089 0.04299
828.03512 0.04275
826.74936 0.04260
825.46359 0.04248
824.17782 0.04234
822.89205 0.04221
821.60628 0.04215
820.32051 0.04216
819.03474 0.04215
817.74897 0.04205
816.46321 0.04189
815.17744 0.04172
813.89167 0.04156
812.60590 0.04141
811.32013 0.04124
810.03436 0.04106
808.74859 0.04086
807.46282 0.04067
806.17705 0.04054
804.89129 0.04047
803.60552 0.04044
802.31975 0.04040
801.03398 0.04031
799.74821 0.04018
798.46244 0.04001
797.17667 0.03979
795.89090 0.03956
794.60513 0.03938
793.31937 0.03927
792.03360 0.03924
790.74783 0.03928
789.46206 0.03937
788.17629 0.03948
786.89052 0.03959
785.60475 0.03966
784.31898 0.03961
783.03322 0.03940
781.74745 0.03910
780.46168 0.03887
779.17591 0.03879
777.89014 0.03880
776.60437 0.03875
775.31860 0.03862
774.03283 0.03848
772.74706 0.03841
771.46130 0.03844
770.17553 0.03853
768.88976 0.03857
767.60399 0.03849
766.31822 0.03834
765.03245 0.03823
763.74668 0.03827
762.46091 0.03842
761.17515 0.03855
759.88938 0.03857
758.60361 0.03853
757.31784 0.03851
756.03207 0.03860
754.74630 0.03879
753.46053 0.03902
752.17476 0.03916
750.88899 0.03911
749.60323 0.03891
748.31746 0.03872
747.03169 0.03867
745.74592 0.03866
744.46015 0.03856
743.17438 0.03833
741.88861 0.03804
740.60284 0.03781
739.31708 0.03773
738.03131 0.03778
736.74554 0.03790
735.45977 0.03803
734.17400 0.03815
732.88823 0.03823
731.60246 0.03823
730.31669 0.03816
729.03092 0.03811
727.74516 0.03813
726.45939 0.03819
725.17362 0.03825
723.88785 0.03836
722.60208 0.03835
721.31631 0.03848
720.03054 0.03864
718.74477 0.03878
717.45901 0.03885
716.17324 0.03886
714.88747 0.03880
713.60170 0.03867
712.31593 0.03850
711.03016 0.03834
709.74439 0.03822
708.45862 0.03811
707.17285 0.03801
705.88709 0.03793
704.60132 0.03788
703.31555 0.03788
702.02978 0.03790
700.74401 0.03791
699.45824 0.03791
698.17247 0.03794
696.88670 0.03800
695.60094 0.03805
694.31517 0.03805
693.02940 0.03798
691.74363 0.03788
690.45786 0.03783
689.17209 0.03785
687.88632 0.03788
686.60055 0.03786
685.31478 0.03772
684.02902 0.03747
682.74325 0.03716
681.45748 0.03683
680.17171 0.03655
678.88594 0.03636
677.60017 0.03629
676.31440 0.03635
675.02863 0.03648
673.74287 0.03669
672.45710 0.03698
671.17133 0.03726
669.88556 0.03715
668.59979 0.03644
667.31402 0.03631
666.02825 0.03702
664.74248 0.03706
663.45671 0.03665
662.17095 0.03623
660.88518 0.03594
659.59941 0.03574
658.31364 0.03557
657.02787 0.03537
655.74210 0.03510
654.45633 0.03483
653.17056 0.03461
651.88480 0.03446
650.59903 0.03436
649.31326 0.03424
648.02749 0.03411
646.74172 0.03396
645.45595 0.03382
644.17018 0.03371
642.88441 0.03361
641.59864 0.03350
640.31288 0.03337
639.02711 0.03325
637.74134 0.03315
636.45557 0.03307
635.16980 0.03306
633.88403 0.03314
632.59826 0.03314
631.31249 0.03273
630.02673 0.03293
628.74096 0.03559
627.45519 0.03588
626.16942 0.04018
624.88365 0.04733
623.59788 0.05459
622.31211 0.06102
621.02634 0.06584
619.74057 0.06796
618.45481 0.06717
617.16904 0.06474
615.88327 0.06266
614.59750 0.06272
613.31173 0.06592
612.02596 0.07204
610.74019 0.07953
609.45442 0.08672
608.16866 0.09307
606.88289 0.09900
605.59712 0.10464
604.31135 0.10939
603.02558 0.11231
601.73981 0.11276
600.45404 0.11089
599.16827 0.10758
597.88250 0.10385
596.59674 0.10032
595.31097 0.09708
594.02520 0.09401
592.73943 0.09113
591.45366 0.08871
590.16789 0.08703
588.88212 0.08621
587.59635 0.08620
586.31059 0.08686
585.02482 0.08811
583.73905 0.08990
582.45328 0.09220
581.16751 0.09488
579.88174 0.09775
578.59597 0.10061
577.31020 0.10327
576.02443 0.10567
574.73867 0.10783
573.45290 0.10995
572.16713 0.11227
570.88136 0.11504
569.59559 0.11833
568.30982 0.12203
567.02405 0.12590
565.73828 0.12959
564.45251 0.13277
563.16675 0.13518
561.88098 0.13658
560.59521 0.13676
559.30944 0.13553
558.02367 0.13290
556.73790 0.12905
555.45213 0.12430
554.16636 0.11899
552.88060 0.11340
551.59483 0.10779
550.30906 0.10239
549.02329 0.09735
547.73752 0.09276
546.45175 0.08863
545.16598 0.08498
543.88021 0.08181
542.59444 0.07909
541.30868 0.07675
540.02291 0.07465
538.73714 0.07262
537.45137 0.07055
536.16560 0.06847
534.87983 0.06650
533.59406 0.06472
532.30829 0.06310
531.02253 0.06159
529.73676 0.06018
528.45099 0.05880
527.16522 0.05741
525.87945 0.05604
524.59368 0.05480
523.30791 0.05379
522.02214 0.05296
520.73637 0.05220
519.45061 0.05136
518.16484 0.05041
516.87907 0.04939
515.59330 0.04836
514.30753 0.04737
513.02176 0.04646
511.73599 0.04563
510.45022 0.04489
509.16446 0.04421
507.87869 0.04357
506.59292 0.04299
505.30715 0.04246
504.02138 0.04197
502.73561 0.04144
501.44984 0.04085
500.16407 0.04019
498.87830 0.03951
497.59254 0.03883
496.30677 0.03816
495.02100 0.03757
493.73523 0.03709
492.44946 0.03679
491.16369 0.03663
489.87792 0.03653
488.59215 0.03637
487.30639 0.03610
486.02062 0.03576
484.73485 0.03546
483.44908 0.03526
482.16331 0.03513
480.87754 0.03503
479.59177 0.03494
478.30600 0.03490
477.02023 0.03492
475.73447 0.03501
474.44870 0.03515
473.16293 0.03530
471.87716 0.03541
470.59139 0.03541
469.30562 0.03529
468.01985 0.03509
466.73408 0.03481
465.44832 0.03440
464.16255 0.03385
462.87678 0.03324
461.59101 0.03271
460.30524 0.03229
459.01947 0.03193
457.73370 0.03157
456.44793 0.03117
455.16216 0.03072
453.87640 0.03025
452.59063 0.02982
451.30486 0.02946
450.01909 0.02917
448.73332 0.02887
447.44755 0.02854
446.16178 0.02822
444.87601 0.02795
443.59025 0.02772
442.30448 0.02750
441.01871 0.02727
439.73294 0.02707
438.44717 0.02692
437.16140 0.02682
435.87563 0.02670
434.58986 0.02654
433.30409 0.02634
432.01833 0.02611
430.73256 0.02583
429.44679 0.02551
428.16102 0.02518
426.87525 0.02492
425.58948 0.02475
424.30371 0.02467
423.01794 0.02459
421.73218 0.02446
420.44641 0.02427
419.16064 0.02406
417.87487 0.02385
416.58910 0.02362
415.30333 0.02336
414.01756 0.02312
412.73179 0.02296
411.44602 0.02286
410.16026 0.02282
408.87449 0.02279
407.58872 0.02278
406.30295 0.02278
405.01718 0.02279
403.73141 0.02278
402.44564 0.02276
401.15987 0.02277
399.87411 0.02284
