3997.45528	0.06210
3996.16951	0.06173
3994.88374	0.06118
3993.59798	0.06092
3992.31221	0.06123
3991.02644	0.06170
3989.74067	0.06168
3988.45490	0.06110
3987.16913	0.06045
3985.88336	0.06002
3984.59759	0.05961
3983.31183	0.05878
3982.02606	0.05757
3980.74029	0.05664
3979.45452	0.05659
3978.16875	0.05727
3976.88298	0.05780
3975.59721	0.05759
3974.31144	0.05694
3973.02567	0.05672
3971.73991	0.05735
3970.45414	0.05846
3969.16837	0.05923
3967.88260	0.05927
3966.59683	0.05881
3965.31106	0.05843
3964.02529	0.05852
3962.73952	0.05907
3961.45376	0.05981
3960.16799	0.06033
3958.88222	0.06029
3957.59645	0.05959
3956.31068	0.05853
3955.02491	0.05763
3953.73914	0.05722
3952.45337	0.05733
3951.16760	0.05784
3949.88184	0.05853
3948.59607	0.05896
3947.31030	0.05869
3946.02453	0.05785
3944.73876	0.05720
3943.45299	0.05745
3942.16722	0.05852
3940.88145	0.05966
3939.59569	0.06008
3938.30992	0.05946
3937.02415	0.05813
3935.73838	0.05679
3934.45261	0.05598
3933.16684	0.05586
3931.88107	0.05628
3930.59530	0.05705
3929.30953	0.05783
3928.02377	0.05821
3926.73800	0.05790
3925.45223	0.05701
3924.16646	0.05598
3922.88069	0.05543
3921.59492	0.05578
3920.30915	0.05689
3919.02338	0.05813
3917.73762	0.05887
3916.45185	0.05885
3915.16608	0.05830
3913.88031	0.05763
3912.59454	0.05703
3911.30877	0.05656
3910.02300	0.05629
3908.73723	0.05631
3907.45146	0.05658
3906.16570	0.05692
3904.87993	0.05703
3903.59416	0.05676
3902.30839	0.05641
3901.02262	0.05645
3899.73685	0.05699
3898.45108	0.05764
3897.16531	0.05791
3895.87955	0.05759
3894.59378	0.05673
3893.30801	0.05552
3892.02224	0.05415
3890.73647	0.05291
3889.45070	0.05237
3888.16493	0.05303
3886.87916	0.05453
3885.59339	0.05586
3884.30763	0.05654
3883.02186	0.05697
3881.73609	0.05745
3880.45032	0.05754
3879.16455	0.05668
3877.87878	0.05502
3876.59301	0.05325
3875.30724	0.05194
3874.02148	0.05134
3872.73571	0.05165
3871.44994	0.05281
3870.16417	0.05425
3868.87840	0.05531
3867.59263	0.05594
3866.30686	0.05616
3865.02109	0.05583
3863.73532	0.05511
3862.44956	0.05464
3861.16379	0.05472
3859.87802	0.05493
3858.59225	0.05469
3857.30648	0.05394
3856.02071	0.05309
3854.73494	0.05247
3853.44917	0.05199
3852.16341	0.05156
3850.87764	0.05138
3849.59187	0.05138
3848.30610	0.05128
3847.02033	0.05118
3845.73456	0.05148
3844.44879	0.05238
3843.16302	0.05342
3841.87725	0.05388
3840.59149	0.05356
3839.30572	0.05287
3838.01995	0.05226
3836.73418	0.05205
3835.44841	0.05252
3834.16264	0.05363
3832.87687	0.05479
3831.59110	0.05530
3830.30534	0.05499
3829.01957	0.05429
3827.73380	0.05376
3826.44803	0.05360
3825.16226	0.05371
3823.87649	0.05395
3822.59072	0.05403
3821.30495	0.05357
3820.01918	0.05269
3818.73342	0.05221
3817.44765	0.05268
3816.16188	0.05351
3814.87611	0.05381
3813.59034	0.05342
3812.30457	0.05266
3811.01880	0.05185
3809.73303	0.05158
3808.44726	0.05232
3807.16150	0.05361
3805.87573	0.05458
3804.58996	0.05498
3803.30419	0.05503
3802.01842	0.05451
3800.73265	0.05316
3799.44688	0.05154
3798.16111	0.05058
3796.87535	0.05033
3795.58958	0.05016
3794.30381	0.04979
3793.01804	0.04946
3791.73227	0.04948
3790.44650	0.04978
3789.16073	0.04994
3787.87496	0.04962
3786.58919	0.04896
3785.30343	0.04850
3784.01766	0.04860
3782.73189	0.04911
3781.44612	0.04959
3780.16035	0.04977
3778.87458	0.04966
3777.58881	0.04949
3776.30304	0.04954
3775.01728	0.05004
3773.73151	0.05113
3772.44574	0.05259
3771.15997	0.05359
3769.87420	0.05327
3768.58843	0.05174
3767.30266	0.05005
3766.01689	0.04913
3764.73112	0.04904
3763.44536	0.04944
3762.15959	0.05009
3760.87382	0.05087
3759.58805	0.05155
3758.30228	0.05194
3757.01651	0.05185
3755.73074	0.05140
3754.44497	0.05097
3753.15921	0.05071
3751.87344	0.05034
3750.58767	0.04961
3749.30190	0.04859
3748.01613	0.04775
3746.73036	0.04783
3745.44459	0.04881
3744.15882	0.04965
3742.87305	0.04995
3741.58729	0.05038
3740.30152	0.05124
3739.01575	0.05218
3737.72998	0.05292
3736.44421	0.05329
3735.15844	0.05322
3733.87267	0.05278
3732.58690	0.05196
3731.30114	0.05072
3730.01537	0.04940
3728.72960	0.04856
3727.44383	0.04820
3726.15806	0.04771
3724.87229	0.04679
3723.58652	0.04583
3722.30075	0.04541
3721.01498	0.04581
3719.72922	0.04681
3718.44345	0.04796
3717.15768	0.04885
3715.87191	0.04939
3714.58614	0.04971
3713.30037	0.04973
3712.01460	0.04935
3710.72883	0.04881
3709.44307	0.04846
3708.15730	0.04825
3706.87153	0.04780
3705.58576	0.04699
3704.29999	0.04614
3703.01422	0.04567
3701.72845	0.04579
3700.44268	0.04645
3699.15691	0.04740
3697.87115	0.04827
3696.58538	0.04871
3695.29961	0.04856
3694.01384	0.04796
3692.72807	0.04720
3691.44230	0.04657
3690.15653	0.04627
3688.87076	0.04616
3687.58500	0.04606
3686.29923	0.04622
3685.01346	0.04692
3683.72769	0.04766
3682.44192	0.04765
3681.15615	0.04678
3679.87038	0.04574
3678.58461	0.04540
3677.29884	0.04604
3676.01308	0.04706
3674.72731	0.04775
3673.44154	0.04817
3672.15577	0.04856
3670.87000	0.04847
3669.58423	0.04755
3668.29846	0.04651
3667.01269	0.04626
3665.72693	0.04682
3664.44116	0.04767
3663.15539	0.04853
3661.86962	0.04935
3660.58385	0.05004
3659.29808	0.05050
3658.01231	0.05070
3656.72654	0.05070
3655.44077	0.05052
3654.15501	0.05035
3652.86924	0.05027
3651.58347	0.05016
3650.29770	0.04987
3649.01193	0.04948
3647.72616	0.04915
3646.44039	0.04891
3645.15462	0.04875
3643.86886	0.04874
3642.58309	0.04899
3641.29732	0.04955
3640.01155	0.05029
3638.72578	0.05078
3637.44001	0.05059
3636.15424	0.04966
3634.86847	0.04843
3633.58270	0.04767
3632.29694	0.04809
3631.01117	0.04976
3629.72540	0.05173
3628.43963	0.05275
3627.15386	0.05259
3625.86809	0.05208
3624.58232	0.05188
3623.29655	0.05195
3622.01079	0.05204
3620.72502	0.05201
3619.43925	0.05183
3618.15348	0.05165
3616.86771	0.05170
3615.58194	0.05213
3614.29617	0.05280
3613.01040	0.05332
3611.72463	0.05336
3610.43887	0.05298
3609.15310	0.05260
3607.86733	0.05257
3606.58156	0.05282
3605.29579	0.05291
3604.01002	0.05253
3602.72425	0.05197
3601.43848	0.05181
3600.15272	0.05223
3598.86695	0.05297
3597.58118	0.05359
3596.29541	0.05390
3595.00964	0.05394
3593.72387	0.05392
3592.43810	0.05410
3591.15233	0.05453
3589.86656	0.05499
3588.58080	0.05517
3587.29503	0.05503
3586.00926	0.05485
3584.72349	0.05484
3583.43772	0.05506
3582.15195	0.05550
3580.86618	0.05615
3579.58041	0.05689
3578.29464	0.05752
3577.00888	0.05791
3575.72311	0.05803
3574.43734	0.05790
3573.15157	0.05763
3571.86580	0.05743
3570.58003	0.05744
3569.29426	0.05752
3568.00849	0.05741
3566.72273	0.05705
3565.43696	0.05670
3564.15119	0.05669
3562.86542	0.05721
3561.57965	0.05815
3560.29388	0.05917
3559.00811	0.05982
3557.72234	0.05994
3556.43657	0.05977
3555.15081	0.05966
3553.86504	0.05965
3552.57927	0.05953
3551.29350	0.05923
3550.00773	0.05896
3548.72196	0.05898
3547.43619	0.05933
3546.15042	0.05985
3544.86466	0.06030
3543.57889	0.06050
3542.29312	0.06045
3541.00735	0.06027
3539.72158	0.06020
3538.43581	0.06031
3537.15004	0.06047
3535.86427	0.06055
3534.57850	0.06054
3533.29274	0.06051
3532.00697	0.06046
3530.72120	0.06039
3529.43543	0.06038
3528.14966	0.06052
3526.86389	0.06077
3525.57812	0.06103
3524.29235	0.06124
3523.00659	0.06143
3521.72082	0.06163
3520.43505	0.06186
3519.14928	0.06221
3517.86351	0.06273
3516.57774	0.06335
3515.29197	0.06378
3514.00620	0.06372
3512.72043	0.06307
3511.43467	0.06206
3510.14890	0.06114
3508.86313	0.06080
3507.57736	0.06116
3506.29159	0.06192
3505.00582	0.06254
3503.72005	0.06283
3502.43428	0.06295
3501.14852	0.06307
3499.86275	0.06310
3498.57698	0.06289
3497.29121	0.06254
3496.00544	0.06228
3494.71967	0.06216
3493.43390	0.06203
3492.14813	0.06183
3490.86236	0.06171
3489.57660	0.06187
3488.29083	0.06224
3487.00506	0.06255
3485.71929	0.06264
3484.43352	0.06271
3483.14775	0.06317
3481.86198	0.06419
3480.57621	0.06546
3479.29045	0.06649
3478.00468	0.06696
3476.71891	0.06683
3475.43314	0.06635
3474.14737	0.06591
3472.86160	0.06589
3471.57583	0.06632
3470.29006	0.06689
3469.00429	0.06717
3467.71853	0.06697
3466.43276	0.06647
3465.14699	0.06605
3463.86122	0.06605
3462.57545	0.06647
3461.28968	0.06692
3460.00391	0.06693
3458.71814	0.06634
3457.43238	0.06547
3456.14661	0.06495
3454.86084	0.06519
3453.57507	0.06616
3452.28930	0.06737
3451.00353	0.06820
3449.71776	0.06825
3448.43199	0.06762
3447.14622	0.06682
3445.86046	0.06640
3444.57469	0.06655
3443.28892	0.06692
3442.00315	0.06707
3440.71738	0.06686
3439.43161	0.06655
3438.14584	0.06644
3436.86007	0.06664
3435.57431	0.06698
3434.28854	0.06726
3433.00277	0.06742
3431.71700	0.06749
3430.43123	0.06754
3429.14546	0.06756
3427.85969	0.06750
3426.57392	0.06741
3425.28815	0.06744
3424.00239	0.06772
3422.71662	0.06822
3421.43085	0.06876
3420.14508	0.06916
3418.85931	0.06941
3417.57354	0.06965
3416.28777	0.06994
3415.00200	0.07009
3413.71624	0.06984
3412.43047	0.06912
3411.14470	0.06820
3409.85893	0.06758
3408.57316	0.06755
3407.28739	0.06804
3406.00162	0.06876
3404.71585	0.06945
3403.43008	0.06996
3402.14432	0.07021
3400.85855	0.07011
3399.57278	0.06974
3398.28701	0.06947
3397.00124	0.06959
3395.71547	0.07002
3394.42970	0.07034
3393.14393	0.07022
3391.85817	0.06966
3390.57240	0.06903
3389.28663	0.06872
3388.00086	0.06882
3386.71509	0.06907
3385.42932	0.06912
3384.14355	0.06887
3382.85778	0.06856
3381.57201	0.06853
3380.28625	0.06894
3379.00048	0.06959
3377.71471	0.07017
3376.42894	0.07048
3375.14317	0.07056
3373.85740	0.07048
3372.57163	0.07020
3371.28586	0.06962
3370.00010	0.06889
3368.71433	0.06843
3367.42856	0.06855
3366.14279	0.06916
3364.85702	0.06987
3363.57125	0.07047
3362.28548	0.07093
3360.99971	0.07125
3359.71394	0.07128
3358.42818	0.07092
3357.14241	0.07040
3355.85664	0.07016
3354.57087	0.07048
3353.28510	0.07116
3351.99933	0.07170
3350.71356	0.07182
3349.42779	0.07158
3348.14202	0.07115
3346.85626	0.07059
3345.57049	0.06988
3344.28472	0.06910
3342.99895	0.06851
3341.71318	0.06844
3340.42741	0.06905
3339.14164	0.07009
3337.85587	0.07106
3336.57011	0.07151
3335.28434	0.07135
3333.99857	0.07073
3332.71280	0.06990
3331.42703	0.06905
3330.14126	0.06833
3328.85549	0.06785
3327.56972	0.06760
3326.28395	0.06753
3324.99819	0.06759
3323.71242	0.06775
3322.42665	0.06803
3321.14088	0.06846
3319.85511	0.06898
3318.56934	0.06929
3317.28357	0.06919
3315.99780	0.06878
3314.71204	0.06843
3313.42627	0.06837
3312.14050	0.06854
3310.85473	0.06880
3309.56896	0.06914
3308.28319	0.06962
3306.99742	0.07012
3305.71165	0.07035
3304.42588	0.07009
3303.14012	0.06944
3301.85435	0.06890
3300.56858	0.06891
3299.28281	0.06947
3297.99704	0.07016
3296.71127	0.07055
3295.42550	0.07047
3294.13973	0.06999
3292.85397	0.06926
3291.56820	0.06849
3290.28243	0.06797
3288.99666	0.06795
3287.71089	0.06841
3286.42512	0.06895
3285.13935	0.06912
3283.85358	0.06882
3282.56781	0.06844
3281.28205	0.06846
3279.99628	0.06892
3278.71051	0.06940
3277.42474	0.06947
3276.13897	0.06910
3274.85320	0.06860
3273.56743	0.06827
3272.28166	0.06814
3270.99590	0.06810
3269.71013	0.06803
3268.42436	0.06793
3267.13859	0.06792
3265.85282	0.06813
3264.56705	0.06863
3263.28128	0.06927
3261.99551	0.06972
3260.70974	0.06964
3259.42398	0.06907
3258.13821	0.06830
3256.85244	0.06764
3255.56667	0.06718
3254.28090	0.06681
3252.99513	0.06650
3251.70936	0.06636
3250.42359	0.06646
3249.13783	0.06673
3247.85206	0.06704
3246.56629	0.06729
3245.28052	0.06748
3243.99475	0.06765
3242.70898	0.06786
3241.42321	0.06809
3240.13744	0.06821
3238.85167	0.06797
3237.56591	0.06730
3236.28014	0.06649
3234.99437	0.06602
3233.70860	0.06609
3232.42283	0.06648
3231.13706	0.06681
3229.85129	0.06693
3228.56552	0.06699
3227.27976	0.06709
3225.99399	0.06707
3224.70822	0.06680
3223.42245	0.06643
3222.13668	0.06631
3220.85091	0.06654
3219.56514	0.06685
3218.27937	0.06690
3216.99360	0.06668
3215.70784	0.06650
3214.42207	0.06655
3213.13630	0.06671
3211.85053	0.06669
3210.56476	0.06629
3209.27899	0.06557
3207.99322	0.06471
3206.70745	0.06389
3205.42169	0.06323
3204.13592	0.06290
3202.85015	0.06297
3201.56438	0.06344
3200.27861	0.06409
3198.99284	0.06463
3197.70707	0.06487
3196.42130	0.06486
3195.13553	0.06486
3193.84977	0.06499
3192.56400	0.06505
3191.27823	0.06474
3189.99246	0.06397
3188.70669	0.06310
3187.42092	0.06260
3186.13515	0.06266
3184.84938	0.06311
3183.56362	0.06362
3182.27785	0.06395
3180.99208	0.06403
3179.70631	0.06385
3178.42054	0.06342
3177.13477	0.06287
3175.84900	0.06244
3174.56323	0.06231
3173.27746	0.06242
3171.99170	0.06256
3170.70593	0.06261
3169.42016	0.06264
3168.13439	0.06274
3166.84862	0.06287
3165.56285	0.06282
3164.27708	0.06253
3162.99131	0.06210
3161.70555	0.06172
3160.41978	0.06152
3159.13401	0.06157
3157.84824	0.06183
3156.56247	0.06220
3155.27670	0.06255
3153.99093	0.06277
3152.70516	0.06286
3151.41939	0.06283
3150.13363	0.06270
3148.84786	0.06249
3147.56209	0.06227
3146.27632	0.06208
3144.99055	0.06194
3143.70478	0.06183
3142.41901	0.06167
3141.13324	0.06138
3139.84748	0.06098
3138.56171	0.06064
3137.27594	0.06055
3135.99017	0.06074
3134.70440	0.06104
3133.41863	0.06118
3132.13286	0.06105
3130.84709	0.06070
3129.56132	0.06035
3128.27556	0.06008
3126.98979	0.05985
3125.70402	0.05953
3124.41825	0.05911
3123.13248	0.05874
3121.84671	0.05858
3120.56094	0.05857
3119.27517	0.05853
3117.98940	0.05835
3116.70364	0.05812
3115.41787	0.05806
3114.13210	0.05833
3112.84633	0.05882
3111.56056	0.05926
3110.27479	0.05934
3108.98902	0.05908
3107.70325	0.05871
3106.41749	0.05848
3105.13172	0.05841
3103.84595	0.05839
3102.56018	0.05830
3101.27441	0.05814
3099.98864	0.05796
3098.70287	0.05778
3097.41710	0.05763
3096.13133	0.05756
3094.84557	0.05758
3093.55980	0.05760
3092.27403	0.05748
3090.98826	0.05722
3089.70249	0.05707
3088.41672	0.05727
3087.13095	0.05775
3085.84518	0.05822
3084.55942	0.05838
3083.27365	0.05824
3081.98788	0.05795
3080.70211	0.05762
3079.41634	0.05725
3078.13057	0.05694
3076.84480	0.05683
3075.55903	0.05694
3074.27326	0.05708
3072.98750	0.05707
3071.70173	0.05697
3070.41596	0.05695
3069.13019	0.05700
3067.84442	0.05697
3066.55865	0.05672
3065.27288	0.05628
3063.98711	0.05580
3062.70135	0.05550
3061.41558	0.05550
3060.12981	0.05574
3058.84404	0.05606
3057.55827	0.05625
3056.27250	0.05613
3054.98673	0.05570
3053.70096	0.05518
3052.41519	0.05483
3051.12943	0.05477
3049.84366	0.05490
3048.55789	0.05509
3047.27212	0.05533
3045.98635	0.05564
3044.70058	0.05592
3043.41481	0.05601
3042.12904	0.05585
3040.84328	0.05558
3039.55751	0.05538
3038.27174	0.05527
3036.98597	0.05510
3035.70020	0.05480
3034.41443	0.05448
3033.12866	0.05426
3031.84289	0.05416
3030.55712	0.05415
3029.27136	0.05421
3027.98559	0.05433
3026.69982	0.05446
3025.41405	0.05445
3024.12828	0.05423
3022.84251	0.05385
3021.55674	0.05344
3020.27097	0.05314
3018.98521	0.05299
3017.69944	0.05299
3016.41367	0.05314
3015.12790	0.05341
3013.84213	0.05372
3012.55636	0.05393
3011.27059	0.05390
3009.98482	0.05368
3008.69905	0.05342
3007.41329	0.05320
3006.12752	0.05299
3004.84175	0.05276
3003.55598	0.05261
3002.27021	0.05269
3000.98444	0.05304
2999.69867	0.05340
2998.41290	0.05350
2997.12714	0.05314
2995.84137	0.05252
2994.55560	0.05204
2993.26983	0.05199
2991.98406	0.05225
2990.69829	0.05248
2989.41252	0.05238
2988.12675	0.05197
2986.84098	0.05151
2985.55522	0.05134
2984.26945	0.05158
2982.98368	0.05208
2981.69791	0.05262
2980.41214	0.05306
2979.12637	0.05343
2977.84060	0.05366
2976.55483	0.05360
2975.26907	0.05320
2973.98330	0.05267
2972.69753	0.05237
2971.41176	0.05261
2970.12599	0.05342
2968.84022	0.05450
2967.55445	0.05545
2966.26868	0.05605
2964.98291	0.05636
2963.69715	0.05655
2962.41138	0.05673
2961.12561	0.05690
2959.83984	0.05697
2958.55407	0.05699
2957.26830	0.05719
2955.98253	0.05778
2954.69676	0.05865
2953.41100	0.05938
2952.12523	0.05962
2950.83946	0.05940
2949.55369	0.05891
2948.26792	0.05837
2946.98215	0.05787
2945.69638	0.05747
2944.41061	0.05725
2943.12484	0.05724
2941.83908	0.05748
2940.55331	0.05789
2939.26754	0.05830
2937.98177	0.05857
2936.69600	0.05870
2935.41023	0.05882
2934.12446	0.05900
2932.83869	0.05924
2931.55293	0.05944
2930.26716	0.05954
2928.98139	0.05965
2927.69562	0.05987
2926.40985	0.06022
2925.12408	0.06059
2923.83831	0.06085
2922.55254	0.06090
2921.26677	0.06076
2919.98101	0.06055
2918.69524	0.06038
2917.40947	0.06020
2916.12370	0.05993
2914.83793	0.05966
2913.55216	0.05955
2912.26639	0.05953
2910.98062	0.05928
2909.69486	0.05861
2908.40909	0.05772
2907.12332	0.05706
2905.83755	0.05681
2904.55178	0.05674
2903.26601	0.05649
2901.98024	0.05595
2900.69447	0.05534
2899.40870	0.05487
2898.12294	0.05450
2896.83717	0.05406
2895.55140	0.05352
2894.26563	0.05298
2892.97986	0.05253
2891.69409	0.05213
2890.40832	0.05185
2889.12255	0.05182
2887.83678	0.05208
2886.55102	0.05243
2885.26525	0.05261
2883.97948	0.05250
2882.69371	0.05220
2881.40794	0.05187
2880.12217	0.05169
2878.83640	0.05184
2877.55063	0.05231
2876.26487	0.05287
2874.97910	0.05319
2873.69333	0.05315
2872.40756	0.05291
2871.12179	0.05267
2869.83602	0.05253
2868.55025	0.05244
2867.26448	0.05234
2865.97871	0.05223
2864.69295	0.05218
2863.40718	0.05227
2862.12141	0.05253
2860.83564	0.05293
2859.54987	0.05335
2858.26410	0.05361
2856.97833	0.05353
2855.69256	0.05319
2854.40680	0.05279
2853.12103	0.05245
2851.83526	0.05210
2850.54949	0.05165
2849.26372	0.05115
2847.97795	0.05070
2846.69218	0.05035
2845.40641	0.05004
2844.12064	0.04969
2842.83488	0.04932
2841.54911	0.04893
2840.26334	0.04847
2838.97757	0.04790
2837.69180	0.04726
2836.40603	0.04669
2835.12026	0.04635
2833.83449	0.04623
2832.54873	0.04621
2831.26296	0.04613
2829.97719	0.04591
2828.69142	0.04558
2827.40565	0.04522
2826.11988	0.04493
2824.83411	0.04477
2823.54834	0.04475
2822.26257	0.04480
2820.97681	0.04484
2819.69104	0.04481
2818.40527	0.04473
2817.11950	0.04465
2815.83373	0.04452
2814.54796	0.04429
2813.26219	0.04396
2811.97642	0.04363
2810.69066	0.04345
2809.40489	0.04350
2808.11912	0.04369
2806.83335	0.04384
2805.54758	0.04376
2804.26181	0.04344
2802.97604	0.04304
2801.69027	0.04274
2800.40450	0.04268
2799.11874	0.04285
2797.83297	0.04317
2796.54720	0.04351
2795.26143	0.04368
2793.97566	0.04356
2792.68989	0.04321
2791.40412	0.04284
2790.11835	0.04265
2788.83259	0.04262
2787.54682	0.04259
2786.26105	0.04248
2784.97528	0.04233
2783.68951	0.04226
2782.40374	0.04233
2781.11797	0.04244
2779.83220	0.04241
2778.54643	0.04216
2777.26067	0.04178
2775.97490	0.04152
2774.68913	0.04149
2773.40336	0.04164
2772.11759	0.04180
2770.83182	0.04182
2769.54605	0.04167
2768.26028	0.04147
2766.97452	0.04129
2765.68875	0.04113
2764.40298	0.04093
2763.11721	0.04070
2761.83144	0.04051
2760.54567	0.04041
2759.25990	0.04039
2757.97413	0.04040
2756.68836	0.04039
2755.40260	0.04033
2754.11683	0.04024
2752.83106	0.04016
2751.54529	0.04010
2750.25952	0.04004
2748.97375	0.03997
2747.68798	0.03987
2746.40221	0.03971
2745.11645	0.03951
2743.83068	0.03938
2742.54491	0.03948
2741.25914	0.03981
2739.97337	0.04018
2738.68760	0.04038
2737.40183	0.04035
2736.11606	0.04025
2734.83029	0.04017
2733.54453	0.04013
2732.25876	0.04009
2730.97299	0.04007
2729.68722	0.04004
2728.40145	0.03996
2727.11568	0.03980
2725.82991	0.03961
2724.54414	0.03945
2723.25838	0.03929
2721.97261	0.03912
2720.68684	0.03896
2719.40107	0.03888
2718.11530	0.03891
2716.82953	0.03898
2715.54376	0.03901
2714.25799	0.03893
2712.97222	0.03872
2711.68646	0.03841
2710.40069	0.03809
2709.11492	0.03795
2707.82915	0.03809
2706.54338	0.03836
2705.25761	0.03857
2703.97184	0.03860
2702.68607	0.03846
2701.40031	0.03822
2700.11454	0.03790
2698.82877	0.03758
2697.54300	0.03735
2696.25723	0.03728
2694.97146	0.03737
2693.68569	0.03753
2692.39992	0.03763
2691.11415	0.03761
2689.82839	0.03752
2688.54262	0.03747
2687.25685	0.03745
2685.97108	0.03743
2684.68531	0.03736
2683.39954	0.03725
2682.11377	0.03712
2680.82800	0.03698
2679.54224	0.03687
2678.25647	0.03681
2676.97070	0.03683
2675.68493	0.03696
2674.39916	0.03712
2673.11339	0.03723
2671.82762	0.03725
2670.54185	0.03726
2669.25608	0.03735
2667.97032	0.03749
2666.68455	0.03754
2665.39878	0.03742
2664.11301	0.03719
2662.82724	0.03702
2661.54147	0.03704
2660.25570	0.03728
2658.96993	0.03758
2657.68417	0.03775
2656.39840	0.03767
2655.11263	0.03737
2653.82686	0.03705
2652.54109	0.03693
2651.25532	0.03705
2649.96955	0.03721
2648.68378	0.03721
2647.39801	0.03700
2646.11225	0.03669
2644.82648	0.03639
2643.54071	0.03613
2642.25494	0.03596
2640.96917	0.03594
2639.68340	0.03598
2638.39763	0.03591
2637.11186	0.03568
2635.82609	0.03537
2634.54033	0.03510
2633.25456	0.03484
2631.96879	0.03456
2630.68302	0.03435
2629.39725	0.03434
2628.11148	0.03446
2626.82571	0.03447
2625.53994	0.03417
2624.25418	0.03360
2622.96841	0.03306
2621.68264	0.03281
2620.39687	0.03291
2619.11110	0.03324
2617.82533	0.03355
2616.53956	0.03363
2615.25379	0.03345
2613.96802	0.03315
2612.68226	0.03292
2611.39649	0.03284
2610.11072	0.03281
2608.82495	0.03270
2607.53918	0.03245
2606.25341	0.03213
2604.96764	0.03190
2603.68187	0.03192
2602.39611	0.03215
2601.11034	0.03239
2599.82457	0.03252
2598.53880	0.03258
2597.25303	0.03258
2595.96726	0.03242
2594.68149	0.03204
2593.39572	0.03159
2592.10995	0.03135
2590.82419	0.03139
2589.53842	0.03157
2588.25265	0.03168
2586.96688	0.03161
2585.68111	0.03136
2584.39534	0.03100
2583.10957	0.03064
2581.82380	0.03028
2580.53804	0.02991
2579.25227	0.02962
2577.96650	0.02953
2576.68073	0.02963
2575.39496	0.02980
2574.10919	0.02995
2572.82342	0.03009
2571.53765	0.03021
2570.25188	0.03030
2568.96612	0.03032
2567.68035	0.03029
2566.39458	0.03020
2565.10881	0.03016
2563.82304	0.03024
2562.53727	0.03039
2561.25150	0.03051
2559.96573	0.03053
2558.67997	0.03043
2557.39420	0.03017
2556.10843	0.02977
2554.82266	0.02937
2553.53689	0.02916
2552.25112	0.02919
2550.96535	0.02935
2549.67958	0.02953
2548.39381	0.02962
2547.10805	0.02959
2545.82228	0.02951
2544.53651	0.02945
2543.25074	0.02936
2541.96497	0.02911
2540.67920	0.02872
2539.39343	0.02835
2538.10766	0.02816
2536.82190	0.02816
2535.53613	0.02820
2534.25036	0.02810
2532.96459	0.02779
2531.67882	0.02737
2530.39305	0.02707
2529.10728	0.02700
2527.82151	0.02713
2526.53574	0.02737
2525.24998	0.02771
2523.96421	0.02813
2522.67844	0.02848
2521.39267	0.02859
2520.10690	0.02845
2518.82113	0.02821
2517.53536	0.02798
2516.24959	0.02767
2514.96383	0.02718
2513.67806	0.02661
2512.39229	0.02621
2511.10652	0.02616
2509.82075	0.02636
2508.53498	0.02661
2507.24921	0.02681
2505.96344	0.02699
2504.67767	0.02726
2503.39191	0.02758
2502.10614	0.02774
2500.82037	0.02752
2499.53460	0.02693
2498.24883	0.02631
2496.96306	0.02602
2495.67729	0.02613
2494.39152	0.02636
2493.10576	0.02640
2491.81999	0.02616
2490.53422	0.02578
2489.24845	0.02554
2487.96268	0.02562
2486.67691	0.02598
2485.39114	0.02643
2484.10537	0.02676
2482.81960	0.02700
2481.53384	0.02729
2480.24807	0.02763
2478.96230	0.02781
2477.67653	0.02770
2476.39076	0.02743
2475.10499	0.02726
2473.81922	0.02732
2472.53345	0.02754
2471.24769	0.02774
2469.96192	0.02780
2468.67615	0.02772
2467.39038	0.02755
2466.10461	0.02731
2464.81884	0.02698
2463.53307	0.02659
2462.24730	0.02628
2460.96153	0.02617
2459.67577	0.02622
2458.39000	0.02634
2457.10423	0.02647
2455.81846	0.02660
2454.53269	0.02669
2453.24692	0.02667
2451.96115	0.02650
2450.67538	0.02616
2449.38962	0.02576
2448.10385	0.02549
2446.81808	0.02550
2445.53231	0.02565
2444.24654	0.02567
2442.96077	0.02542
2441.67500	0.02511
2440.38923	0.02502
2439.10346	0.02517
2437.81770	0.02533
2436.53193	0.02525
2435.24616	0.02497
2433.96039	0.02471
2432.67462	0.02467
2431.38885	0.02477
2430.10308	0.02478
2428.81731	0.02459
2427.53155	0.02435
2426.24578	0.02422
2424.96001	0.02427
2423.67424	0.02446
2422.38847	0.02478
2421.10270	0.02516
2419.81693	0.02540
2418.53116	0.02535
2417.24539	0.02511
2415.95963	0.02491
2414.67386	0.02484
2413.38809	0.02479
2412.10232	0.02468
2410.81655	0.02459
2409.53078	0.02459
2408.24501	0.02460
2406.95924	0.02452
2405.67347	0.02435
2404.38771	0.02417
2403.10194	0.02405
2401.81617	0.02397
2400.53040	0.02392
2399.24463	0.02396
2397.95886	0.02403
2396.67309	0.02428
2395.38732	0.02472
2394.10156	0.02519
2392.81579	0.02551
2391.53002	0.02559
2390.24425	0.02545
2388.95848	0.02514
2387.67271	0.02480
2386.38694	0.02457
2385.10117	0.02448
2383.81540	0.02448
2382.52964	0.02446
2381.24387	0.02438
2379.95810	0.02427
2378.67233	0.02413
2377.38656	0.02393
2376.10079	0.02363
2374.81502	0.02325
2373.52925	0.02292
2372.24349	0.02266
2370.95772	0.02244
2369.67195	0.02208
2368.38618	0.02156
2367.10041	0.02099
2365.81464	0.02058
2364.52887	0.02037
2363.24310	0.02038
2361.95733	0.02049
2360.67157	0.02054
2359.38580	0.02031
2358.10003	0.01996
2356.81426	0.01975
2355.52849	0.01979
2354.24272	0.02013
2352.95695	0.02069
2351.67118	0.02150
2350.38542	0.02245
2349.09965	0.02317
2347.81388	0.02338
2346.52811	0.02333
2345.24234	0.02320
2343.95657	0.02297
2342.67080	0.02256
2341.38503	0.02221
2340.09926	0.02210
2338.81350	0.02200
2337.52773	0.02180
2336.24196	0.02171
2334.95619	0.02171
2333.67042	0.02165
2332.38465	0.02145
2331.09888	0.02157
2329.81311	0.02175
2328.52735	0.02175
2327.24158	0.02243
2325.95581	0.02355
2324.67004	0.02423
2323.38427	0.02454
2322.09850	0.02449
2320.81273	0.02385
2319.52696	0.02355
2318.24119	0.02366
2316.95543	0.02370
2315.66966	0.02389
2314.38389	0.02405
2313.09812	0.02413
2311.81235	0.02438
2310.52658	0.02454
2309.24081	0.02459
2307.95504	0.02460
2306.66928	0.02452
2305.38351	0.02450
2304.09774	0.02444
2302.81197	0.02434
2301.52620	0.02429
2300.24043	0.02426
2298.95466	0.02422
2297.66889	0.02405
2296.38312	0.02376
2295.09736	0.02350
2293.81159	0.02338
2292.52582	0.02346
2291.24005	0.02362
2289.95428	0.02372
2288.66851	0.02369
2287.38274	0.02357
2286.09697	0.02342
2284.81121	0.02331
2283.52544	0.02324
2282.23967	0.02324
2280.95390	0.02327
2279.66813	0.02332
2278.38236	0.02334
2277.09659	0.02315
2275.81082	0.02262
2274.52505	0.02177
2273.23929	0.02089
2271.95352	0.02028
2270.66775	0.01997
2269.38198	0.01980
2268.09621	0.01966
2266.81044	0.01964
2265.52467	0.01980
2264.23890	0.02001
2262.95314	0.02003
2261.66737	0.01980
2260.38160	0.01940
2259.09583	0.01892
2257.81006	0.01841
2256.52429	0.01800
2255.23852	0.01788
2253.95275	0.01816
2252.66698	0.01868
2251.38122	0.01916
2250.09545	0.01954
2248.80968	0.01994
2247.52391	0.02005
2246.23814	0.01994
2244.95237	0.01956
2243.66660	0.01901
2242.38083	0.01846
2241.09507	0.01807
2239.80930	0.01795
2238.52353	0.01815
2237.23776	0.01862
2235.95199	0.01924
2234.66622	0.01981
2233.38045	0.02002
2232.09468	0.01968
2230.80891	0.01898
2229.52315	0.01837
2228.23738	0.01801
2226.95161	0.01768
2225.66584	0.01714
2224.38007	0.01653
2223.09430	0.01619
2221.80853	0.01615
2220.52276	0.01612
2219.23700	0.01594
2217.95123	0.01579
2216.66546	0.01593
2215.37969	0.01627
2214.09392	0.01642
2212.80815	0.01616
2211.52238	0.01557
2210.23661	0.01494
2208.95084	0.01457
2207.66508	0.01457
2206.37931	0.01490
2205.09354	0.01536
2203.80777	0.01568
2202.52200	0.01563
2201.23623	0.01512
2199.95046	0.01429
2198.66469	0.01345
2197.37893	0.01287
2196.09316	0.01267
2194.80739	0.01294
2193.52162	0.01371
2192.23585	0.01480
2190.95008	0.01576
2189.66431	0.01635
2188.37854	0.01663
2187.09277	0.01669
2185.80701	0.01647
2184.52124	0.01594
2183.23547	0.01537
2181.94970	0.01522
2180.66393	0.01569
2179.37816	0.01628
2178.09239	0.01614
2176.80662	0.01494
2175.52085	0.01321
2174.23509	0.01174
2172.94932	0.01080
2171.66355	0.01017
2170.37778	0.00973
2169.09201	0.00950
2167.80624	0.00943
2166.52047	0.00941
2165.23470	0.00962
2163.94894	0.01041
2162.66317	0.01156
2161.37740	0.01203
2160.09163	0.01082
2158.80586	0.00829
2157.52009	0.00607
2156.23432	0.00530
2154.94855	0.00564
2153.66278	0.00608
2152.37702	0.00612
2151.09125	0.00601
2149.80548	0.00623
2148.51971	0.00704
2147.23394	0.00837
2145.94817	0.00990
2144.66240	0.01124
2143.37663	0.01200
2142.09087	0.01209
2140.80510	0.01187
2139.51933	0.01189
2138.23356	0.01228
2136.94779	0.01265
2135.66202	0.01267
2134.37625	0.01240
2133.09048	0.01209
2131.80471	0.01188
2130.51895	0.01183
2129.23318	0.01201
2127.94741	0.01234
2126.66164	0.01264
2125.37587	0.01288
2124.09010	0.01323
2122.80433	0.01381
2121.51856	0.01452
2120.23280	0.01506
2118.94703	0.01523
2117.66126	0.01507
2116.37549	0.01480
2115.08972	0.01458
2113.80395	0.01430
2112.51818	0.01389
2111.23241	0.01355
2109.94664	0.01353
2108.66088	0.01377
2107.37511	0.01395
2106.08934	0.01382
2104.80357	0.01340
2103.51780	0.01294
2102.23203	0.01265
2100.94626	0.01256
2099.66049	0.01217
2098.37473	0.01173
2097.08896	0.01129
2095.80319	0.01107
2094.51742	0.01130
2093.23165	0.01199
2091.94588	0.01279
2090.66011	0.01326
2089.37434	0.01319
2088.08857	0.01275
2086.80281	0.01229
2085.51704	0.01209
2084.23127	0.01221
2082.94550	0.01253
2081.65973	0.01284
2080.37396	0.01296
2079.08819	0.01293
2077.80242	0.01289
2076.51666	0.01289
2075.23089	0.01280
2073.94512	0.01246
2072.65935	0.01183
2071.37358	0.01108
2070.08781	0.01047
2068.80204	0.01014
2067.51627	0.01003
2066.23050	0.01003
2064.94474	0.01016
2063.65897	0.01045
2062.37320	0.01074
2061.08743	0.01077
2059.80166	0.01042
2058.51589	0.00981
2057.23012	0.00914
2055.94435	0.00862
2054.65859	0.00857
2053.37282	0.00920
2052.08705	0.01026
2050.80128	0.01096
2049.51551	0.01060
2048.22974	0.00924
2046.94397	0.00766
2045.65820	0.00674
2044.37243	0.00675
2043.08667	0.00731
2041.80090	0.00781
2040.51513	0.00796
2039.22936	0.00786
2037.94359	0.00770
2036.65782	0.00756
2035.37205	0.00740
2034.08628	0.00719
2032.80052	0.00682
2031.51475	0.00607
2030.22898	0.00497
2028.94321	0.00400
2027.65744	0.00365
2026.37167	0.00380
2025.08590	0.00384
2023.80013	0.00343
2022.51436	0.00300
2021.22860	0.00328
2019.94283	0.00447
2018.65706	0.00595
2017.37129	0.00681
2016.08552	0.00677
2014.79975	0.00641
2013.51398	0.00645
2012.22821	0.00686
2010.94245	0.00691
2009.65668	0.00609
2008.37091	0.00481
2007.08514	0.00401
2005.79937	0.00421
2004.51360	0.00524
2003.22783	0.00652
2001.94206	0.00759
2000.65629	0.00838
1999.37053	0.00904
1998.08476	0.00962
1996.79899	0.00999
1995.51322	0.00998
1994.22745	0.00963
1992.94168	0.00909
1991.65591	0.00858
1990.37014	0.00842
1989.08438	0.00884
1987.79861	0.00971
1986.51284	0.01065
1985.22707	0.01140
1983.94130	0.01198
1982.65553	0.01244
1981.36976	0.01277
1980.08399	0.01291
1978.79822	0.01272
1977.51246	0.01197
1976.22669	0.01060
1974.94092	0.00903
1973.65515	0.00799
1972.36938	0.00783
1971.08361	0.00828
1969.79784	0.00880
1968.51207	0.00914
1967.22631	0.00940
1965.94054	0.00965
1964.65477	0.00969
1963.36900	0.00930
1962.08323	0.00859
1960.79746	0.00797
1959.51169	0.00778
1958.22592	0.00801
1956.94015	0.00844
1955.65439	0.00892
1954.36862	0.00942
1953.08285	0.00989
1951.79708	0.01022
1950.51131	0.01038
1949.22554	0.01053
1947.93977	0.01084
1946.65400	0.01127
1945.36823	0.01172
1944.08247	0.01214
1942.79670	0.01246
1941.51093	0.01244
1940.22516	0.01202
1938.93939	0.01149
1937.65362	0.01131
1936.36785	0.01167
1935.08208	0.01235
1933.79632	0.01289
1932.51055	0.01296
1931.22478	0.01260
1929.93901	0.01212
1928.65324	0.01176
1927.36747	0.01151
1926.08170	0.01124
1924.79593	0.01093
1923.51016	0.01076
1922.22440	0.01088
1920.93863	0.01129
1919.65286	0.01177
1918.36709	0.01206
1917.08132	0.01208
1915.79555	0.01201
1914.50978	0.01205
1913.22401	0.01221
1911.93825	0.01234
1910.65248	0.01237
1909.36671	0.01229
1908.08094	0.01215
1906.79517	0.01201
1905.50940	0.01186
1904.22363	0.01171
1902.93786	0.01163
1901.65209	0.01177
1900.36633	0.01219
1899.08056	0.01270
1897.79479	0.01301
1896.50902	0.01296
1895.22325	0.01261
1893.93748	0.01214
1892.65171	0.01175
1891.36594	0.01153
1890.08018	0.01155
1888.79441	0.01182
1887.50864	0.01229
1886.22287	0.01283
1884.93710	0.01328
1883.65133	0.01352
1882.36556	0.01358
1881.07979	0.01356
1879.79402	0.01354
1878.50826	0.01351
1877.22249	0.01341
1875.93672	0.01316
1874.65095	0.01283
1873.36518	0.01258
1872.07941	0.01255
1870.79364	0.01264
1869.50787	0.01263
1868.22211	0.01241
1866.93634	0.01216
1865.65057	0.01209
1864.36480	0.01224
1863.07903	0.01247
1861.79326	0.01270
1860.50749	0.01291
1859.22172	0.01312
1857.93595	0.01337
1856.65019	0.01359
1855.36442	0.01371
1854.07865	0.01369
1852.79288	0.01356
1851.50711	0.01344
1850.22134	0.01338
1848.93557	0.01335
1847.64980	0.01329
1846.36404	0.01323
1845.07827	0.01319
1843.79250	0.01310
1842.50673	0.01302
1841.22096	0.01303
1839.93519	0.01317
1838.64942	0.01331
1837.36365	0.01334
1836.07788	0.01318
1834.79212	0.01287
1833.50635	0.01255
1832.22058	0.01241
1830.93481	0.01248
1829.64904	0.01260
1828.36327	0.01269
1827.07750	0.01273
1825.79173	0.01275
1824.50597	0.01270
1823.22020	0.01263
1821.93443	0.01261
1820.64866	0.01268
1819.36289	0.01281
1818.07712	0.01293
1816.79135	0.01302
1815.50558	0.01308
1814.21981	0.01316
1812.93405	0.01331
1811.64828	0.01350
1810.36251	0.01368
1809.07674	0.01377
1807.79097	0.01379
1806.50520	0.01375
1805.21943	0.01373
1803.93366	0.01373
1802.64790	0.01375
1801.36213	0.01376
1800.07636	0.01376
1798.79059	0.01380
1797.50482	0.01387
1796.21905	0.01391
1794.93328	0.01389
1793.64751	0.01384
1792.36174	0.01374
1791.07598	0.01360
1789.79021	0.01351
1788.50444	0.01353
1787.21867	0.01362
1785.93290	0.01371
1784.64713	0.01374
1783.36136	0.01372
1782.07559	0.01374
1780.78983	0.01387
1779.50406	0.01405
1778.21829	0.01416
1776.93252	0.01412
1775.64675	0.01397
1774.36098	0.01389
1773.07521	0.01393
1771.78944	0.01399
1770.50367	0.01406
1769.21791	0.01418
1767.93214	0.01430
1766.64637	0.01432
1765.36060	0.01427
1764.07483	0.01428
1762.78906	0.01433
1761.50329	0.01434
1760.21752	0.01430
1758.93176	0.01433
1757.64599	0.01448
1756.36022	0.01467
1755.07445	0.01482
1753.78868	0.01496
1752.50291	0.01504
1751.21714	0.01499
1749.93137	0.01485
1748.64560	0.01480
1747.35984	0.01492
1746.07407	0.01509
1744.78830	0.01516
1743.50253	0.01515
1742.21676	0.01516
1740.93099	0.01526
1739.64522	0.01533
1738.35945	0.01527
1737.07369	0.01524
1735.78792	0.01544
1734.50215	0.01567
1733.21638	0.01569
1731.93061	0.01557
1730.64484	0.01558
1729.35907	0.01572
1728.07330	0.01582
1726.78753	0.01583
1725.50177	0.01585
1724.21600	0.01595
1722.93023	0.01610
1721.64446	0.01626
1720.35869	0.01650
1719.07292	0.01681
1717.78715	0.01704
1716.50138	0.01708
1715.21561	0.01706
1713.92985	0.01714
1712.64408	0.01735
1711.35831	0.01760
1710.07254	0.01786
1708.78677	0.01812
1707.50100	0.01841
1706.21523	0.01870
1704.92946	0.01894
1703.64370	0.01922
1702.35793	0.01971
1701.07216	0.02023
1699.78639	0.02045
1698.50062	0.02054
1697.21485	0.02090
1695.92908	0.02143
1694.64331	0.02172
1693.35754	0.02186
1692.07178	0.02221
1690.78601	0.02274
1689.50024	0.02322
1688.21447	0.02360
1686.92870	0.02406
1685.64293	0.02462
1684.35716	0.02503
1683.07139	0.02517
1681.78563	0.02529
1680.49986	0.02557
1679.21409	0.02592
1677.92832	0.02632
1676.64255	0.02685
1675.35678	0.02737
1674.07101	0.02771
1672.78524	0.02793
1671.49947	0.02824
1670.21371	0.02862
1668.92794	0.02897
1667.64217	0.02922
1666.35640	0.02945
1665.07063	0.02974
1663.78486	0.03007
1662.49909	0.03036
1661.21332	0.03061
1659.92756	0.03085
1658.64179	0.03105
1657.35602	0.03117
1656.07025	0.03137
1654.78448	0.03180
1653.49871	0.03219
1652.21294	0.03216
1650.92717	0.03189
1649.64140	0.03191
1648.35564	0.03235
1647.06987	0.03286
1645.78410	0.03314
1644.49833	0.03319
1643.21256	0.03319
1641.92679	0.03323
1640.64102	0.03327
1639.35525	0.03333
1638.06949	0.03345
1636.78372	0.03358
1635.49795	0.03354
1634.21218	0.03330
1632.92641	0.03313
1631.64064	0.03320
1630.35487	0.03342
1629.06910	0.03357
1627.78333	0.03358
1626.49757	0.03354
1625.21180	0.03356
1623.92603	0.03368
1622.64026	0.03380
1621.35449	0.03391
1620.06872	0.03412
1618.78295	0.03451
1617.49718	0.03488
1616.21142	0.03501
1614.92565	0.03496
1613.63988	0.03504
1612.35411	0.03534
1611.06834	0.03571
1609.78257	0.03602
1608.49680	0.03628
1607.21103	0.03652
1605.92526	0.03677
1604.63950	0.03701
1603.35373	0.03726
1602.06796	0.03753
1600.78219	0.03781
1599.49642	0.03810
1598.21065	0.03835
1596.92488	0.03857
1595.63911	0.03878
1594.35335	0.03900
1593.06758	0.03921
1591.78181	0.03940
1590.49604	0.03955
1589.21027	0.03966
1587.92450	0.03977
1586.63873	0.03993
1585.35296	0.04017
1584.06719	0.04046
1582.78143	0.04079
1581.49566	0.04110
1580.20989	0.04137
1578.92412	0.04166
1577.63835	0.04204
1576.35258	0.04234
1575.06681	0.04243
1573.78104	0.04243
1572.49528	0.04261
1571.20951	0.04292
1569.92374	0.04319
1568.63797	0.04331
1567.35220	0.04341
1566.06643	0.04360
1564.78066	0.04377
1563.49489	0.04382
1562.20912	0.04388
1560.92336	0.04407
1559.63759	0.04422
1558.35182	0.04408
1557.06605	0.04377
1555.78028	0.04363
1554.49451	0.04369
1553.20874	0.04375
1551.92297	0.04376
1550.63721	0.04378
1549.35144	0.04374
1548.06567	0.04360
1546.77990	0.04338
1545.49413	0.04311
1544.20836	0.04275
1542.92259	0.04239
1541.63682	0.04214
1540.35105	0.04196
1539.06529	0.04163
1537.77952	0.04115
1536.49375	0.04080
1535.20798	0.04074
1533.92221	0.04080
1532.63644	0.04073
1531.35067	0.04060
1530.06490	0.04055
1528.77914	0.04058
1527.49337	0.04064
1526.20760	0.04066
1524.92183	0.04072
1523.63606	0.04096
1522.35029	0.04142
1521.06452	0.04187
1519.77875	0.04225
1518.49298	0.04271
1517.20722	0.04331
1515.92145	0.04392
1514.63568	0.04451
1513.34991	0.04513
1512.06414	0.04579
1510.77837	0.04646
1509.49260	0.04724
1508.20683	0.04821
1506.92107	0.04915
1505.63530	0.04982
1504.34953	0.05029
1503.06376	0.05084
1501.77799	0.05155
1500.49222	0.05222
1499.20645	0.05277
1497.92068	0.05326
1496.63491	0.05374
1495.34915	0.05416
1494.06338	0.05455
1492.77761	0.05505
1491.49184	0.05567
1490.20607	0.05631
1488.92030	0.05692
1487.63453	0.05752
1486.34876	0.05813
1485.06299	0.05874
1483.77723	0.05939
1482.49146	0.06009
1481.20569	0.06084
1479.91992	0.06162
1478.63415	0.06239
1477.34838	0.06310
1476.06261	0.06375
1474.77684	0.06437
1473.49108	0.06497
1472.20531	0.06548
1470.91954	0.06590
1469.63377	0.06634
1468.34800	0.06689
1467.06223	0.06751
1465.77646	0.06810
1464.49069	0.06856
1463.20492	0.06892
1461.91916	0.06926
1460.63339	0.06972
1459.34762	0.07036
1458.06185	0.07108
1456.77608	0.07162
1455.49031	0.07188
1454.20454	0.07205
1452.91877	0.07231
1451.63301	0.07258
1450.34724	0.07276
1449.06147	0.07288
1447.77570	0.07296
1446.48993	0.07300
1445.20416	0.07303
1443.91839	0.07302
1442.63262	0.07293
1441.34685	0.07273
1440.06109	0.07253
1438.77532	0.07251
1437.48955	0.07265
1436.20378	0.07283
1434.91801	0.07301
1433.63224	0.07335
1432.34647	0.07388
1431.06070	0.07454
1429.77494	0.07525
1428.48917	0.07605
1427.20340	0.07696
1425.91763	0.07798
1424.63186	0.07899
1423.34609	0.07993
1422.06032	0.08087
1420.77455	0.08185
1419.48878	0.08274
1418.20302	0.08341
1416.91725	0.08388
1415.63148	0.08428
1414.34571	0.08460
1413.05994	0.08473
1411.77417	0.08463
1410.48840	0.08434
1409.20263	0.08389
1407.91687	0.08333
1406.63110	0.08264
1405.34533	0.08180
1404.05956	0.08078
1402.77379	0.07961
1401.48802	0.07833
1400.20225	0.07698
1398.91648	0.07556
1397.63071	0.07413
1396.34495	0.07274
1395.05918	0.07136
1393.77341	0.06989
1392.48764	0.06833
1391.20187	0.06677
1389.91610	0.06528
1388.63033	0.06384
1387.34456	0.06240
1386.05880	0.06095
1384.77303	0.05954
1383.48726	0.05818
1382.20149	0.05683
1380.91572	0.05547
1379.62995	0.05412
1378.34418	0.05278
1377.05841	0.05140
1375.77264	0.04997
1374.48688	0.04845
1373.20111	0.04689
1371.91534	0.04539
1370.62957	0.04406
1369.34380	0.04289
1368.05803	0.04179
1366.77226	0.04073
1365.48649	0.03969
1364.20073	0.03867
1362.91496	0.03768
1361.62919	0.03673
1360.34342	0.03587
1359.05765	0.03515
1357.77188	0.03455
1356.48611	0.03400
1355.20034	0.03343
1353.91457	0.03283
1352.62881	0.03221
1351.34304	0.03163
1350.05727	0.03112
1348.77150	0.03068
1347.48573	0.03028
1346.19996	0.02987
1344.91419	0.02941
1343.62842	0.02892
1342.34266	0.02845
1341.05689	0.02804
1339.77112	0.02769
1338.48535	0.02737
1337.19958	0.02703
1335.91381	0.02665
1334.62804	0.02625
1333.34227	0.02585
1332.05650	0.02549
1330.77074	0.02518
1329.48497	0.02491
1328.19920	0.02466
1326.91343	0.02441
1325.62766	0.02420
1324.34189	0.02403
1323.05612	0.02383
1321.77035	0.02356
1320.48459	0.02325
1319.19882	0.02293
1317.91305	0.02266
1316.62728	0.02246
1315.34151	0.02231
1314.05574	0.02218
1312.76997	0.02205
1311.48420	0.02191
1310.19843	0.02171
1308.91267	0.02147
1307.62690	0.02117
1306.34113	0.02086
1305.05536	0.02059
1303.76959	0.02042
1302.48382	0.02035
1301.19805	0.02034
1299.91228	0.02029
1298.62652	0.02017
1297.34075	0.01999
1296.05498	0.01978
1294.76921	0.01959
1293.48344	0.01945
1292.19767	0.01938
1290.91190	0.01935
1289.62613	0.01930
1288.34036	0.01921
1287.05460	0.01907
1285.76883	0.01893
1284.48306	0.01882
1283.19729	0.01873
1281.91152	0.01862
1280.62575	0.01846
1279.33998	0.01826
1278.05421	0.01808
1276.76845	0.01798
1275.48268	0.01795
1274.19691	0.01795
1272.91114	0.01793
1271.62537	0.01790
1270.33960	0.01787
1269.05383	0.01785
1267.76806	0.01785
1266.48229	0.01781
1265.19653	0.01773
1263.91076	0.01765
1262.62499	0.01762
1261.33922	0.01763
1260.05345	0.01762
1258.76768	0.01754
1257.48191	0.01738
1256.19614	0.01722
1254.91037	0.01710
1253.62461	0.01703
1252.33884	0.01698
1251.05307	0.01693
1249.76730	0.01688
1248.48153	0.01684
1247.19576	0.01678
1245.90999	0.01671
1244.62422	0.01664
1243.33846	0.01661
1242.05269	0.01659
1240.76692	0.01654
1239.48115	0.01644
1238.19538	0.01630
1236.90961	0.01617
1235.62384	0.01609
1234.33807	0.01606
1233.05230	0.01602
1231.76654	0.01593
1230.48077	0.01583
1229.19500	0.01575
1227.90923	0.01569
1226.62346	0.01563
1225.33769	0.01554
1224.05192	0.01545
1222.76615	0.01537
1221.48039	0.01529
1220.19462	0.01523
1218.90885	0.01516
1217.62308	0.01511
1216.33731	0.01508
1215.05154	0.01507
1213.76577	0.01506
1212.48000	0.01503
1211.19423	0.01497
1209.90847	0.01492
1208.62270	0.01488
1207.33693	0.01485
1206.05116	0.01483
1204.76539	0.01481
1203.47962	0.01479
1202.19385	0.01477
1200.90808	0.01476
1199.62232	0.01477
1198.33655	0.01470
1197.05078	0.01461
1195.76501	0.01451
1194.47924	0.01444
1193.19347	0.01441
1191.90770	0.01442
1190.62193	0.01443
1189.33616	0.01444
1188.05040	0.01446
1186.76463	0.01448
1185.47886	0.01448
1184.19309	0.01444
1182.90732	0.01436
1181.62155	0.01429
1180.33578	0.01429
1179.05001	0.01435
1177.76425	0.01442
1176.47848	0.01444
1175.19271	0.01442
1173.90694	0.01441
1172.62117	0.01444
1171.33540	0.01450
1170.04963	0.01458
1168.76386	0.01470
1167.47809	0.01489
1166.19233	0.01514
1164.90656	0.01536
1163.62079	0.01550
1162.33502	0.01559
1161.04925	0.01572
1159.76348	0.01590
1158.47771	0.01611
1157.19194	0.01631
1155.90618	0.01648
1154.62041	0.01665
1153.33464	0.01683
1152.04887	0.01708
1150.76310	0.01741
1149.47733	0.01784
1148.19156	0.01837
1146.90579	0.01897
1145.62002	0.01962
1144.33426	0.02028
1143.04849	0.02094
1141.76272	0.02164
1140.47695	0.02239
1139.19118	0.02318
1137.90541	0.02406
1136.61964	0.02506
1135.33387	0.02621
1134.04811	0.02749
1132.76234	0.02890
1131.47657	0.03049
1130.19080	0.03222
1128.90503	0.03405
1127.61926	0.03597
1126.33349	0.03804
1125.04772	0.04034
1123.76195	0.04283
1122.47619	0.04541
1121.19042	0.04801
1119.90465	0.05062
1118.61888	0.05329
1117.33311	0.05611
1116.04734	0.05903
1114.76157	0.06196
1113.47580	0.06476
1112.19004	0.06737
1110.90427	0.06986
1109.61850	0.07235
1108.33273	0.07491
1107.04696	0.07754
1105.76119	0.08013
1104.47542	0.08264
1103.18965	0.08508
1101.90388	0.08744
1100.61812	0.08968
1099.33235	0.09177
1098.04658	0.09372
1096.76081	0.09563
1095.47504	0.09753
1094.18927	0.09937
1092.90350	0.10106
1091.61773	0.10260
1090.33197	0.10407
1089.04620	0.10556
1087.76043	0.10710
1086.47466	0.10869
1085.18889	0.11027
1083.90312	0.11184
1082.61735	0.11345
1081.33158	0.11519
1080.04581	0.11709
1078.76005	0.11909
1077.47428	0.12113
1076.18851	0.12318
1074.90274	0.12529
1073.61697	0.12754
1072.33120	0.12994
1071.04543	0.13248
1069.75966	0.13512
1068.47390	0.13780
1067.18813	0.14045
1065.90236	0.14307
1064.61659	0.14567
1063.33082	0.14829
1062.04505	0.15094
1060.75928	0.15360
1059.47351	0.15624
1058.18774	0.15884
1056.90198	0.16139
1055.61621	0.16392
1054.33044	0.16646
1053.04467	0.16904
1051.75890	0.17166
1050.47313	0.17432
1049.18736	0.17699
1047.90159	0.17962
1046.61583	0.18215
1045.33006	0.18461
1044.04429	0.18708
1042.75852	0.18963
1041.47275	0.19224
1040.18698	0.19488
1038.90121	0.19753
1037.61544	0.20015
1036.32967	0.20272
1035.04391	0.20518
1033.75814	0.20753
1032.47237	0.20972
1031.18660	0.21173
1029.90083	0.21355
1028.61506	0.21512
1027.32929	0.21640
1026.04352	0.21737
1024.75775	0.21812
1023.47199	0.21868
1022.18622	0.21899
1020.90045	0.21896
1019.61468	0.21852
1018.32891	0.21768
1017.04314	0.21646
1015.75737	0.21486
1014.47160	0.21288
1013.18584	0.21051
1011.90007	0.20775
1010.61430	0.20462
1009.32853	0.20114
1008.04276	0.19738
1006.75699	0.19341
1005.47122	0.18927
1004.18545	0.18496
1002.89968	0.18049
1001.61392	0.17582
1000.32815	0.17097
999.04238	0.16596
997.75661	0.16089
996.47084	0.15585
995.18507	0.15085
993.89930	0.14587
992.61353	0.14088
991.32777	0.13587
990.04200	0.13088
988.75623	0.12596
987.47046	0.12120
986.18469	0.11665
984.89892	0.11231
983.61315	0.10816
982.32738	0.10424
981.04161	0.10061
979.75585	0.09727
978.47008	0.09414
977.18431	0.09119
975.89854	0.08842
974.61277	0.08592
973.32700	0.08382
972.04123	0.08220
970.75546	0.08104
969.46970	0.08029
968.18393	0.07992
966.89816	0.07994
965.61239	0.08032
964.32662	0.08089
963.04085	0.08145
961.75508	0.08177
960.46931	0.08168
959.18354	0.08114
957.89778	0.08021
956.61201	0.07898
955.32624	0.07752
954.04047	0.07586
952.75470	0.07399
951.46893	0.07199
950.18316	0.06996
948.89739	0.06804
947.61163	0.06631
946.32586	0.06473
945.04009	0.06318
943.75432	0.06159
942.46855	0.06002
941.18278	0.05856
939.89701	0.05725
938.61124	0.05603
937.32547	0.05482
936.03971	0.05361
934.75394	0.05237
933.46817	0.05111
932.18240	0.04986
930.89663	0.04868
929.61086	0.04766
928.32509	0.04681
927.03932	0.04610
925.75356	0.04545
924.46779	0.04486
923.18202	0.04433
921.89625	0.04384
920.61048	0.04335
919.32471	0.04284
918.03894	0.04231
916.75317	0.04176
915.46740	0.04120
914.18164	0.04066
912.89587	0.04020
911.61010	0.03982
910.32433	0.03950
909.03856	0.03916
907.75279	0.03877
906.46702	0.03836
905.18125	0.03797
903.89549	0.03766
902.60972	0.03740
901.32395	0.03714
900.03818	0.03684
898.75241	0.03651
897.46664	0.03613
896.18087	0.03571
894.89510	0.03536
893.60933	0.03519
892.32357	0.03520
891.03780	0.03527
889.75203	0.03536
888.46626	0.03553
887.18049	0.03594
885.89472	0.03670
884.60895	0.03791
883.32318	0.03958
882.03742	0.04155
880.75165	0.04356
879.46588	0.04539
878.18011	0.04694
876.89434	0.04830
875.60857	0.04961
874.32280	0.05091
873.03703	0.05199
871.75126	0.05253
870.46550	0.05235
869.17973	0.05157
867.89396	0.05046
866.60819	0.04915
865.32242	0.04759
864.03665	0.04576
862.75088	0.04380
861.46511	0.04198
860.17935	0.04045
858.89358	0.03917
857.60781	0.03804
856.32204	0.03701
855.03627	0.03614
853.75050	0.03550
852.46473	0.03509
851.17896	0.03483
849.89319	0.03461
848.60743	0.03430
847.32166	0.03390
846.03589	0.03350
844.75012	0.03323
843.46435	0.03310
842.17858	0.03299
840.89281	0.03282
839.60704	0.03260
838.32128	0.03238
837.03551	0.03219
835.74974	0.03198
834.46397	0.03172
833.17820	0.03145
831.89243	0.03118
830.60666	0.03091
829.32089	0.03070
828.03512	0.03057
826.74936	0.03051
825.46359	0.03048
824.17782	0.03045
822.89205	0.03042
821.60628	0.03039
820.32051	0.03034
819.03474	0.03026
817.74897	0.03016
816.46321	0.03007
815.17744	0.03000
813.89167	0.02988
812.60590	0.02971
811.32013	0.02953
810.03436	0.02939
808.74859	0.02931
807.46282	0.02929
806.17705	0.02929
804.89129	0.02928
803.60552	0.02922
802.31975	0.02910
801.03398	0.02898
799.74821	0.02897
798.46244	0.02912
797.17667	0.02939
795.89090	0.02963
794.60513	0.02973
793.31937	0.02966
792.03360	0.02952
790.74783	0.02939
789.46206	0.02930
788.17629	0.02922
786.89052	0.02910
785.60475	0.02893
784.31898	0.02875
783.03322	0.02863
781.74745	0.02863
780.46168	0.02871
779.17591	0.02881
777.89014	0.02887
776.60437	0.02884
775.31860	0.02874
774.03283	0.02856
772.74706	0.02836
771.46130	0.02824
770.17553	0.02827
768.88976	0.02843
767.60399	0.02862
766.31822	0.02872
765.03245	0.02870
763.74668	0.02860
762.46091	0.02850
761.17515	0.02842
759.88938	0.02838
758.60361	0.02841
757.31784	0.02853
756.03207	0.02866
754.74630	0.02873
753.46053	0.02870
752.17476	0.02863
750.88899	0.02854
749.60323	0.02846
748.31746	0.02842
747.03169	0.02840
745.74592	0.02833
744.46015	0.02815
743.17438	0.02787
741.88861	0.02762
740.60284	0.02754
739.31708	0.02761
738.03131	0.02773
736.74554	0.02777
735.45977	0.02769
734.17400	0.02753
732.88823	0.02738
731.60246	0.02728
730.31669	0.02724
729.03092	0.02726
727.74516	0.02732
726.45939	0.02738
725.17362	0.02746
723.88785	0.02754
722.60208	0.02765
721.31631	0.02773
720.03054	0.02771
718.74477	0.02762
717.45901	0.02753
716.17324	0.02746
714.88747	0.02743
713.60170	0.02742
712.31593	0.02741
711.03016	0.02739
709.74439	0.02734
708.45862	0.02726
707.17285	0.02718
705.88709	0.02713
704.60132	0.02714
703.31555	0.02716
702.02978	0.02717
700.74401	0.02715
699.45824	0.02710
698.17247	0.02705
696.88670	0.02702
695.60094	0.02704
694.31517	0.02711
693.02940	0.02720
691.74363	0.02726
690.45786	0.02727
689.17209	0.02723
687.88632	0.02717
686.60055	0.02710
685.31478	0.02702
684.02902	0.02692
682.74325	0.02681
681.45748	0.02669
680.17171	0.02659
678.88594	0.02651
677.60017	0.02650
676.31440	0.02656
675.02863	0.02665
673.74287	0.02676
672.45710	0.02688
671.17133	0.02704
669.88556	0.02717
668.59979	0.02712
667.31402	0.02713
666.02825	0.02730
664.74248	0.02723
663.45671	0.02710
662.17095	0.02695
660.88518	0.02677
659.59941	0.02656
658.31364	0.02635
657.02787	0.02616
655.74210	0.02600
654.45633	0.02585
653.17056	0.02570
651.88480	0.02559
650.59903	0.02553
649.31326	0.02556
648.02749	0.02563
646.74172	0.02571
645.45595	0.02577
644.17018	0.02584
642.88441	0.02593
641.59864	0.02606
640.31288	0.02620
639.02711	0.02632
637.74134	0.02641
636.45557	0.02651
635.16980	0.02672
633.88403	0.02710
632.59826	0.02763
631.31249	0.02813
630.02673	0.02836
628.74096	0.02855
627.45519	0.02928
626.16942	0.02954
624.88365	0.02955
623.59788	0.02970
622.31211	0.03006
621.02634	0.03081
619.74057	0.03258
618.45481	0.03595
617.16904	0.04060
615.88327	0.04522
614.59750	0.04864
613.31173	0.05094
612.02596	0.05358
610.74019	0.05798
609.45442	0.06403
608.16866	0.07001
606.88289	0.07446
605.59712	0.07731
604.31135	0.07923
603.02558	0.08059
601.73981	0.08131
600.45404	0.08119
599.16827	0.08021
597.88250	0.07851
596.59674	0.07638
595.31097	0.07423
594.02520	0.07237
592.73943	0.07095
591.45366	0.06993
590.16789	0.06924
588.88212	0.06892
587.59635	0.06910
586.31059	0.06985
585.02482	0.07111
583.73905	0.07275
582.45328	0.07471
581.16751	0.07692
579.88174	0.07927
578.59597	0.08163
577.31020	0.08393
576.02443	0.08618
574.73867	0.08835
573.45290	0.09040
572.16713	0.09228
570.88136	0.09418
569.59559	0.09637
568.30982	0.09898
567.02405	0.10187
565.73828	0.10468
564.45251	0.10705
563.16675	0.10869
561.88098	0.10926
560.59521	0.10849
559.30944	0.10631
558.02367	0.10286
556.73790	0.09851
555.45213	0.09369
554.16636	0.08877
552.88060	0.08396
551.59483	0.07937
550.30906	0.07507
549.02329	0.07122
547.73752	0.06786
546.45175	0.06495
545.16598	0.06236
543.88021	0.05997
542.59444	0.05774
541.30868	0.05566
540.02291	0.05373
538.73714	0.05193
537.45137	0.05023
536.16560	0.04865
534.87983	0.04723
533.59406	0.04604
532.30829	0.04499
531.02253	0.04398
529.73676	0.04294
528.45099	0.04194
527.16522	0.04098
525.87945	0.04000
524.59368	0.03890
523.30791	0.03771
522.02214	0.03658
520.73637	0.03566
519.45061	0.03503
518.16484	0.03463
516.87907	0.03429
515.59330	0.03388
514.30753	0.03336
513.02176	0.03279
511.73599	0.03221
510.45022	0.03164
509.16446	0.03107
507.87869	0.03052
506.59292	0.03003
505.30715	0.02962
504.02138	0.02926
502.73561	0.02890
501.44984	0.02851
500.16407	0.02811
498.87830	0.02771
497.59254	0.02734
496.30677	0.02697
495.02100	0.02660
493.73523	0.02626
492.44946	0.02598
491.16369	0.02580
489.87792	0.02568
488.59215	0.02560
487.30639	0.02553
486.02062	0.02549
484.73485	0.02548
483.44908	0.02550
482.16331	0.02555
480.87754	0.02563
479.59177	0.02573
478.30600	0.02582
477.02023	0.02590
475.73447	0.02600
474.44870	0.02615
473.16293	0.02636
471.87716	0.02662
470.59139	0.02685
469.30562	0.02699
468.01985	0.02697
466.73408	0.02678
465.44832	0.02646
464.16255	0.02605
462.87678	0.02561
461.59101	0.02517
460.30524	0.02478
459.01947	0.02448
457.73370	0.02427
456.44793	0.02410
455.16216	0.02390
453.87640	0.02363
452.59063	0.02327
451.30486	0.02290
450.01909	0.02262
448.73332	0.02250
447.44755	0.02250
446.16178	0.02251
444.87601	0.02243
443.59025	0.02226
442.30448	0.02204
441.01871	0.02180
439.73294	0.02155
438.44717	0.02135
437.16140	0.02122
435.87563	0.02117
434.58986	0.02120
433.30409	0.02127
432.01833	0.02135
430.73256	0.02141
429.44679	0.02142
428.16102	0.02138
426.87525	0.02128
425.58948	0.02115
424.30371	0.02097
423.01794	0.02078
421.73218	0.02062
420.44641	0.02052
419.16064	0.02044
417.87487	0.02034
416.58910	0.02021
415.30333	0.02010
414.01756	0.02002
412.73179	0.01997
411.44602	0.01997
410.16026	0.01999
408.87449	0.01999
407.58872	0.01997
406.30295	0.01997
405.01718	0.02001
403.73141	0.02011
402.44564	0.02023
401.15987	0.02034
399.87411	0.02042
