3997.45528 0.02032
3996.16951 0.02015
3994.88374 0.02035
3993.59798 0.02037
3992.31221 0.02010
3991.02644 0.02002
3989.74067 0.02061
3988.45490 0.02187
3987.16913 0.02322
3985.88336 0.02391
3984.59759 0.02358
3983.31183 0.02253
3982.02606 0.02157
3980.74029 0.02134
3979.45452 0.02176
3978.16875 0.02222
3976.88298 0.02214
3975.59721 0.02155
3974.31144 0.02083
3973.02567 0.02038
3971.73991 0.02037
3970.45414 0.02083
3969.16837 0.02159
3967.88260 0.02226
3966.59683 0.02250
3965.31106 0.02230
3964.02529 0.02188
3962.73952 0.02140
3961.45376 0.02091
3960.16799 0.02062
3958.88222 0.02092
3957.59645 0.02200
3956.31068 0.02338
3955.02491 0.02415
3953.73914 0.02373
3952.45337 0.02244
3951.16760 0.02115
3949.88184 0.02059
3948.59607 0.02087
3947.31030 0.02162
3946.02453 0.02243
3944.73876 0.02307
3943.45299 0.02350
3942.16722 0.02359
3940.88145 0.02301
3939.59569 0.02163
3938.30992 0.01990
3937.02415 0.01861
3935.73838 0.01825
3934.45261 0.01867
3933.16684 0.01927
3931.88107 0.01957
3930.59530 0.01956
3929.30953 0.01960
3928.02377 0.01990
3926.73800 0.02028
3925.45223 0.02046
3924.16646 0.02035
3922.88069 0.02006
3921.59492 0.01977
3920.30915 0.01980
3919.02338 0.02049
3917.73762 0.02173
3916.45185 0.02285
3915.16608 0.02321
3913.88031 0.02278
3912.59454 0.02213
3911.30877 0.02194
3910.02300 0.02256
3908.73723 0.02394
3907.45146 0.02562
3906.16570 0.02688
3904.87993 0.02704
3903.59416 0.02588
3902.30839 0.02383
3901.02262 0.02181
3899.73685 0.02081
3898.45108 0.02112
3897.16531 0.02206
3895.87955 0.02262
3894.59378 0.02235
3893.30801 0.02159
3892.02224 0.02099
3890.73647 0.02085
3889.45070 0.02101
3888.16493 0.02123
3886.87916 0.02149
3885.59339 0.02182
3884.30763 0.02196
3883.02186 0.02158
3881.73609 0.02077
3880.45032 0.02000
3879.16455 0.01971
3877.87878 0.01997
3876.59301 0.02061
3875.30724 0.02128
3874.02148 0.02153
3872.73571 0.02100
3871.44994 0.01985
3870.16417 0.01881
3868.87840 0.01855
3867.59263 0.01904
3866.30686 0.01983
3865.02109 0.02054
3863.73532 0.02101
3862.44956 0.02119
3861.16379 0.02109
3859.87802 0.02095
3858.59225 0.02105
3857.30648 0.02141
3856.02071 0.02170
3854.73494 0.02176
3853.44917 0.02179
3852.16341 0.02208
3850.87764 0.02249
3849.59187 0.02258
3848.30610 0.02215
3847.02033 0.02138
3845.73456 0.02064
3844.44879 0.02021
3843.16302 0.02020
3841.87725 0.02051
3840.59149 0.02083
3839.30572 0.02084
3838.01995 0.02051
3836.73418 0.02010
3835.44841 0.01971
3834.16264 0.01917
3832.87687 0.01844
3831.59110 0.01784
3830.30534 0.01778
3829.01957 0.01822
3827.73380 0.01866
3826.44803 0.01872
3825.16226 0.01854
3823.87649 0.01862
3822.59072 0.01927
3821.30495 0.02046
3820.01918 0.02185
3818.73342 0.02294
3817.44765 0.02332
3816.16188 0.02294
3814.87611 0.02211
3813.59034 0.02118
3812.30457 0.02045
3811.01880 0.02012
3809.73303 0.02015
3808.44726 0.02032
3807.16150 0.02044
3805.87573 0.02055
3804.58996 0.02083
3803.30419 0.02132
3802.01842 0.02190
3800.73265 0.02233
3799.44688 0.02233
3798.16111 0.02172
3796.87535 0.02064
3795.58958 0.01951
3794.30381 0.01884
3793.01804 0.01884
3791.73227 0.01936
3790.44650 0.02007
3789.16073 0.02073
3787.87496 0.02120
3786.58919 0.02133
3785.30343 0.02102
3784.01766 0.02042
3782.73189 0.01997
3781.44612 0.02011
3780.16035 0.02091
3778.87458 0.02197
3777.58881 0.02269
3776.30304 0.02276
3775.01728 0.02236
3773.73151 0.02198
3772.44574 0.02198
3771.15997 0.02231
3769.87420 0.02261
3768.58843 0.02243
3767.30266 0.02174
3766.01689 0.02102
3764.73112 0.02072
3763.44536 0.02073
3762.15959 0.02053
3760.87382 0.01984
3759.58805 0.01890
3758.30228 0.01812
3757.01651 0.01774
3755.73074 0.01780
3754.44497 0.01826
3753.15921 0.01895
3751.87344 0.01957
3750.58767 0.01987
3749.30190 0.01992
3748.01613 0.01997
3746.73036 0.02006
3745.44459 0.02014
3744.15882 0.02034
3742.87305 0.02070
3741.58729 0.02099
3740.30152 0.02096
3739.01575 0.02049
3737.72998 0.01957
3736.44421 0.01838
3735.15844 0.01737
3733.87267 0.01700
3732.58690 0.01753
3731.30114 0.01875
3730.01537 0.02004
3728.72960 0.02082
3727.44383 0.02100
3726.15806 0.02078
3724.87229 0.02035
3723.58652 0.01982
3722.30075 0.01937
3721.01498 0.01918
3719.72922 0.01926
3718.44345 0.01956
3717.15768 0.02003
3715.87191 0.02059
3714.58614 0.02106
3713.30037 0.02131
3712.01460 0.02141
3710.72883 0.02145
3709.44307 0.02138
3708.15730 0.02118
3706.87153 0.02094
3705.58576 0.02084
3704.29999 0.02091
3703.01422 0.02114
3701.72845 0.02142
3700.44268 0.02147
3699.15691 0.02089
3697.87115 0.01974
3696.58538 0.01857
3695.29961 0.01790
3694.01384 0.01789
3692.72807 0.01838
3691.44230 0.01876
3690.15653 0.01847
3688.87076 0.01761
3687.58500 0.01682
3686.29923 0.01657
3685.01346 0.01692
3683.72769 0.01759
3682.44192 0.01826
3681.15615 0.01879
3679.87038 0.01922
3678.58461 0.01955
3677.29884 0.01970
3676.01308 0.01971
3674.72731 0.01975
3673.44154 0.01984
3672.15577 0.01973
3670.87000 0.01942
3669.58423 0.01922
3668.29846 0.01954
3667.01269 0.02040
3665.72693 0.02140
3664.44116 0.02190
3663.15539 0.02157
3661.86962 0.02065
3660.58385 0.01972
3659.29808 0.01927
3658.01231 0.01942
3656.72654 0.02004
3655.44077 0.02081
3654.15501 0.02141
3652.86924 0.02176
3651.58347 0.02198
3650.29770 0.02217
3649.01193 0.02216
3647.72616 0.02183
3646.44039 0.02131
3645.15462 0.02087
3643.86886 0.02065
3642.58309 0.02063
3641.29732 0.02075
3640.01155 0.02104
3638.72578 0.02140
3637.44001 0.02161
3636.15424 0.02137
3634.86847 0.02075
3633.58270 0.02017
3632.29694 0.02011
3631.01117 0.02055
3629.72540 0.02104
3628.43963 0.02115
3627.15386 0.02085
3625.86809 0.02050
3624.58232 0.02042
3623.29655 0.02056
3622.01079 0.02059
3620.72502 0.02043
3619.43925 0.02040
3618.15348 0.02081
3616.86771 0.02157
3615.58194 0.02228
3614.29617 0.02257
3613.01040 0.02240
3611.72463 0.02198
3610.43887 0.02174
3609.15310 0.02217
3607.86733 0.02341
3606.58156 0.02492
3605.29579 0.02575
3604.01002 0.02549
3602.72425 0.02466
3601.43848 0.02417
3600.15272 0.02439
3598.86695 0.02492
3597.58118 0.02518
3596.29541 0.02491
3595.00964 0.02413
3593.72387 0.02310
3592.43810 0.02254
3591.15233 0.02313
3589.86656 0.02468
3588.58080 0.02624
3587.29503 0.02688
3586.00926 0.02633
3584.72349 0.02498
3583.43772 0.02353
3582.15195 0.02252
3580.86618 0.02208
3579.58041 0.02222
3578.29464 0.02287
3577.00888 0.02383
3575.72311 0.02481
3574.43734 0.02559
3573.15157 0.02612
3571.86580 0.02642
3570.58003 0.02636
3569.29426 0.02585
3568.00849 0.02520
3566.72273 0.02486
3565.43696 0.02505
3564.15119 0.02549
3562.86542 0.02578
3561.57965 0.02578
3560.29388 0.02572
3559.00811 0.02596
3557.72234 0.02660
3556.43657 0.02736
3555.15081 0.02779
3553.86504 0.02770
3552.57927 0.02727
3551.29350 0.02685
3550.00773 0.02663
3548.72196 0.02654
3547.43619 0.02636
3546.15042 0.02609
3544.86466 0.02601
3543.57889 0.02634
3542.29312 0.02700
3541.00735 0.02761
3539.72158 0.02781
3538.43581 0.02752
3537.15004 0.02698
3535.86427 0.02652
3534.57850 0.02634
3533.29274 0.02656
3532.00697 0.02727
3530.72120 0.02846
3529.43543 0.02982
3528.14966 0.03087
3526.86389 0.03135
3525.57812 0.03135
3524.29235 0.03109
3523.00659 0.03065
3521.72082 0.02999
3520.43505 0.02923
3519.14928 0.02860
3517.86351 0.02829
3516.57774 0.02825
3515.29197 0.02834
3514.00620 0.02846
3512.72043 0.02868
3511.43467 0.02902
3510.14890 0.02940
3508.86313 0.02970
3507.57736 0.02986
3506.29159 0.02983
3505.00582 0.02950
3503.72005 0.02885
3502.43428 0.02817
3501.14852 0.02794
3499.86275 0.02846
3498.57698 0.02959
3497.29121 0.03091
3496.00544 0.03190
3494.71967 0.03219
3493.43390 0.03169
3492.14813 0.03072
3490.86236 0.02982
3489.57660 0.02939
3488.29083 0.02945
3487.00506 0.02988
3485.71929 0.03066
3484.43352 0.03179
3483.14775 0.03303
3481.86198 0.03389
3480.57621 0.03400
3479.29045 0.03346
3478.00468 0.03268
3476.71891 0.03202
3475.43314 0.03156
3474.14737 0.03129
3472.86160 0.03134
3471.57583 0.03184
3470.29006 0.03263
3469.00429 0.03330
3467.71853 0.03347
3466.43276 0.03313
3465.14699 0.03264
3463.86122 0.03242
3462.57545 0.03265
3461.28968 0.03317
3460.00391 0.03368
3458.71814 0.03400
3457.43238 0.03416
3456.14661 0.03422
3454.86084 0.03426
3453.57507 0.03430
3452.28930 0.03425
3451.00353 0.03402
3449.71776 0.03361
3448.43199 0.03316
3447.14622 0.03281
3445.86046 0.03258
3444.57469 0.03255
3443.28892 0.03289
3442.00315 0.03359
3440.71738 0.03434
3439.43161 0.03481
3438.14584 0.03494
3436.86007 0.03486
3435.57431 0.03454
3434.28854 0.03391
3433.00277 0.03315
3431.71700 0.03283
3430.43123 0.03340
3429.14546 0.03466
3427.85969 0.03578
3426.57392 0.03598
3425.28815 0.03526
3424.00239 0.03435
3422.71662 0.03406
3421.43085 0.03452
3420.14508 0.03520
3418.85931 0.03552
3417.57354 0.03542
3416.28777 0.03530
3415.00200 0.03550
3413.71624 0.03600
3412.43047 0.03646
3411.14470 0.03646
3409.85893 0.03592
3408.57316 0.03522
3407.28739 0.03492
3406.00162 0.03531
3404.71585 0.03613
3403.43008 0.03683
3402.14432 0.03717
3400.85855 0.03725
3399.57278 0.03683
3398.28701 0.03624
3397.00124 0.03626
3395.71547 0.03677
3394.42970 0.03732
3393.14393 0.03755
3391.85817 0.03739
3390.57240 0.03712
3389.28663 0.03706
3388.00086 0.03730
3386.71509 0.03776
3385.42932 0.03842
3384.14355 0.03920
3382.85778 0.03986
3381.57201 0.04009
3380.28625 0.03984
3379.00048 0.03934
3377.71471 0.03890
3376.42894 0.03866
3375.14317 0.03865
3373.85740 0.03881
3372.57163 0.03910
3371.28586 0.03940
3370.00010 0.03964
3368.71433 0.03980
3367.42856 0.03982
3366.14279 0.03965
3364.85702 0.03933
3363.57125 0.03899
3362.28548 0.03874
3360.99971 0.03850
3359.71394 0.03823
3358.42818 0.03806
3357.14241 0.03822
3355.85664 0.03872
3354.57087 0.03924
3353.28510 0.03942
3351.99933 0.03924
3350.71356 0.03898
3349.42779 0.03887
3348.14202 0.03892
3346.85626 0.03903
3345.57049 0.03931
3344.28472 0.03992
3342.99895 0.04078
3341.71318 0.04145
3340.42741 0.04148
3339.14164 0.04090
3337.85587 0.04024
3336.57011 0.04006
3335.28434 0.04052
3333.99857 0.04134
3332.71280 0.04210
3331.42703 0.04254
3330.14126 0.04256
3328.85549 0.04208
3327.56972 0.04113
3326.28395 0.04001
3324.99819 0.03923
3323.71242 0.03914
3322.42665 0.03971
3321.14088 0.04063
3319.85511 0.04154
3318.56934 0.04221
3317.28357 0.04256
3315.99780 0.04268
3314.71204 0.04267
3313.42627 0.04260
3312.14050 0.04251
3310.85473 0.04256
3309.56896 0.04292
3308.28319 0.04361
3306.99742 0.04429
3305.71165 0.04453
3304.42588 0.04422
3303.14012 0.04370
3301.85435 0.04335
3300.56858 0.04323
3299.28281 0.04307
3297.99704 0.04273
3296.71127 0.04231
3295.42550 0.04205
3294.13973 0.04202
3292.85397 0.04216
3291.56820 0.04248
3290.28243 0.04307
3288.99666 0.04377
3287.71089 0.04420
3286.42512 0.04407
3285.13935 0.04351
3283.85358 0.04302
3282.56781 0.04299
3281.28205 0.04344
3279.99628 0.04408
3278.71051 0.04454
3277.42474 0.04462
3276.13897 0.04434
3274.85320 0.04392
3273.56743 0.04363
3272.28166 0.04365
3270.99590 0.04391
3269.71013 0.04415
3268.42436 0.04423
3267.13859 0.04420
3265.85282 0.04421
3264.56705 0.04427
3263.28128 0.04431
3261.99551 0.04429
3260.70974 0.04426
3259.42398 0.04418
3258.13821 0.04394
3256.85244 0.04353
3255.56667 0.04309
3254.28090 0.04284
3252.99513 0.04278
3251.70936 0.04279
3250.42359 0.04277
3249.13783 0.04268
3247.85206 0.04246
3246.56629 0.04213
3245.28052 0.04184
3243.99475 0.04170
3242.70898 0.04171
3241.42321 0.04182
3240.13744 0.04201
3238.85167 0.04226
3237.56591 0.04245
3236.28014 0.04242
3234.99437 0.04216
3233.70860 0.04177
3232.42283 0.04146
3231.13706 0.04137
3229.85129 0.04147
3228.56552 0.04160
3227.27976 0.04152
3225.99399 0.04120
3224.70822 0.04077
3223.42245 0.04048
3222.13668 0.04045
3220.85091 0.04064
3219.56514 0.04086
3218.27937 0.04091
3216.99360 0.04074
3215.70784 0.04055
3214.42207 0.04052
3213.13630 0.04061
3211.85053 0.04053
3210.56476 0.04017
3209.27899 0.03973
3207.99322 0.03953
3206.70745 0.03961
3205.42169 0.03982
3204.13592 0.04009
3202.85015 0.04054
3201.56438 0.04129
3200.27861 0.04217
3198.99284 0.04277
3197.70707 0.04284
3196.42130 0.04248
3195.13553 0.04199
3193.84977 0.04155
3192.56400 0.04124
3191.27823 0.04109
3189.99246 0.04118
3188.70669 0.04150
3187.42092 0.04190
3186.13515 0.04210
3184.84938 0.04193
3183.56362 0.04148
3182.27785 0.04104
3180.99208 0.04078
3179.70631 0.04065
3178.42054 0.04048
3177.13477 0.04021
3175.84900 0.03985
3174.56323 0.03941
3173.27746 0.03893
3171.99170 0.03852
3170.70593 0.03834
3169.42016 0.03852
3168.13439 0.03898
3166.84862 0.03953
3165.56285 0.03985
3164.27708 0.03978
3162.99131 0.03936
3161.70555 0.03884
3160.41978 0.03847
3159.13401 0.03841
3157.84824 0.03865
3156.56247 0.03899
3155.27670 0.03919
3153.99093 0.03910
3152.70516 0.03869
3151.41939 0.03810
3150.13363 0.03757
3148.84786 0.03736
3147.56209 0.03756
3146.27632 0.03797
3144.99055 0.03827
3143.70478 0.03839
3142.41901 0.03856
3141.13324 0.03898
3139.84748 0.03946
3138.56171 0.03964
3137.27594 0.03941
3135.99017 0.03894
3134.70440 0.03857
3133.41863 0.03851
3132.13286 0.03877
3130.84709 0.03916
3129.56132 0.03940
3128.27556 0.03933
3126.98979 0.03898
3125.70402 0.03850
3124.41825 0.03803
3123.13248 0.03768
3121.84671 0.03747
3120.56094 0.03734
3119.27517 0.03720
3117.98940 0.03708
3116.70364 0.03715
3115.41787 0.03749
3114.13210 0.03790
3112.84633 0.03809
3111.56056 0.03795
3110.27479 0.03761
3108.98902 0.03723
3107.70325 0.03687
3106.41749 0.03650
3105.13172 0.03613
3103.84595 0.03588
3102.56018 0.03592
3101.27441 0.03626
3099.98864 0.03672
3098.70287 0.03704
3097.41710 0.03714
3096.13133 0.03715
3094.84557 0.03725
3093.55980 0.03750
3092.27403 0.03781
3090.98826 0.03809
3089.70249 0.03827
3088.41672 0.03824
3087.13095 0.03797
3085.84518 0.03754
3084.55942 0.03715
3083.27365 0.03696
3081.98788 0.03699
3080.70211 0.03714
3079.41634 0.03729
3078.13057 0.03747
3076.84480 0.03776
3075.55903 0.03816
3074.27326 0.03849
3072.98750 0.03853
3071.70173 0.03834
3070.41596 0.03821
3069.13019 0.03829
3067.84442 0.03847
3066.55865 0.03854
3065.27288 0.03853
3063.98711 0.03851
3062.70135 0.03846
3061.41558 0.03826
3060.12981 0.03791
3058.84404 0.03761
3057.55827 0.03749
3056.27250 0.03747
3054.98673 0.03741
3053.70096 0.03725
3052.41519 0.03713
3051.12943 0.03713
3049.84366 0.03718
3048.55789 0.03708
3047.27212 0.03678
3045.98635 0.03640
3044.70058 0.03615
3043.41481 0.03608
3042.12904 0.03617
3040.84328 0.03634
3039.55751 0.03649
3038.27174 0.03656
3036.98597 0.03658
3035.70020 0.03663
3034.41443 0.03671
3033.12866 0.03675
3031.84289 0.03666
3030.55712 0.03643
3029.27136 0.03618
3027.98559 0.03592
3026.69982 0.03565
3025.41405 0.03534
3024.12828 0.03504
3022.84251 0.03482
3021.55674 0.03466
3020.27097 0.03455
3018.98521 0.03453
3017.69944 0.03467
3016.41367 0.03496
3015.12790 0.03528
3013.84213 0.03542
3012.55636 0.03528
3011.27059 0.03491
3009.98482 0.03450
3008.69905 0.03423
3007.41329 0.03417
3006.12752 0.03419
3004.84175 0.03412
3003.55598 0.03401
3002.27021 0.03411
3000.98444 0.03443
2999.69867 0.03430
2998.41290 0.03439
2997.12714 0.03439
2995.84137 0.03440
2994.55560 0.03446
2993.26983 0.03449
2991.98406 0.03448
2990.69829 0.03452
2989.41252 0.03462
2988.12675 0.03465
2986.84098 0.03452
2985.55522 0.03438
2984.26945 0.03451
2982.98368 0.03503
2981.69791 0.03578
2980.41214 0.03646
2979.12637 0.03688
2977.84060 0.03693
2976.55483 0.03660
2975.26907 0.03604
2973.98330 0.03553
2972.69753 0.03530
2971.41176 0.03537
2970.12599 0.03562
2968.84022 0.03586
2967.55445 0.03602
2966.26868 0.03616
2964.98291 0.03637
2963.69715 0.03667
2962.41138 0.03703
2961.12561 0.03741
2959.83984 0.03788
2958.55407 0.03842
2957.26830 0.03893
2955.98253 0.03935
2954.69676 0.03971
2953.41100 0.04006
2952.12523 0.04036
2950.83946 0.04055
2949.55369 0.04061
2948.26792 0.04053
2946.98215 0.04031
2945.69638 0.03991
2944.41061 0.03942
2943.12484 0.03908
2941.83908 0.03905
2940.55331 0.03934
2939.26754 0.03966
2937.98177 0.03978
2936.69600 0.03962
2935.41023 0.03934
2934.12446 0.03919
2932.83869 0.03932
2931.55293 0.03966
2930.26716 0.04001
2928.98139 0.04024
2927.69562 0.04041
2926.40985 0.04059
2925.12408 0.04073
2923.83831 0.04073
2922.55254 0.04058
2921.26677 0.04045
2919.98101 0.04041
2918.69524 0.04040
2917.40947 0.04033
2916.12370 0.04018
2914.83793 0.03998
2913.55216 0.03975
2912.26639 0.03954
2910.98062 0.03939
2909.69486 0.03932
2908.40909 0.03925
2907.12332 0.03902
2905.83755 0.03866
2904.55178 0.03833
2903.26601 0.03822
2901.98024 0.03838
2900.69447 0.03872
2899.40870 0.03912
2898.12294 0.03934
2896.83717 0.03917
2895.55140 0.03857
2894.26563 0.03782
2892.97986 0.03727
2891.69409 0.03700
2890.40832 0.03684
2889.12255 0.03651
2887.83678 0.03596
2886.55102 0.03543
2885.26525 0.03521
2883.97948 0.03544
2882.69371 0.03599
2881.40794 0.03654
2880.12217 0.03677
2878.83640 0.03653
2877.55063 0.03604
2876.26487 0.03578
2874.97910 0.03598
2873.69333 0.03643
2872.40756 0.03669
2871.12179 0.03663
2869.83602 0.03646
2868.55025 0.03644
2867.26448 0.03655
2865.97871 0.03663
2864.69295 0.03653
2863.40718 0.03629
2862.12141 0.03597
2860.83564 0.03568
2859.54987 0.03544
2858.26410 0.03520
2856.97833 0.03496
2855.69256 0.03477
2854.40680 0.03471
2853.12103 0.03477
2851.83526 0.03480
2850.54949 0.03471
2849.26372 0.03448
2847.97795 0.03423
2846.69218 0.03407
2845.40641 0.03404
2844.12064 0.03406
2842.83488 0.03403
2841.54911 0.03385
2840.26334 0.03349
2838.97757 0.03301
2837.69180 0.03255
2836.40603 0.03220
2835.12026 0.03196
2833.83449 0.03186
2832.54873 0.03192
2831.26296 0.03212
2829.97719 0.03232
2828.69142 0.03242
2827.40565 0.03237
2826.11988 0.03220
2824.83411 0.03192
2823.54834 0.03162
2822.26257 0.03137
2820.97681 0.03117
2819.69104 0.03092
2818.40527 0.03062
2817.11950 0.03039
2815.83373 0.03032
2814.54796 0.03032
2813.26219 0.03025
2811.97642 0.03005
2810.69066 0.02982
2809.40489 0.02970
2808.11912 0.02976
2806.83335 0.02995
2805.54758 0.03006
2804.26181 0.02993
2802.97604 0.02961
2801.69027 0.02928
2800.40450 0.02906
2799.11874 0.02898
2797.83297 0.02904
2796.54720 0.02919
2795.26143 0.02936
2793.97566 0.02946
2792.68989 0.02943
2791.40412 0.02929
2790.11835 0.02919
2788.83259 0.02919
2787.54682 0.02923
2786.26105 0.02919
2784.97528 0.02906
2783.68951 0.02895
2782.40374 0.02893
2781.11797 0.02897
2779.83220 0.02902
2778.54643 0.02910
2777.26067 0.02921
2775.97490 0.02929
2774.68913 0.02922
2773.40336 0.02893
2772.11759 0.02845
2770.83182 0.02799
2769.54605 0.02782
2768.26028 0.02798
2766.97452 0.02825
2765.68875 0.02832
2764.40298 0.02812
2763.11721 0.02784
2761.83144 0.02768
2760.54567 0.02771
2759.25990 0.02787
2757.97413 0.02803
2756.68836 0.02815
2755.40260 0.02823
2754.11683 0.02829
2752.83106 0.02828
2751.54529 0.02817
2750.25952 0.02798
2748.97375 0.02780
2747.68798 0.02765
2746.40221 0.02748
2745.11645 0.02729
2743.83068 0.02716
2742.54491 0.02723
2741.25914 0.02744
2739.97337 0.02760
2738.68760 0.02761
2737.40183 0.02752
2736.11606 0.02743
2734.83029 0.02730
2733.54453 0.02716
2732.25876 0.02712
2730.97299 0.02723
2729.68722 0.02736
2728.40145 0.02728
2727.11568 0.02696
2725.82991 0.02657
2724.54414 0.02629
2723.25838 0.02623
2721.97261 0.02633
2720.68684 0.02647
2719.40107 0.02655
2718.11530 0.02658
2716.82953 0.02663
2715.54376 0.02673
2714.25799 0.02684
2712.97222 0.02689
2711.68646 0.02683
2710.40069 0.02663
2709.11492 0.02634
2707.82915 0.02608
2706.54338 0.02597
2705.25761 0.02599
2703.97184 0.02607
2702.68607 0.02613
2701.40031 0.02610
2700.11454 0.02600
2698.82877 0.02590
2697.54300 0.02587
2696.25723 0.02587
2694.97146 0.02583
2693.68569 0.02573
2692.39992 0.02559
2691.11415 0.02548
2689.82839 0.02550
2688.54262 0.02567
2687.25685 0.02587
2685.97108 0.02592
2684.68531 0.02574
2683.39954 0.02551
2682.11377 0.02539
2680.82800 0.02540
2679.54224 0.02540
2678.25647 0.02528
2676.97070 0.02509
2675.68493 0.02494
2674.39916 0.02496
2673.11339 0.02513
2671.82762 0.02535
2670.54185 0.02552
2669.25608 0.02564
2667.97032 0.02567
2666.68455 0.02554
2665.39878 0.02527
2664.11301 0.02501
2662.82724 0.02496
2661.54147 0.02514
2660.25570 0.02539
2658.96993 0.02556
2657.68417 0.02562
2656.39840 0.02564
2655.11263 0.02569
2653.82686 0.02576
2652.54109 0.02577
2651.25532 0.02563
2649.96955 0.02530
2648.68378 0.02489
2647.39801 0.02455
2646.11225 0.02441
2644.82648 0.02449
2643.54071 0.02467
2642.25494 0.02483
2640.96917 0.02489
2639.68340 0.02487
2638.39763 0.02478
2637.11186 0.02459
2635.82609 0.02423
2634.54033 0.02376
2633.25456 0.02340
2631.96879 0.02339
2630.68302 0.02378
2629.39725 0.02438
2628.11148 0.02490
2626.82571 0.02516
2625.53994 0.02515
2624.25418 0.02494
2622.96841 0.02458
2621.68264 0.02408
2620.39687 0.02353
2619.11110 0.02305
2617.82533 0.02267
2616.53956 0.02239
2615.25379 0.02222
2613.96802 0.02228
2612.68226 0.02253
2611.39649 0.02277
2610.11072 0.02283
2608.82495 0.02273
2607.53918 0.02255
2606.25341 0.02242
2604.96764 0.02245
2603.68187 0.02270
2602.39611 0.02310
2601.11034 0.02337
2599.82457 0.02330
2598.53880 0.02286
2597.25303 0.02218
2595.96726 0.02145
2594.68149 0.02083
2593.39572 0.02047
2592.10995 0.02041
2590.82419 0.02060
2589.53842 0.02088
2588.25265 0.02109
2586.96688 0.02113
2585.68111 0.02100
2584.39534 0.02077
2583.10957 0.02061
2581.82380 0.02056
2580.53804 0.02059
2579.25227 0.02060
2577.96650 0.02053
2576.68073 0.02039
2575.39496 0.02026
2574.10919 0.02022
2572.82342 0.02034
2571.53765 0.02052
2570.25188 0.02070
2568.96612 0.02093
2567.68035 0.02130
2566.39458 0.02171
2565.10881 0.02187
2563.82304 0.02161
2562.53727 0.02108
2561.25150 0.02065
2559.96573 0.02054
2558.67997 0.02056
2557.39420 0.02038
2556.10843 0.01989
2554.82266 0.01931
2553.53689 0.01894
2552.25112 0.01886
2550.96535 0.01902
2549.67958 0.01926
2548.39381 0.01940
2547.10805 0.01937
2545.82228 0.01920
2544.53651 0.01903
2543.25074 0.01894
2541.96497 0.01891
2540.67920 0.01892
2539.39343 0.01900
2538.10766 0.01922
2536.82190 0.01957
2535.53613 0.01985
2534.25036 0.01987
2532.96459 0.01969
2531.67882 0.01949
2530.39305 0.01930
2529.10728 0.01894
2527.82151 0.01848
2526.53574 0.01833
2525.24998 0.01879
2523.96421 0.01965
2522.67844 0.02036
2521.39267 0.02057
2520.10690 0.02034
2518.82113 0.01991
2517.53536 0.01942
2516.24959 0.01885
2514.96383 0.01826
2513.67806 0.01784
2512.39229 0.01783
2511.10652 0.01827
2509.82075 0.01890
2508.53498 0.01936
2507.24921 0.01940
2505.96344 0.01906
2504.67767 0.01861
2503.39191 0.01825
2502.10614 0.01804
2500.82037 0.01799
2499.53460 0.01814
2498.24883 0.01849
2496.96306 0.01892
2495.67729 0.01932
2494.39152 0.01965
2493.10576 0.01991
2491.81999 0.02002
2490.53422 0.01983
2489.24845 0.01935
2487.96268 0.01872
2486.67691 0.01818
2485.39114 0.01794
2484.10537 0.01813
2482.81960 0.01872
2481.53384 0.01942
2480.24807 0.01979
2478.96230 0.01964
2477.67653 0.01921
2476.39076 0.01894
2475.10499 0.01901
2473.81922 0.01919
2472.53345 0.01912
2471.24769 0.01874
2469.96192 0.01832
2468.67615 0.01812
2467.39038 0.01812
2466.10461 0.01814
2464.81884 0.01812
2463.53307 0.01813
2462.24730 0.01823
2460.96153 0.01838
2459.67577 0.01854
2458.39000 0.01864
2457.10423 0.01862
2455.81846 0.01842
2454.53269 0.01809
2453.24692 0.01784
2451.96115 0.01787
2450.67538 0.01817
2449.38962 0.01858
2448.10385 0.01892
2446.81808 0.01909
2445.53231 0.01910
2444.24654 0.01893
2442.96077 0.01864
2441.67500 0.01837
2440.38923 0.01823
2439.10346 0.01823
2437.81770 0.01828
2436.53193 0.01824
2435.24616 0.01805
2433.96039 0.01785
2432.67462 0.01788
2431.38885 0.01825
2430.10308 0.01878
2428.81731 0.01911
2427.53155 0.01901
2426.24578 0.01858
2424.96001 0.01823
2423.67424 0.01823
2422.38847 0.01841
2421.10270 0.01839
2419.81693 0.01814
2418.53116 0.01795
2417.24539 0.01803
2415.95963 0.01825
2414.67386 0.01842
2413.38809 0.01849
2412.10232 0.01846
2410.81655 0.01835
2409.53078 0.01819
2408.24501 0.01804
2406.95924 0.01790
2405.67347 0.01769
2404.38771 0.01745
2403.10194 0.01730
2401.81617 0.01731
2400.53040 0.01744
2399.24463 0.01849
2397.95886 0.01803
2396.67309 0.01767
2395.38732 0.01774
2394.10156 0.01788
2392.81579 0.01798
2391.53002 0.01796
2390.24425 0.01774
2388.95848 0.01728
2387.67271 0.01675
2386.38694 0.01642
2385.10117 0.01648
2383.81540 0.01686
2382.52964 0.01733
2381.24387 0.01764
2379.95810 0.01765
2378.67233 0.01755
2377.38656 0.01733
2376.10079 0.01698
2374.81502 0.01671
2373.52925 0.01715
2372.24349 0.01820
2370.95772 0.01910
2369.67195 0.01935
2368.38618 0.01920
2367.10041 0.01918
2365.81464 0.01920
2364.52887 0.01926
2363.24310 0.01933
2361.95733 0.01958
2360.67157 0.02031
2359.38580 0.02094
2358.10003 0.02085
2356.81426 0.02006
2355.52849 0.01897
2354.24272 0.01794
2352.95695 0.01741
2351.67118 0.01783
2350.38542 0.01853
2349.09965 0.01871
2347.81388 0.01870
2346.52811 0.01938
2345.24234 0.02000
2343.95657 0.01923
2342.67080 0.01759
2341.38503 0.01801
2340.09926 0.02017
2338.81350 0.02026
2337.52773 0.01842
2336.24196 0.01886
2334.95619 0.02066
2333.67042 0.01999
2332.38465 0.01798
2331.09888 0.01897
2329.81311 0.01981
2328.52735 0.01870
2327.24158 0.01935
2325.95581 0.02093
2324.67004 0.02096
2323.38427 0.02072
2322.09850 0.02131
2320.81273 0.02086
2319.52696 0.02054
2318.24119 0.02045
2316.95543 0.01970
2315.66966 0.01922
2314.38389 0.01888
2313.09812 0.01841
2311.81235 0.01834
2310.52658 0.01805
2309.24081 0.01761
2307.95504 0.01746
2306.66928 0.01728
2305.38351 0.01714
2304.09774 0.01699
2302.81197 0.01696
2301.52620 0.01727
2300.24043 0.01761
2298.95466 0.01775
2297.66889 0.01762
2296.38312 0.01744
2295.09736 0.01747
2293.81159 0.01761
2292.52582 0.01766
2291.24005 0.01750
2289.95428 0.01734
2288.66851 0.01740
2287.38274 0.01765
2286.09697 0.01779
2284.81121 0.01766
2283.52544 0.01741
2282.23967 0.01739
2280.95390 0.01773
2279.66813 0.01815
2278.38236 0.01830
2277.09659 0.01809
2275.81082 0.01775
2274.52505 0.01746
2273.23929 0.01718
2271.95352 0.01670
2270.66775 0.01598
2269.38198 0.01517
2268.09621 0.01455
2266.81044 0.01435
2265.52467 0.01446
2264.23890 0.01452
2262.95314 0.01430
2261.66737 0.01378
2260.38160 0.01310
2259.09583 0.01247
2257.81006 0.01203
2256.52429 0.01187
2255.23852 0.01202
2253.95275 0.01256
2252.66698 0.01333
2251.38122 0.01373
2250.09545 0.01368
2248.80968 0.01443
2247.52391 0.01401
2246.23814 0.01378
2244.95237 0.01394
2243.66660 0.01412
2242.38083 0.01402
2241.09507 0.01372
2239.80930 0.01352
2238.52353 0.01359
2237.23776 0.01382
2235.95199 0.01409
2234.66622 0.01441
2233.38045 0.01491
2232.09468 0.01550
2230.80891 0.01579
2229.52315 0.01535
2228.23738 0.01420
2226.95161 0.01290
2225.66584 0.01206
2224.38007 0.01181
2223.09430 0.01184
2221.80853 0.01191
2220.52276 0.01212
2219.23700 0.01271
2217.95123 0.01371
2216.66546 0.01485
2215.37969 0.01581
2214.09392 0.01636
2212.80815 0.01646
2211.52238 0.01614
2210.23661 0.01548
2208.95084 0.01451
2207.66508 0.01323
2206.37931 0.01172
2205.09354 0.01033
2203.80777 0.00957
2202.52200 0.00959
2201.23623 0.00998
2199.95046 0.01015
2198.66469 0.00987
2197.37893 0.00941
2196.09316 0.00913
2194.80739 0.00932
2193.52162 0.01012
2192.23585 0.01137
2190.95008 0.01249
2189.66431 0.01281
2188.37854 0.01212
2187.09277 0.01081
2185.80701 0.00944
2184.52124 0.00842
2183.23547 0.00813
2181.94970 0.00884
2180.66393 0.01029
2179.37816 0.01156
2178.09239 0.01169
2176.80662 0.01050
2175.52085 0.00876
2174.23509 0.00739
2172.94932 0.00676
2171.66355 0.00668
2170.37778 0.00704
2169.09201 0.00798
2167.80624 0.00947
2166.52047 0.01077
2165.23470 0.01084
2163.94894 0.00925
2162.66317 0.00672
2161.37740 0.00449
2160.09163 0.00317
2158.80586 0.00258
2157.52009 0.00239
2156.23432 0.00230
2154.94855 0.00177
2153.66278 0.00037
2152.37702 -0.00143
2151.09125 -0.00231
2149.80548 -0.00130
2148.51971 0.00133
2147.23394 0.00443
2145.94817 0.00704
2144.66240 0.00876
2143.37663 0.00946
2142.09087 0.00909
2140.80510 0.00793
2139.51933 0.00667
2138.23356 0.00591
2136.94779 0.00569
2135.66202 0.00568
2134.37625 0.00561
2133.09048 0.00546
2131.80471 0.00533
2130.51895 0.00542
2129.23318 0.00592
2127.94741 0.00675
2126.66164 0.00763
2125.37587 0.00833
2124.09010 0.00883
2122.80433 0.00916
2121.51856 0.00933
2120.23280 0.00943
2118.94703 0.00959
2117.66126 0.00982
2116.37549 0.01004
2115.08972 0.01011
2113.80395 0.01002
2112.51818 0.00988
2111.23241 0.00996
2109.94664 0.01042
2108.66088 0.01109
2107.37511 0.01155
2106.08934 0.01153
2104.80357 0.01118
2103.51780 0.01081
2102.23203 0.01055
2100.94626 0.01028
2099.66049 0.01031
2098.37473 0.01006
2097.08896 0.00917
2095.80319 0.00820
2094.51742 0.00759
2093.23165 0.00750
2091.94588 0.00790
2090.66011 0.00855
2089.37434 0.00909
2088.08857 0.00927
2086.80281 0.00916
2085.51704 0.00902
2084.23127 0.00899
2082.94550 0.00908
2081.65973 0.00923
2080.37396 0.00937
2079.08819 0.00939
2077.80242 0.00922
2076.51666 0.00893
2075.23089 0.00876
2073.94512 0.00887
2072.65935 0.00913
2071.37358 0.00924
2070.08781 0.00902
2068.80204 0.00847
2067.51627 0.00775
2066.23050 0.00704
2064.94474 0.00653
2063.65897 0.00635
2062.37320 0.00649
2061.08743 0.00675
2059.80166 0.00694
2058.51589 0.00700
2057.23012 0.00696
2055.94435 0.00689
2054.65859 0.00685
2053.37282 0.00699
2052.08705 0.00742
2050.80128 0.00802
2049.51551 0.00841
2048.22974 0.00825
2046.94397 0.00749
2045.65820 0.00647
2044.37243 0.00566
2043.08667 0.00534
2041.80090 0.00548
2040.51513 0.00584
2039.22936 0.00632
2037.94359 0.00700
2036.65782 0.00789
2035.37205 0.00864
2034.08628 0.00876
2032.80052 0.00801
2031.51475 0.00651
2030.22898 0.00479
2028.94321 0.00354
2027.65744 0.00326
2026.37167 0.00379
2025.08590 0.00435
2023.80013 0.00432
2022.51436 0.00374
2021.22860 0.00313
2019.94283 0.00284
2018.65706 0.00286
2017.37129 0.00309
2016.08552 0.00352
2014.79975 0.00407
2013.51398 0.00464
2012.22821 0.00518
2010.94245 0.00570
2009.65668 0.00603
2008.37091 0.00590
2007.08514 0.00530
2005.79937 0.00463
2004.51360 0.00440
2003.22783 0.00480
2001.94206 0.00561
2000.65629 0.00639
1999.37053 0.00671
1998.08476 0.00639
1996.79899 0.00571
1995.51322 0.00520
1994.22745 0.00526
1992.94168 0.00574
1991.65591 0.00608
1990.37014 0.00596
1989.08438 0.00560
1987.79861 0.00553
1986.51284 0.00603
1985.22707 0.00686
1983.94130 0.00765
1982.65553 0.00821
1981.36976 0.00866
1980.08399 0.00907
1978.79822 0.00935
1977.51246 0.00929
1976.22669 0.00883
1974.94092 0.00821
1973.65515 0.00774
1972.36938 0.00764
1971.08361 0.00797
1969.79784 0.00848
1968.51207 0.00866
1967.22631 0.00811
1965.94054 0.00714
1964.65477 0.00658
1963.36900 0.00686
1962.08323 0.00748
1960.79746 0.00762
1959.51169 0.00708
1958.22592 0.00638
1956.94015 0.00599
1955.65439 0.00590
1954.36862 0.00588
1953.08285 0.00587
1951.79708 0.00602
1950.51131 0.00645
1949.22554 0.00717
1947.93977 0.00804
1946.65400 0.00883
1945.36823 0.00921
1944.08247 0.00905
1942.79670 0.00861
1941.51093 0.00836
1940.22516 0.00862
1938.93939 0.00924
1937.65362 0.00983
1936.36785 0.01014
1935.08208 0.01023
1933.79632 0.01026
1932.51055 0.01029
1931.22478 0.01031
1929.93901 0.01038
1928.65324 0.01055
1927.36747 0.01071
1926.08170 0.01061
1924.79593 0.01022
1923.51016 0.00985
1922.22440 0.00986
1920.93863 0.01032
1919.65286 0.01093
1918.36709 0.01134
1917.08132 0.01144
1915.79555 0.01134
1914.50978 0.01125
1913.22401 0.01126
1911.93825 0.01132
1910.65248 0.01132
1909.36671 0.01116
1908.08094 0.01081
1906.79517 0.01027
1905.50940 0.00958
1904.22363 0.00896
1902.93786 0.00864
1901.65209 0.00871
1900.36633 0.00905
1899.08056 0.00945
1897.79479 0.00979
1896.50902 0.01009
1895.22325 0.01038
1893.93748 0.01067
1892.65171 0.01096
1891.36594 0.01116
1890.08018 0.01119
1888.79441 0.01102
1887.50864 0.01073
1886.22287 0.01044
1884.93710 0.01021
1883.65133 0.01004
1882.36556 0.00991
1881.07979 0.00987
1879.79402 0.00991
1878.50826 0.00997
1877.22249 0.01003
1875.93672 0.01013
1874.65095 0.01032
1873.36518 0.01055
1872.07941 0.01071
1870.79364 0.01070
1869.50787 0.01053
1868.22211 0.01028
1866.93634 0.01006
1865.65057 0.00998
1864.36480 0.01004
1863.07903 0.01017
1861.79326 0.01023
1860.50749 0.01016
1859.22172 0.00994
1857.93595 0.00967
1856.65019 0.00948
1855.36442 0.00948
1854.07865 0.00969
1852.79288 0.01002
1851.50711 0.01034
1850.22134 0.01055
1848.93557 0.01064
1847.64980 0.01071
1846.36404 0.01083
1845.07827 0.01097
1843.79250 0.01104
1842.50673 0.01100
1841.22096 0.01088
1839.93519 0.01075
1838.64942 0.01071
1837.36365 0.01074
1836.07788 0.01084
1834.79212 0.01095
1833.50635 0.01103
1832.22058 0.01100
1830.93481 0.01087
1829.64904 0.01079
1828.36327 0.01086
1827.07750 0.01110
1825.79173 0.01140
1824.50597 0.01166
1823.22020 0.01182
1821.93443 0.01182
1820.64866 0.01162
1819.36289 0.01125
1818.07712 0.01083
1816.79135 0.01049
1815.50558 0.01027
1814.21981 0.01016
1812.93405 0.01011
1811.64828 0.01010
1810.36251 0.01015
1809.07674 0.01024
1807.79097 0.01039
1806.50520 0.01058
1805.21943 0.01080
1803.93366 0.01094
1802.64790 0.01095
1801.36213 0.01084
1800.07636 0.01068
1798.79059 0.01058
1797.50482 0.01062
1796.21905 0.01079
1794.93328 0.01100
1793.64751 0.01114
1792.36174 0.01119
1791.07598 0.01121
1789.79021 0.01126
1788.50444 0.01131
1787.21867 0.01129
1785.93290 0.01121
1784.64713 0.01115
1783.36136 0.01118
1782.07559 0.01130
1780.78983 0.01139
1779.50406 0.01136
1778.21829 0.01125
1776.93252 0.01115
1775.64675 0.01110
1774.36098 0.01107
1773.07521 0.01102
1771.78944 0.01095
1770.50367 0.01090
1769.21791 0.01088
1767.93214 0.01088
1766.64637 0.01090
1765.36060 0.01099
1764.07483 0.01115
1762.78906 0.01132
1761.50329 0.01143
1760.21752 0.01143
1758.93176 0.01137
1757.64599 0.01133
1756.36022 0.01136
1755.07445 0.01139
1753.78868 0.01136
1752.50291 0.01125
1751.21714 0.01114
1749.93137 0.01110
1748.64560 0.01112
1747.35984 0.01115
1746.07407 0.01116
1744.78830 0.01114
1743.50253 0.01116
1742.21676 0.01121
1740.93099 0.01127
1739.64522 0.01133
1738.35945 0.01140
1737.07369 0.01146
1735.78792 0.01147
1734.50215 0.01144
1733.21638 0.01141
1731.93061 0.01139
1730.64484 0.01136
1729.35907 0.01135
1728.07330 0.01137
1726.78753 0.01142
1725.50177 0.01149
1724.21600 0.01160
1722.93023 0.01179
1721.64446 0.01204
1720.35869 0.01228
1719.07292 0.01245
1717.78715 0.01259
1716.50138 0.01277
1715.21561 0.01300
1713.92985 0.01326
1712.64408 0.01355
1711.35831 0.01391
1710.07254 0.01437
1708.78677 0.01489
1707.50100 0.01543
1706.21523 0.01595
1704.92946 0.01648
1703.64370 0.01705
1702.35793 0.01766
1701.07216 0.01832
1699.78639 0.01907
1698.50062 0.01986
1697.21485 0.02060
1695.92908 0.02131
1694.64331 0.02202
1693.35754 0.02273
1692.07178 0.02340
1690.78601 0.02411
1689.50024 0.02492
1688.21447 0.02582
1686.92870 0.02670
1685.64293 0.02751
1684.35716 0.02826
1683.07139 0.02902
1681.78563 0.02979
1680.49986 0.03057
1679.21409 0.03138
1677.92832 0.03220
1676.64255 0.03296
1675.35678 0.03369
1674.07101 0.03444
1672.78524 0.03523
1671.49947 0.03604
1670.21371 0.03690
1668.92794 0.03780
1667.64217 0.03871
1666.35640 0.03957
1665.07063 0.04035
1663.78486 0.04108
1662.49909 0.04179
1661.21332 0.04249
1659.92756 0.04314
1658.64179 0.04377
1657.35602 0.04447
1656.07025 0.04524
1654.78448 0.04599
1653.49871 0.04666
1652.21294 0.04722
1650.92717 0.04764
1649.64140 0.04791
1648.35564 0.04807
1647.06987 0.04820
1645.78410 0.04836
1644.49833 0.04847
1643.21256 0.04847
1641.92679 0.04836
1640.64102 0.04822
1639.35525 0.04813
1638.06949 0.04807
1636.78372 0.04798
1635.49795 0.04777
1634.21218 0.04742
1632.92641 0.04695
1631.64064 0.04639
1630.35487 0.04582
1629.06910 0.04526
1627.78333 0.04471
1626.49757 0.04415
1625.21180 0.04356
1623.92603 0.04295
1622.64026 0.04236
1621.35449 0.04181
1620.06872 0.04130
1618.78295 0.04079
1617.49718 0.04026
1616.21142 0.03974
1614.92565 0.03922
1613.63988 0.03868
1612.35411 0.03815
1611.06834 0.03769
1609.78257 0.03736
1608.49680 0.03713
1607.21103 0.03696
1605.92526 0.03677
1604.63950 0.03657
1603.35373 0.03637
1602.06796 0.03620
1600.78219 0.03608
1599.49642 0.03600
1598.21065 0.03600
1596.92488 0.03608
1595.63911 0.03624
1594.35335 0.03645
1593.06758 0.03665
1591.78181 0.03680
1590.49604 0.03691
1589.21027 0.03701
1587.92450 0.03713
1586.63873 0.03730
1585.35296 0.03753
1584.06719 0.03780
1582.78143 0.03813
1581.49566 0.03852
1580.20989 0.03897
1578.92412 0.03945
1577.63835 0.03989
1576.35258 0.04029
1575.06681 0.04071
1573.78104 0.04116
1572.49528 0.04160
1571.20951 0.04202
1569.92374 0.04243
1568.63797 0.04283
1567.35220 0.04324
1566.06643 0.04366
1564.78066 0.04411
1563.49489 0.04460
1562.20912 0.04509
1560.92336 0.04551
1559.63759 0.04584
1558.35182 0.04612
1557.06605 0.04637
1555.78028 0.04656
1554.49451 0.04668
1553.20874 0.04677
1551.92297 0.04682
1550.63721 0.04682
1549.35144 0.04684
1548.06567 0.04690
1546.77990 0.04701
1545.49413 0.04711
1544.20836 0.04715
1542.92259 0.04710
1541.63682 0.04693
1540.35105 0.04666
1539.06529 0.04636
1537.77952 0.04606
1536.49375 0.04574
1535.20798 0.04540
1533.92221 0.04510
1532.63644 0.04491
1531.35067 0.04482
1530.06490 0.04477
1528.77914 0.04472
1527.49337 0.04468
1526.20760 0.04467
1524.92183 0.04471
1523.63606 0.04481
1522.35029 0.04491
1521.06452 0.04503
1519.77875 0.04514
1518.49298 0.04522
1517.20722 0.04527
1515.92145 0.04538
1514.63568 0.04560
1513.34991 0.04594
1512.06414 0.04640
1510.77837 0.04696
1509.49260 0.04751
1508.20683 0.04795
1506.92107 0.04825
1505.63530 0.04844
1504.34953 0.04860
1503.06376 0.04877
1501.77799 0.04901
1500.49222 0.04933
1499.20645 0.04966
1497.92068 0.04991
1496.63491 0.05002
1495.34915 0.05007
1494.06338 0.05011
1492.77761 0.05019
1491.49184 0.05033
1490.20607 0.05053
1488.92030 0.05082
1487.63453 0.05118
1486.34876 0.05160
1485.06299 0.05203
1483.77723 0.05248
1482.49146 0.05293
1481.20569 0.05344
1479.91992 0.05403
1478.63415 0.05470
1477.34838 0.05545
1476.06261 0.05623
1474.77684 0.05699
1473.49108 0.05765
1472.20531 0.05824
1470.91954 0.05875
1469.63377 0.05918
1468.34800 0.05951
1467.06223 0.05979
1465.77646 0.06009
1464.49069 0.06046
1463.20492 0.06090
1461.91916 0.06141
1460.63339 0.06198
1459.34762 0.06257
1458.06185 0.06316
1456.77608 0.06373
1455.49031 0.06429
1454.20454 0.06477
1452.91877 0.06517
1451.63301 0.06548
1450.34724 0.06575
1449.06147 0.06598
1447.77570 0.06618
1446.48993 0.06633
1445.20416 0.06639
1443.91839 0.06638
1442.63262 0.06633
1441.34685 0.06628
1440.06109 0.06621
1438.77532 0.06608
1437.48955 0.06590
1436.20378 0.06575
1434.91801 0.06572
1433.63224 0.06580
1432.34647 0.06599
1431.06070 0.06631
1429.77494 0.06676
1428.48917 0.06732
1427.20340 0.06796
1425.91763 0.06864
1424.63186 0.06938
1423.34609 0.07021
1422.06032 0.07107
1420.77455 0.07190
1419.48878 0.07265
1418.20302 0.07329
1416.91725 0.07380
1415.63148 0.07423
1414.34571 0.07462
1413.05994 0.07501
1411.77417 0.07534
1410.48840 0.07553
1409.20263 0.07556
1407.91687 0.07542
1406.63110 0.07514
1405.34533 0.07474
1404.05956 0.07421
1402.77379 0.07357
1401.48802 0.07280
1400.20225 0.07194
1398.91648 0.07101
1397.63071 0.07004
1396.34495 0.06905
1395.05918 0.06804
1393.77341 0.06702
1392.48764 0.06597
1391.20187 0.06490
1389.91610 0.06381
1388.63033 0.06270
1387.34456 0.06153
1386.05880 0.06031
1384.77303 0.05904
1383.48726 0.05776
1382.20149 0.05652
1380.91572 0.05534
1379.62995 0.05420
1378.34418 0.05306
1377.05841 0.05187
1375.77264 0.05063
1374.48688 0.04935
1373.20111 0.04807
1371.91534 0.04682
1370.62957 0.04561
1369.34380 0.04444
1368.05803 0.04332
1366.77226 0.04226
1365.48649 0.04128
1364.20073 0.04037
1362.91496 0.03951
1361.62919 0.03866
1360.34342 0.03782
1359.05765 0.03704
1357.77188 0.03635
1356.48611 0.03574
1355.20034 0.03520
1353.91457 0.03469
1352.62881 0.03423
1351.34304 0.03386
1350.05727 0.03356
1348.77150 0.03329
1347.48573 0.03299
1346.19996 0.03264
1344.91419 0.03228
1343.62842 0.03197
1342.34266 0.03171
1341.05689 0.03145
1339.77112 0.03117
1338.48535 0.03088
1337.19958 0.03060
1335.91381 0.03034
1334.62804 0.03007
1333.34227 0.02981
1332.05650 0.02953
1330.77074 0.02923
1329.48497 0.02892
1328.19920 0.02860
1326.91343 0.02829
1325.62766 0.02800
1324.34189 0.02771
1323.05612 0.02743
1321.77035 0.02715
1320.48459 0.02689
1319.19882 0.02663
1317.91305 0.02636
1316.62728 0.02611
1315.34151 0.02590
1314.05574 0.02574
1312.76997 0.02560
1311.48420 0.02543
1310.19843 0.02522
1308.91267 0.02496
1307.62690 0.02468
1306.34113 0.02441
1305.05536 0.02418
1303.76959 0.02396
1302.48382 0.02374
1301.19805 0.02352
1299.91228 0.02330
1298.62652 0.02307
1297.34075 0.02284
1296.05498 0.02260
1294.76921 0.02238
1293.48344 0.02222
1292.19767 0.02214
1290.91190 0.02212
1289.62613 0.02211
1288.34036 0.02207
1287.05460 0.02200
1285.76883 0.02193
1284.48306 0.02189
1283.19729 0.02187
1281.91152 0.02185
1280.62575 0.02181
1279.33998 0.02172
1278.05421 0.02159
1276.76845 0.02143
1275.48268 0.02128
1274.19691 0.02114
1272.91114 0.02100
1271.62537 0.02087
1270.33960 0.02076
1269.05383 0.02075
1267.76806 0.02084
1266.48229 0.02099
1265.19653 0.02110
1263.91076 0.02109
1262.62499 0.02098
1261.33922 0.02085
1260.05345 0.02080
1258.76768 0.02085
1257.48191 0.02093
1256.19614 0.02097
1254.91037 0.02095
1253.62461 0.02092
1252.33884 0.02091
1251.05307 0.02094
1249.76730 0.02099
1248.48153 0.02103
1247.19576 0.02101
1245.90999 0.02096
1244.62422 0.02090
1243.33846 0.02084
1242.05269 0.02079
1240.76692 0.02070
1239.48115 0.02059
1238.19538 0.02047
1236.90961 0.02039
1235.62384 0.02033
1234.33807 0.02030
1233.05230 0.02025
1231.76654 0.02018
1230.48077 0.02007
1229.19500 0.01990
1227.90923 0.01968
1226.62346 0.01946
1225.33769 0.01926
1224.05192 0.01909
1222.76615 0.01891
1221.48039 0.01868
1220.19462 0.01840
1218.90885 0.01811
1217.62308 0.01781
1216.33731 0.01753
1215.05154 0.01727
1213.76577 0.01705
1212.48000 0.01691
1211.19423 0.01686
1209.90847 0.01689
1208.62270 0.01695
1207.33693 0.01701
1206.05116 0.01704
1204.76539 0.01704
1203.47962 0.01702
1202.19385 0.01691
1200.90808 0.01670
1199.62232 0.01669
1198.33655 0.01662
1197.05078 0.01649
1195.76501 0.01630
1194.47924 0.01607
1193.19347 0.01588
1191.90770 0.01575
1190.62193 0.01564
1189.33616 0.01552
1188.05040 0.01539
1186.76463 0.01528
1185.47886 0.01522
1184.19309 0.01517
1182.90732 0.01510
1181.62155 0.01501
1180.33578 0.01490
1179.05001 0.01479
1177.76425 0.01474
1176.47848 0.01475
1175.19271 0.01482
1173.90694 0.01490
1172.62117 0.01495
1171.33540 0.01498
1170.04963 0.01500
1168.76386 0.01502
1167.47809 0.01504
1166.19233 0.01508
1164.90656 0.01513
1163.62079 0.01518
1162.33502 0.01521
1161.04925 0.01522
1159.76348 0.01522
1158.47771 0.01525
1157.19194 0.01536
1155.90618 0.01556
1154.62041 0.01578
1153.33464 0.01593
1152.04887 0.01599
1150.76310 0.01599
1149.47733 0.01600
1148.19156 0.01606
1146.90579 0.01621
1145.62002 0.01645
1144.33426 0.01679
1143.04849 0.01717
1141.76272 0.01760
1140.47695 0.01806
1139.19118 0.01858
1137.90541 0.01917
1136.61964 0.01986
1135.33387 0.02065
1134.04811 0.02155
1132.76234 0.02252
1131.47657 0.02355
1130.19080 0.02467
1128.90503 0.02594
1127.61926 0.02740
1126.33349 0.02905
1125.04772 0.03083
1123.76195 0.03272
1122.47619 0.03470
1121.19042 0.03670
1119.90465 0.03869
1118.61888 0.04070
1117.33311 0.04278
1116.04734 0.04492
1114.76157 0.04707
1113.47580 0.04919
1112.19004 0.05123
1110.90427 0.05321
1109.61850 0.05512
1108.33273 0.05697
1107.04696 0.05879
1105.76119 0.06064
1104.47542 0.06251
1103.18965 0.06430
1101.90388 0.06593
1100.61812 0.06739
1099.33235 0.06880
1098.04658 0.07028
1096.76081 0.07185
1095.47504 0.07337
1094.18927 0.07471
1092.90350 0.07582
1091.61773 0.07678
1090.33197 0.07768
1089.04620 0.07860
1087.76043 0.07957
1086.47466 0.08056
1085.18889 0.08153
1083.90312 0.08246
1082.61735 0.08341
1081.33158 0.08448
1080.04581 0.08568
1078.76005 0.08700
1077.47428 0.08842
1076.18851 0.08990
1074.90274 0.09144
1073.61697 0.09302
1072.33120 0.09467
1071.04543 0.09643
1069.75966 0.09825
1068.47390 0.10006
1067.18813 0.10180
1065.90236 0.10351
1064.61659 0.10524
1063.33082 0.10703
1062.04505 0.10886
1060.75928 0.11071
1059.47351 0.11254
1058.18774 0.11430
1056.90198 0.11598
1055.61621 0.11760
1054.33044 0.11922
1053.04467 0.12088
1051.75890 0.12260
1050.47313 0.12436
1049.18736 0.12617
1047.90159 0.12801
1046.61583 0.12984
1045.33006 0.13164
1044.04429 0.13341
1042.75852 0.13519
1041.47275 0.13699
1040.18698 0.13882
1038.90121 0.14069
1037.61544 0.14261
1036.32967 0.14452
1035.04391 0.14640
1033.75814 0.14821
1032.47237 0.14993
1031.18660 0.15151
1029.90083 0.15292
1028.61506 0.15417
1027.32929 0.15530
1026.04352 0.15633
1024.75775 0.15725
1023.47199 0.15802
1022.18622 0.15865
1020.90045 0.15915
1019.61468 0.15952
1018.32891 0.15971
1017.04314 0.15971
1015.75737 0.15952
1014.47160 0.15918
1013.18584 0.15866
1011.90007 0.15788
1010.61430 0.15678
1009.32853 0.15540
1008.04276 0.15384
1006.75699 0.15216
1005.47122 0.15039
1004.18545 0.14849
1002.89968 0.14639
1001.61392 0.14405
1000.32815 0.14150
999.04238 0.13883
997.75661 0.13614
996.47084 0.13343
995.18507 0.13069
993.89930 0.12785
992.61353 0.12489
991.32777 0.12183
990.04200 0.11876
988.75623 0.11578
987.47046 0.11289
986.18469 0.11000
984.89892 0.10702
983.61315 0.10398
982.32738 0.10101
981.04161 0.09820
979.75585 0.09555
978.47008 0.09303
977.18431 0.09063
975.89854 0.08837
974.61277 0.08629
973.32700 0.08443
972.04123 0.08282
970.75546 0.08145
969.46970 0.08035
968.18393 0.07957
966.89816 0.07921
965.61239 0.07931
964.32662 0.07972
963.04085 0.08018
961.75508 0.08045
960.46931 0.08043
959.18354 0.08009
957.89778 0.07942
956.61201 0.07844
955.32624 0.07725
954.04047 0.07598
952.75470 0.07467
951.46893 0.07329
950.18316 0.07178
948.89739 0.07015
947.61163 0.06846
946.32586 0.06681
945.04009 0.06527
943.75432 0.06383
942.46855 0.06243
941.18278 0.06107
939.89701 0.05979
938.61124 0.05859
937.32547 0.05742
936.03971 0.05620
934.75394 0.05497
933.46817 0.05380
932.18240 0.05278
930.89663 0.05188
929.61086 0.05104
928.32509 0.05025
927.03932 0.04953
925.75356 0.04887
924.46779 0.04820
923.18202 0.04746
921.89625 0.04668
920.61048 0.04590
919.32471 0.04512
918.03894 0.04437
916.75317 0.04370
915.46740 0.04320
914.18164 0.04287
912.89587 0.04262
911.61010 0.04228
910.32433 0.04180
909.03856 0.04120
907.75279 0.04056
906.46702 0.03995
905.18125 0.03945
903.89549 0.03906
902.60972 0.03877
901.32395 0.03850
900.03818 0.03817
898.75241 0.03775
897.46664 0.03726
896.18087 0.03672
894.89510 0.03615
893.60933 0.03562
892.32357 0.03522
891.03780 0.03500
889.75203 0.03499
888.46626 0.03517
887.18049 0.03554
885.89472 0.03612
884.60895 0.03702
883.32318 0.03840
882.03742 0.04022
880.75165 0.04218
879.46588 0.04387
878.18011 0.04509
876.89434 0.04597
875.60857 0.04687
874.32280 0.04795
873.03703 0.04909
871.75126 0.04995
870.46550 0.05030
869.17973 0.05006
867.89396 0.04933
866.60819 0.04821
865.32242 0.04683
864.03665 0.04529
862.75088 0.04371
861.46511 0.04216
860.17935 0.04072
858.89358 0.03944
857.60781 0.03836
856.32204 0.03750
855.03627 0.03680
853.75050 0.03621
852.46473 0.03569
851.17896 0.03523
849.89319 0.03483
848.60743 0.03450
847.32166 0.03420
846.03589 0.03392
844.75012 0.03364
843.46435 0.03337
842.17858 0.03311
840.89281 0.03288
839.60704 0.03265
838.32128 0.03240
837.03551 0.03211
835.74974 0.03180
834.46397 0.03152
833.17820 0.03129
831.89243 0.03114
830.60666 0.03105
829.32089 0.03104
828.03512 0.03108
826.74936 0.03108
825.46359 0.03099
824.17782 0.03081
822.89205 0.03064
821.60628 0.03055
820.32051 0.03051
819.03474 0.03043
817.74897 0.03025
816.46321 0.03000
815.17744 0.02978
813.89167 0.02970
812.60590 0.02971
811.32013 0.02971
810.03436 0.02962
808.74859 0.02946
807.46282 0.02935
806.17705 0.02934
804.89129 0.02940
803.60552 0.02948
802.31975 0.02957
801.03398 0.02966
799.74821 0.02972
798.46244 0.02968
797.17667 0.02954
795.89090 0.02940
794.60513 0.02932
793.31937 0.02931
792.03360 0.02932
790.74783 0.02933
789.46206 0.02936
788.17629 0.02941
786.89052 0.02947
785.60475 0.02949
784.31898 0.02945
783.03322 0.02933
781.74745 0.02919
780.46168 0.02910
779.17591 0.02909
777.89014 0.02909
776.60437 0.02903
775.31860 0.02892
774.03283 0.02882
772.74706 0.02877
771.46130 0.02878
770.17553 0.02882
768.88976 0.02886
767.60399 0.02891
766.31822 0.02900
765.03245 0.02918
763.74668 0.02940
762.46091 0.02955
761.17515 0.02956
759.88938 0.02948
758.60361 0.02942
757.31784 0.02943
756.03207 0.02950
754.74630 0.02959
753.46053 0.02969
752.17476 0.02976
750.88899 0.02975
749.60323 0.02966
748.31746 0.02957
747.03169 0.02953
745.74592 0.02957
744.46015 0.02963
743.17438 0.02961
741.88861 0.02948
740.60284 0.02925
739.31708 0.02900
738.03131 0.02884
736.74554 0.02879
735.45977 0.02883
734.17400 0.02892
732.88823 0.02902
731.60246 0.02909
730.31669 0.02915
729.03092 0.02924
727.74516 0.02935
726.45939 0.02939
725.17362 0.02934
723.88785 0.02948
722.60208 0.02923
721.31631 0.02909
720.03054 0.02910
718.74477 0.02915
717.45901 0.02920
716.17324 0.02924
714.88747 0.02925
713.60170 0.02923
712.31593 0.02919
711.03016 0.02916
709.74439 0.02916
708.45862 0.02916
707.17285 0.02918
705.88709 0.02921
704.60132 0.02928
703.31555 0.02937
702.02978 0.02945
700.74401 0.02951
699.45824 0.02950
698.17247 0.02946
696.88670 0.02940
695.60094 0.02937
694.31517 0.02936
693.02940 0.02936
691.74363 0.02938
690.45786 0.02942
689.17209 0.02948
687.88632 0.02951
686.60055 0.02946
685.31478 0.02933
684.02902 0.02915
682.74325 0.02900
681.45748 0.02887
680.17171 0.02875
678.88594 0.02867
677.60017 0.02867
676.31440 0.02880
675.02863 0.02899
673.74287 0.02916
672.45710 0.02927
671.17133 0.02935
669.88556 0.02946
668.59979 0.02953
667.31402 0.02943
666.02825 0.02937
664.74248 0.02927
663.45671 0.02917
662.17095 0.02907
660.88518 0.02897
659.59941 0.02884
658.31364 0.02870
657.02787 0.02855
655.74210 0.02836
654.45633 0.02815
653.17056 0.02795
651.88480 0.02779
650.59903 0.02766
649.31326 0.02757
648.02749 0.02749
646.74172 0.02740
645.45595 0.02732
644.17018 0.02722
642.88441 0.02711
641.59864 0.02699
640.31288 0.02691
639.02711 0.02686
637.74134 0.02685
636.45557 0.02685
635.16980 0.02687
633.88403 0.02697
632.59826 0.02706
631.31249 0.02659
630.02673 0.02568
628.74096 0.02693
627.45519 0.02898
626.16942 0.03166
624.88365 0.03442
623.59788 0.03656
622.31211 0.03811
621.02634 0.03974
619.74057 0.04163
618.45481 0.04303
617.16904 0.04328
615.88327 0.04297
614.59750 0.04358
613.31173 0.04615
612.02596 0.05046
610.74019 0.05542
609.45442 0.05999
608.16866 0.06373
606.88289 0.06689
605.59712 0.07007
604.31135 0.07338
603.02558 0.07600
601.73981 0.07683
600.45404 0.07564
599.16827 0.07326
597.88250 0.07069
596.59674 0.06845
595.31097 0.06662
594.02520 0.06506
592.73943 0.06368
591.45366 0.06250
590.16789 0.06161
588.88212 0.06108
587.59635 0.06099
586.31059 0.06139
585.02482 0.06227
583.73905 0.06354
582.45328 0.06506
581.16751 0.06672
579.88174 0.06844
578.59597 0.07013
577.31020 0.07176
576.02443 0.07338
574.73867 0.07500
573.45290 0.07660
572.16713 0.07819
570.88136 0.07985
569.59559 0.08173
568.30982 0.08386
567.02405 0.08615
565.73828 0.08845
564.45251 0.09056
563.16675 0.09222
561.88098 0.09319
560.59521 0.09337
559.30944 0.09283
558.02367 0.09165
556.73790 0.08977
555.45213 0.08719
554.16636 0.08411
552.88060 0.08089
551.59483 0.07776
550.30906 0.07477
549.02329 0.07186
547.73752 0.06904
546.45175 0.06637
545.16598 0.06398
543.88021 0.06194
542.59444 0.06027
541.30868 0.05886
540.02291 0.05753
538.73714 0.05609
537.45137 0.05451
536.16560 0.05292
534.87983 0.05152
533.59406 0.05039
532.30829 0.04949
531.02253 0.04867
529.73676 0.04781
528.45099 0.04680
527.16522 0.04564
525.87945 0.04444
524.59368 0.04338
523.30791 0.04260
522.02214 0.04209
520.73637 0.04166
519.45061 0.04116
518.16484 0.04052
516.87907 0.03982
515.59330 0.03917
514.30753 0.03856
513.02176 0.03794
511.73599 0.03730
510.45022 0.03668
509.16446 0.03619
507.87869 0.03583
506.59292 0.03552
505.30715 0.03515
504.02138 0.03470
502.73561 0.03421
501.44984 0.03370
500.16407 0.03316
498.87830 0.03262
497.59254 0.03214
496.30677 0.03174
495.02100 0.03138
493.73523 0.03102
492.44946 0.03073
491.16369 0.03055
489.87792 0.03044
488.59215 0.03032
487.30639 0.03013
486.02062 0.02989
484.73485 0.02965
483.44908 0.02945
482.16331 0.02932
480.87754 0.02926
479.59177 0.02926
478.30600 0.02929
477.02023 0.02930
475.73447 0.02930
474.44870 0.02936
473.16293 0.02952
471.87716 0.02975
470.59139 0.02994
469.30562 0.02999
468.01985 0.02989
466.73408 0.02968
465.44832 0.02940
464.16255 0.02907
462.87678 0.02871
461.59101 0.02833
460.30524 0.02792
459.01947 0.02750
457.73370 0.02710
456.44793 0.02673
455.16216 0.02639
453.87640 0.02604
452.59063 0.02566
451.30486 0.02529
450.01909 0.02496
448.73332 0.02467
447.44755 0.02437
446.16178 0.02408
444.87601 0.02382
443.59025 0.02361
442.30448 0.02344
441.01871 0.02330
439.73294 0.02318
438.44717 0.02305
437.16140 0.02289
435.87563 0.02268
434.58986 0.02245
433.30409 0.02225
432.01833 0.02207
430.73256 0.02192
429.44679 0.02176
428.16102 0.02160
426.87525 0.02144
425.58948 0.02128
424.30371 0.02115
423.01794 0.02107
421.73218 0.02103
420.44641 0.02097
419.16064 0.02083
417.87487 0.02058
416.58910 0.02026
415.30333 0.01997
414.01756 0.01975
412.73179 0.01963
411.44602 0.01957
410.16026 0.01955
408.87449 0.01954
407.58872 0.01954
406.30295 0.01955
405.01718 0.01956
403.73141 0.01957
402.44564 0.01956
401.15987 0.01952
399.87411 0.01945
