3997.45528 0.04254
3996.16951 0.04323
3994.88374 0.04368
3993.59798 0.04369
3992.31221 0.04338
3991.02644 0.04296
3989.74067 0.04247
3988.45490 0.04199
3987.16913 0.04169
3985.88336 0.04169
3984.59759 0.04180
3983.31183 0.04169
3982.02606 0.04128
3980.74029 0.04085
3979.45452 0.04077
3978.16875 0.04094
3976.88298 0.04100
3975.59721 0.04086
3974.31144 0.04098
3973.02567 0.04164
3971.73991 0.04250
3970.45414 0.04298
3969.16837 0.04305
3967.88260 0.04327
3966.59683 0.04407
3965.31106 0.04513
3964.02529 0.04559
3962.73952 0.04483
3961.45376 0.04317
3960.16799 0.04172
3958.88222 0.04134
3957.59645 0.04190
3956.31068 0.04249
3955.02491 0.04239
3953.73914 0.04171
3952.45337 0.04112
3951.16760 0.04103
3949.88184 0.04117
3948.59607 0.04103
3947.31030 0.04047
3946.02453 0.03995
3944.73876 0.04005
3943.45299 0.04095
3942.16722 0.04233
3940.88145 0.04369
3939.59569 0.04449
3938.30992 0.04434
3937.02415 0.04332
3935.73838 0.04213
3934.45261 0.04159
3933.16684 0.04192
3931.88107 0.04252
3930.59530 0.04275
3929.30953 0.04255
3928.02377 0.04235
3926.73800 0.04252
3925.45223 0.04303
3924.16646 0.04354
3922.88069 0.04365
3921.59492 0.04321
3920.30915 0.04241
3919.02338 0.04158
3917.73762 0.04086
3916.45185 0.04024
3915.16608 0.03962
3913.88031 0.03901
3912.59454 0.03846
3911.30877 0.03813
3910.02300 0.03815
3908.73723 0.03847
3907.45146 0.03884
3906.16570 0.03913
3904.87993 0.03946
3903.59416 0.03998
3902.30839 0.04057
3901.02262 0.04096
3899.73685 0.04111
3898.45108 0.04124
3897.16531 0.04154
3895.87955 0.04208
3894.59378 0.04281
3893.30801 0.04364
3892.02224 0.04437
3890.73647 0.04467
3889.45070 0.04432
3888.16493 0.04334
3886.87916 0.04207
3885.59339 0.04095
3884.30763 0.04021
3883.02186 0.03983
3881.73609 0.03960
3880.45032 0.03951
3879.16455 0.03975
3877.87878 0.04043
3876.59301 0.04130
3875.30724 0.04192
3874.02148 0.04211
3872.73571 0.04213
3871.44994 0.04228
3870.16417 0.04247
3868.87840 0.04230
3867.59263 0.04165
3866.30686 0.04086
3865.02109 0.04038
3863.73532 0.04019
3862.44956 0.03989
3861.16379 0.03930
3859.87802 0.03867
3858.59225 0.03845
3857.30648 0.03879
3856.02071 0.03951
3854.73494 0.04027
3853.44917 0.04079
3852.16341 0.04088
3850.87764 0.04060
3849.59187 0.04024
3848.30610 0.04017
3847.02033 0.04056
3845.73456 0.04131
3844.44879 0.04211
3843.16302 0.04251
3841.87725 0.04207
3840.59149 0.04067
3839.30572 0.03874
3838.01995 0.03711
3836.73418 0.03650
3835.44841 0.03711
3834.16264 0.03855
3832.87687 0.03999
3831.59110 0.04064
3830.30534 0.04022
3829.01957 0.03920
3827.73380 0.03830
3826.44803 0.03785
3825.16226 0.03777
3823.87649 0.03792
3822.59072 0.03822
3821.30495 0.03857
3820.01918 0.03876
3818.73342 0.03873
3817.44765 0.03855
3816.16188 0.03842
3814.87611 0.03844
3813.59034 0.03860
3812.30457 0.03875
3811.01880 0.03877
3809.73303 0.03875
3808.44726 0.03877
3807.16150 0.03872
3805.87573 0.03842
3804.58996 0.03811
3803.30419 0.03833
3802.01842 0.03926
3800.73265 0.04044
3799.44688 0.04126
3798.16111 0.04152
3796.87535 0.04136
3795.58958 0.04080
3794.30381 0.03972
3793.01804 0.03827
3791.73227 0.03690
3790.44650 0.03605
3789.16073 0.03584
3787.87496 0.03612
3786.58919 0.03668
3785.30343 0.03729
3784.01766 0.03780
3782.73189 0.03821
3781.44612 0.03863
3780.16035 0.03908
3778.87458 0.03932
3777.58881 0.03914
3776.30304 0.03867
3775.01728 0.03823
3773.73151 0.03796
3772.44574 0.03775
3771.15997 0.03746
3769.87420 0.03725
3768.58843 0.03741
3767.30266 0.03796
3766.01689 0.03855
3764.73112 0.03878
3763.44536 0.03861
3762.15959 0.03830
3760.87382 0.03808
3759.58805 0.03795
3758.30228 0.03792
3757.01651 0.03801
3755.73074 0.03817
3754.44497 0.03819
3753.15921 0.03798
3751.87344 0.03776
3750.58767 0.03780
3749.30190 0.03815
3748.01613 0.03865
3746.73036 0.03908
3745.44459 0.03920
3744.15882 0.03878
3742.87305 0.03786
3741.58729 0.03700
3740.30152 0.03687
3739.01575 0.03761
3737.72998 0.03874
3736.44421 0.03954
3735.15844 0.03970
3733.87267 0.03940
3732.58690 0.03896
3731.30114 0.03854
3730.01537 0.03806
3728.72960 0.03737
3727.44383 0.03649
3726.15806 0.03572
3724.87229 0.03546
3723.58652 0.03584
3722.30075 0.03654
3721.01498 0.03706
3719.72922 0.03724
3718.44345 0.03729
3717.15768 0.03738
3715.87191 0.03743
3714.58614 0.03728
3713.30037 0.03686
3712.01460 0.03629
3710.72883 0.03571
3709.44307 0.03532
3708.15730 0.03530
3706.87153 0.03570
3705.58576 0.03633
3704.29999 0.03689
3703.01422 0.03704
3701.72845 0.03659
3700.44268 0.03560
3699.15691 0.03449
3697.87115 0.03377
3696.58538 0.03381
3695.29961 0.03455
3694.01384 0.03558
3692.72807 0.03644
3691.44230 0.03695
3690.15653 0.03710
3688.87076 0.03689
3687.58500 0.03636
3686.29923 0.03586
3685.01346 0.03578
3683.72769 0.03605
3682.44192 0.03622
3681.15615 0.03594
3679.87038 0.03548
3678.58461 0.03542
3677.29884 0.03600
3676.01308 0.03694
3674.72731 0.03781
3673.44154 0.03838
3672.15577 0.03866
3670.87000 0.03876
3669.58423 0.03890
3668.29846 0.03936
3667.01269 0.04007
3665.72693 0.04058
3664.44116 0.04038
3663.15539 0.03951
3661.86962 0.03854
3660.58385 0.03805
3659.29808 0.03821
3658.01231 0.03885
3656.72654 0.03967
3655.44077 0.04034
3654.15501 0.04070
3652.86924 0.04068
3651.58347 0.04023
3650.29770 0.03940
3649.01193 0.03859
3647.72616 0.03828
3646.44039 0.03851
3645.15462 0.03883
3643.86886 0.03886
3642.58309 0.03886
3641.29732 0.03932
3640.01155 0.04033
3638.72578 0.04149
3637.44001 0.04224
3636.15424 0.04219
3634.86847 0.04137
3633.58270 0.04030
3632.29694 0.03968
3631.01117 0.03972
3629.72540 0.04011
3628.43963 0.04050
3627.15386 0.04083
3625.86809 0.04116
3624.58232 0.04139
3623.29655 0.04140
3622.01079 0.04131
3620.72502 0.04129
3619.43925 0.04124
3618.15348 0.04087
3616.86771 0.04021
3615.58194 0.03984
3614.29617 0.04051
3613.01040 0.04233
3611.72463 0.04452
3610.43887 0.04606
3609.15310 0.04659
3607.86733 0.04657
3606.58156 0.04655
3605.29579 0.04665
3604.01002 0.04672
3602.72425 0.04675
3601.43848 0.04689
3600.15272 0.04730
3598.86695 0.04796
3597.58118 0.04864
3596.29541 0.04898
3595.00964 0.04877
3593.72387 0.04824
3592.43810 0.04793
3591.15233 0.04814
3589.86656 0.04857
3588.58080 0.04864
3587.29503 0.04820
3586.00926 0.04778
3584.72349 0.04798
3583.43772 0.04873
3582.15195 0.04934
3580.86618 0.04926
3579.58041 0.04860
3578.29464 0.04796
3577.00888 0.04789
3575.72311 0.04844
3574.43734 0.04931
3573.15157 0.05015
3571.86580 0.05081
3570.58003 0.05126
3569.29426 0.05151
3568.00849 0.05151
3566.72273 0.05132
3565.43696 0.05119
3564.15119 0.05126
3562.86542 0.05147
3561.57965 0.05156
3560.29388 0.05145
3559.00811 0.05137
3557.72234 0.05167
3556.43657 0.05237
3555.15081 0.05314
3553.86504 0.05366
3552.57927 0.05399
3551.29350 0.05432
3550.00773 0.05453
3548.72196 0.05428
3547.43619 0.05353
3546.15042 0.05277
3544.86466 0.05244
3543.57889 0.05244
3542.29312 0.05242
3541.00735 0.05237
3539.72158 0.05268
3538.43581 0.05359
3537.15004 0.05476
3535.86427 0.05557
3534.57850 0.05558
3533.29274 0.05494
3532.00697 0.05419
3530.72120 0.05388
3529.43543 0.05416
3528.14966 0.05478
3526.86389 0.05531
3525.57812 0.05551
3524.29235 0.05549
3523.00659 0.05547
3521.72082 0.05556
3520.43505 0.05570
3519.14928 0.05583
3517.86351 0.05590
3516.57774 0.05585
3515.29197 0.05568
3514.00620 0.05557
3512.72043 0.05565
3511.43467 0.05582
3510.14890 0.05586
3508.86313 0.05577
3507.57736 0.05575
3506.29159 0.05597
3505.00582 0.05641
3503.72005 0.05690
3502.43428 0.05728
3501.14852 0.05750
3499.86275 0.05775
3498.57698 0.05822
3497.29121 0.05877
3496.00544 0.05904
3494.71967 0.05889
3493.43390 0.05860
3492.14813 0.05847
3490.86236 0.05860
3489.57660 0.05893
3488.29083 0.05944
3487.00506 0.06010
3485.71929 0.06082
3484.43352 0.06141
3483.14775 0.06167
3481.86198 0.06154
3480.57621 0.06113
3479.29045 0.06070
3478.00468 0.06047
3476.71891 0.06049
3475.43314 0.06066
3474.14737 0.06088
3472.86160 0.06110
3471.57583 0.06125
3470.29006 0.06131
3469.00429 0.06139
3467.71853 0.06165
3466.43276 0.06207
3465.14699 0.06255
3463.86122 0.06300
3462.57545 0.06339
3461.28968 0.06355
3460.00391 0.06332
3458.71814 0.06270
3457.43238 0.06191
3456.14661 0.06116
3454.86084 0.06063
3453.57507 0.06046
3452.28930 0.06060
3451.00353 0.06077
3449.71776 0.06080
3448.43199 0.06081
3447.14622 0.06111
3445.86046 0.06176
3444.57469 0.06254
3443.28892 0.06317
3442.00315 0.06353
3440.71738 0.06362
3439.43161 0.06343
3438.14584 0.06298
3436.86007 0.06238
3435.57431 0.06198
3434.28854 0.06216
3433.00277 0.06305
3431.71700 0.06432
3430.43123 0.06545
3429.14546 0.06603
3427.85969 0.06595
3426.57392 0.06538
3425.28815 0.06467
3424.00239 0.06419
3422.71662 0.06401
3421.43085 0.06398
3420.14508 0.06398
3418.85931 0.06405
3417.57354 0.06431
3416.28777 0.06473
3415.00200 0.06517
3413.71624 0.06553
3412.43047 0.06576
3411.14470 0.06584
3409.85893 0.06579
3408.57316 0.06574
3407.28739 0.06595
3406.00162 0.06651
3404.71585 0.06722
3403.43008 0.06769
3402.14432 0.06778
3400.85855 0.06780
3399.57278 0.06810
3398.28701 0.06860
3397.00124 0.06899
3395.71547 0.06906
3394.42970 0.06886
3393.14393 0.06860
3391.85817 0.06836
3390.57240 0.06804
3389.28663 0.06755
3388.00086 0.06700
3386.71509 0.06663
3385.42932 0.06658
3384.14355 0.06685
3382.85778 0.06731
3381.57201 0.06779
3380.28625 0.06808
3379.00048 0.06810
3377.71471 0.06782
3376.42894 0.06724
3375.14317 0.06635
3373.85740 0.06534
3372.57163 0.06475
3371.28586 0.06508
3370.00010 0.06625
3368.71433 0.06755
3367.42856 0.06824
3366.14279 0.06820
3364.85702 0.06777
3363.57125 0.06740
3362.28548 0.06730
3360.99971 0.06746
3359.71394 0.06772
3358.42818 0.06786
3357.14241 0.06777
3355.85664 0.06761
3354.57087 0.06765
3353.28510 0.06796
3351.99933 0.06832
3350.71356 0.06844
3349.42779 0.06823
3348.14202 0.06783
3346.85626 0.06735
3345.57049 0.06685
3344.28472 0.06647
3342.99895 0.06638
3341.71318 0.06663
3340.42741 0.06701
3339.14164 0.06723
3337.85587 0.06710
3336.57011 0.06675
3335.28434 0.06644
3333.99857 0.06634
3332.71280 0.06643
3331.42703 0.06660
3330.14126 0.06677
3328.85549 0.06692
3327.56972 0.06701
3326.28395 0.06696
3324.99819 0.06685
3323.71242 0.06688
3322.42665 0.06721
3321.14088 0.06771
3319.85511 0.06803
3318.56934 0.06795
3317.28357 0.06757
3315.99780 0.06722
3314.71204 0.06710
3313.42627 0.06716
3312.14050 0.06719
3310.85473 0.06706
3309.56896 0.06686
3308.28319 0.06678
3306.99742 0.06691
3305.71165 0.06723
3304.42588 0.06764
3303.14012 0.06804
3301.85435 0.06831
3300.56858 0.06830
3299.28281 0.06799
3297.99704 0.06754
3296.71127 0.06710
3295.42550 0.06671
3294.13973 0.06635
3292.85397 0.06610
3291.56820 0.06625
3290.28243 0.06687
3288.99666 0.06761
3287.71089 0.06789
3286.42512 0.06749
3285.13935 0.06668
3283.85358 0.06589
3282.56781 0.06541
3281.28205 0.06543
3279.99628 0.06594
3278.71051 0.06663
3277.42474 0.06703
3276.13897 0.06697
3274.85320 0.06664
3273.56743 0.06639
3272.28166 0.06648
3270.99590 0.06702
3269.71013 0.06784
3268.42436 0.06848
3267.13859 0.06851
3265.85282 0.06794
3264.56705 0.06713
3263.28128 0.06646
3261.99551 0.06607
3260.70974 0.06589
3259.42398 0.06584
3258.13821 0.06576
3256.85244 0.06546
3255.56667 0.06489
3254.28090 0.06423
3252.99513 0.06387
3251.70936 0.06407
3250.42359 0.06479
3249.13783 0.06560
3247.85206 0.06601
3246.56629 0.06575
3245.28052 0.06499
3243.99475 0.06422
3242.70898 0.06389
3241.42321 0.06409
3240.13744 0.06446
3238.85167 0.06458
3237.56591 0.06429
3236.28014 0.06387
3234.99437 0.06372
3233.70860 0.06403
3232.42283 0.06453
3231.13706 0.06487
3229.85129 0.06492
3228.56552 0.06478
3227.27976 0.06455
3225.99399 0.06430
3224.70822 0.06412
3223.42245 0.06410
3222.13668 0.06425
3220.85091 0.06442
3219.56514 0.06458
3218.27937 0.06478
3216.99360 0.06508
3215.70784 0.06533
3214.42207 0.06536
3213.13630 0.06517
3211.85053 0.06498
3210.56476 0.06495
3209.27899 0.06505
3207.99322 0.06510
3206.70745 0.06490
3205.42169 0.06435
3204.13592 0.06353
3202.85015 0.06272
3201.56438 0.06222
3200.27861 0.06216
3198.99284 0.06242
3197.70707 0.06281
3196.42130 0.06319
3195.13553 0.06348
3193.84977 0.06365
3192.56400 0.06367
3191.27823 0.06345
3189.99246 0.06298
3188.70669 0.06242
3187.42092 0.06207
3186.13515 0.06213
3184.84938 0.06252
3183.56362 0.06303
3182.27785 0.06351
3180.99208 0.06378
3179.70631 0.06359
3178.42054 0.06277
3177.13477 0.06157
3175.84900 0.06052
3174.56323 0.06002
3173.27746 0.06009
3171.99170 0.06051
3170.70593 0.06103
3169.42016 0.06144
3168.13439 0.06155
3166.84862 0.06135
3165.56285 0.06111
3164.27708 0.06106
3162.99131 0.06120
3161.70555 0.06130
3160.41978 0.06121
3159.13401 0.06106
3157.84824 0.06108
3156.56247 0.06134
3155.27670 0.06165
3153.99093 0.06172
3152.70516 0.06142
3151.41939 0.06088
3150.13363 0.06041
3148.84786 0.06028
3147.56209 0.06041
3146.27632 0.06055
3144.99055 0.06052
3143.70478 0.06038
3142.41901 0.06024
3141.13324 0.06013
3139.84748 0.05999
3138.56171 0.05981
3137.27594 0.05973
3135.99017 0.05992
3134.70440 0.06042
3133.41863 0.06100
3132.13286 0.06127
3130.84709 0.06105
3129.56132 0.06057
3128.27556 0.06021
3126.98979 0.06015
3125.70402 0.06025
3124.41825 0.06027
3123.13248 0.05997
3121.84671 0.05923
3120.56094 0.05816
3119.27517 0.05708
3117.98940 0.05630
3116.70364 0.05590
3115.41787 0.05568
3114.13210 0.05557
3112.84633 0.05569
3111.56056 0.05624
3110.27479 0.05711
3108.98902 0.05795
3107.70325 0.05844
3106.41749 0.05855
3105.13172 0.05836
3103.84595 0.05795
3102.56018 0.05741
3101.27441 0.05691
3099.98864 0.05667
3098.70287 0.05669
3097.41710 0.05684
3096.13133 0.05693
3094.84557 0.05682
3093.55980 0.05648
3092.27403 0.05593
3090.98826 0.05534
3089.70249 0.05496
3088.41672 0.05498
3087.13095 0.05537
3085.84518 0.05587
3084.55942 0.05613
3083.27365 0.05600
3081.98788 0.05559
3080.70211 0.05517
3079.41634 0.05487
3078.13057 0.05467
3076.84480 0.05448
3075.55903 0.05437
3074.27326 0.05446
3072.98750 0.05473
3071.70173 0.05504
3070.41596 0.05529
3069.13019 0.05545
3067.84442 0.05556
3066.55865 0.05562
3065.27288 0.05562
3063.98711 0.05553
3062.70135 0.05539
3061.41558 0.05530
3060.12981 0.05538
3058.84404 0.05559
3057.55827 0.05576
3056.27250 0.05569
3054.98673 0.05535
3053.70096 0.05487
3052.41519 0.05447
3051.12943 0.05432
3049.84366 0.05447
3048.55789 0.05480
3047.27212 0.05505
3045.98635 0.05501
3044.70058 0.05468
3043.41481 0.05429
3042.12904 0.05402
3040.84328 0.05392
3039.55751 0.05392
3038.27174 0.05394
3036.98597 0.05395
3035.70020 0.05395
3034.41443 0.05396
3033.12866 0.05394
3031.84289 0.05384
3030.55712 0.05367
3029.27136 0.05360
3027.98559 0.05374
3026.69982 0.05399
3025.41405 0.05405
3024.12828 0.05369
3022.84251 0.05301
3021.55674 0.05232
3020.27097 0.05189
3018.98521 0.05176
3017.69944 0.05176
3016.41367 0.05173
3015.12790 0.05166
3013.84213 0.05160
3012.55636 0.05156
3011.27059 0.05150
3009.98482 0.05134
3008.69905 0.05112
3007.41329 0.05096
3006.12752 0.05094
3004.84175 0.05101
3003.55598 0.05113
3002.27021 0.05131
3000.98444 0.05159
2999.69867 0.05188
2998.41290 0.05193
2997.12714 0.05166
2995.84137 0.05127
2994.55560 0.05108
2993.26983 0.05117
2991.98406 0.05143
2990.69829 0.05178
2989.41252 0.05217
2988.12675 0.05259
2986.84098 0.05299
2985.55522 0.05335
2984.26945 0.05363
2982.98368 0.05373
2981.69791 0.05364
2980.41214 0.05360
2979.12637 0.05395
2977.84060 0.05482
2976.55483 0.05604
2975.26907 0.05728
2973.98330 0.05828
2972.69753 0.05900
2971.41176 0.05955
2970.12599 0.06013
2968.84022 0.06087
2967.55445 0.06181
2966.26868 0.06295
2964.98291 0.06429
2963.69715 0.06584
2962.41138 0.06752
2961.12561 0.06918
2959.83984 0.07066
2958.55407 0.07184
2957.26830 0.07273
2955.98253 0.07336
2954.69676 0.07370
2953.41100 0.07367
2952.12523 0.07325
2950.83946 0.07263
2949.55369 0.07213
2948.26792 0.07195
2946.98215 0.07202
2945.69638 0.07222
2944.41061 0.07248
2943.12484 0.07271
2941.83908 0.07283
2940.55331 0.07288
2939.26754 0.07309
2937.98177 0.07368
2936.69600 0.07461
2935.41023 0.07568
2934.12446 0.07679
2932.83869 0.07791
2931.55293 0.07899
2930.26716 0.07988
2928.98139 0.08047
2927.69562 0.08079
2926.40985 0.08099
2925.12408 0.08119
2923.83831 0.08136
2922.55254 0.08133
2921.26677 0.08091
2919.98101 0.08009
2918.69524 0.07909
2917.40947 0.07812
2916.12370 0.07726
2914.83793 0.07641
2913.55216 0.07549
2912.26639 0.07459
2910.98062 0.07383
2909.69486 0.07321
2908.40909 0.07262
2907.12332 0.07200
2905.83755 0.07139
2904.55178 0.07085
2903.26601 0.07031
2901.98024 0.06963
2900.69447 0.06878
2899.40870 0.06791
2898.12294 0.06724
2896.83717 0.06682
2895.55140 0.06658
2894.26563 0.06637
2892.97986 0.06605
2891.69409 0.06548
2890.40832 0.06465
2889.12255 0.06372
2887.83678 0.06298
2886.55102 0.06254
2885.26525 0.06229
2883.97948 0.06202
2882.69371 0.06168
2881.40794 0.06136
2880.12217 0.06118
2878.83640 0.06121
2877.55063 0.06156
2876.26487 0.06218
2874.97910 0.06282
2873.69333 0.06326
2872.40756 0.06350
2871.12179 0.06369
2869.83602 0.06386
2868.55025 0.06390
2867.26448 0.06381
2865.97871 0.06375
2864.69295 0.06387
2863.40718 0.06411
2862.12141 0.06429
2860.83564 0.06425
2859.54987 0.06408
2858.26410 0.06387
2856.97833 0.06368
2855.69256 0.06346
2854.40680 0.06318
2853.12103 0.06275
2851.83526 0.06206
2850.54949 0.06109
2849.26372 0.05999
2847.97795 0.05889
2846.69218 0.05791
2845.40641 0.05709
2844.12064 0.05640
2842.83488 0.05571
2841.54911 0.05489
2840.26334 0.05401
2838.97757 0.05318
2837.69180 0.05241
2836.40603 0.05167
2835.12026 0.05097
2833.83449 0.05034
2832.54873 0.04974
2831.26296 0.04916
2829.97719 0.04862
2828.69142 0.04815
2827.40565 0.04774
2826.11988 0.04727
2824.83411 0.04667
2823.54834 0.04601
2822.26257 0.04548
2820.97681 0.04520
2819.69104 0.04515
2818.40527 0.04516
2817.11950 0.04508
2815.83373 0.04484
2814.54796 0.04452
2813.26219 0.04423
2811.97642 0.04402
2810.69066 0.04386
2809.40489 0.04367
2808.11912 0.04344
2806.83335 0.04319
2805.54758 0.04294
2804.26181 0.04280
2802.97604 0.04279
2801.69027 0.04283
2800.40450 0.04277
2799.11874 0.04255
2797.83297 0.04222
2796.54720 0.04194
2795.26143 0.04182
2793.97566 0.04186
2792.68989 0.04190
2791.40412 0.04177
2790.11835 0.04138
2788.83259 0.04086
2787.54682 0.04049
2786.26105 0.04045
2784.97528 0.04064
2783.68951 0.04076
2782.40374 0.04068
2781.11797 0.04043
2779.83220 0.04016
2778.54643 0.03998
2777.26067 0.03996
2775.97490 0.04011
2774.68913 0.04036
2773.40336 0.04059
2772.11759 0.04071
2770.83182 0.04077
2769.54605 0.04079
2768.26028 0.04075
2766.97452 0.04059
2765.68875 0.04035
2764.40298 0.04010
2763.11721 0.03986
2761.83144 0.03961
2760.54567 0.03940
2759.25990 0.03933
2757.97413 0.03943
2756.68836 0.03952
2755.40260 0.03944
2754.11683 0.03921
2752.83106 0.03899
2751.54529 0.03898
2750.25952 0.03922
2748.97375 0.03956
2747.68798 0.03978
2746.40221 0.03977
2745.11645 0.03953
2743.83068 0.03923
2742.54491 0.03906
2741.25914 0.03903
2739.97337 0.03902
2738.68760 0.03887
2737.40183 0.03855
2736.11606 0.03822
2734.83029 0.03805
2733.54453 0.03807
2732.25876 0.03818
2730.97299 0.03824
2729.68722 0.03819
2728.40145 0.03805
2727.11568 0.03791
2725.82991 0.03785
2724.54414 0.03790
2723.25838 0.03797
2721.97261 0.03798
2720.68684 0.03790
2719.40107 0.03781
2718.11530 0.03778
2716.82953 0.03782
2715.54376 0.03779
2714.25799 0.03756
2712.97222 0.03710
2711.68646 0.03659
2710.40069 0.03625
2709.11492 0.03619
2707.82915 0.03633
2706.54338 0.03651
2705.25761 0.03664
2703.97184 0.03667
2702.68607 0.03662
2701.40031 0.03652
2700.11454 0.03641
2698.82877 0.03635
2697.54300 0.03637
2696.25723 0.03640
2694.97146 0.03633
2693.68569 0.03618
2692.39992 0.03602
2691.11415 0.03593
2689.82839 0.03584
2688.54262 0.03572
2687.25685 0.03566
2685.97108 0.03570
2684.68531 0.03577
2683.39954 0.03572
2682.11377 0.03551
2680.82800 0.03519
2679.54224 0.03488
2678.25647 0.03472
2676.97070 0.03481
2675.68493 0.03516
2674.39916 0.03559
2673.11339 0.03582
2671.82762 0.03573
2670.54185 0.03547
2669.25608 0.03530
2667.97032 0.03539
2666.68455 0.03565
2665.39878 0.03585
2664.11301 0.03581
2662.82724 0.03561
2661.54147 0.03543
2660.25570 0.03529
2658.96993 0.03502
2657.68417 0.03454
2656.39840 0.03402
2655.11263 0.03374
2653.82686 0.03377
2652.54109 0.03398
2651.25532 0.03427
2649.96955 0.03454
2648.68378 0.03471
2647.39801 0.03465
2646.11225 0.03441
2644.82648 0.03414
2643.54071 0.03400
2642.25494 0.03396
2640.96917 0.03392
2639.68340 0.03378
2638.39763 0.03350
2637.11186 0.03306
2635.82609 0.03251
2634.54033 0.03200
2633.25456 0.03168
2631.96879 0.03158
2630.68302 0.03165
2629.39725 0.03184
2628.11148 0.03204
2626.82571 0.03216
2625.53994 0.03210
2624.25418 0.03189
2622.96841 0.03158
2621.68264 0.03125
2620.39687 0.03098
2619.11110 0.03082
2617.82533 0.03070
2616.53956 0.03049
2615.25379 0.03017
2613.96802 0.02985
2612.68226 0.02972
2611.39649 0.02985
2610.11072 0.03020
2608.82495 0.03064
2607.53918 0.03094
2606.25341 0.03090
2604.96764 0.03038
2603.68187 0.02954
2602.39611 0.02875
2601.11034 0.02838
2599.82457 0.02847
2598.53880 0.02882
2597.25303 0.02915
2595.96726 0.02933
2594.68149 0.02932
2593.39572 0.02911
2592.10995 0.02879
2590.82419 0.02845
2589.53842 0.02819
2588.25265 0.02806
2586.96688 0.02804
2585.68111 0.02810
2584.39534 0.02815
2583.10957 0.02812
2581.82380 0.02810
2580.53804 0.02819
2579.25227 0.02836
2577.96650 0.02848
2576.68073 0.02850
2575.39496 0.02833
2574.10919 0.02789
2572.82342 0.02719
2571.53765 0.02646
2570.25188 0.02594
2568.96612 0.02572
2567.68035 0.02578
2566.39458 0.02614
2565.10881 0.02671
2563.82304 0.02728
2562.53727 0.02766
2561.25150 0.02777
2559.96573 0.02766
2558.67997 0.02736
2557.39420 0.02701
2556.10843 0.02688
2554.82266 0.02719
2553.53689 0.02782
2552.25112 0.02835
2550.96535 0.02841
2549.67958 0.02801
2548.39381 0.02751
2547.10805 0.02722
2545.82228 0.02714
2544.53651 0.02706
2543.25074 0.02682
2541.96497 0.02641
2540.67920 0.02593
2539.39343 0.02545
2538.10766 0.02511
2536.82190 0.02510
2535.53613 0.02548
2534.25036 0.02608
2532.96459 0.02653
2531.67882 0.02656
2530.39305 0.02624
2529.10728 0.02576
2527.82151 0.02526
2526.53574 0.02486
2525.24998 0.02476
2523.96421 0.02511
2522.67844 0.02573
2521.39267 0.02617
2520.10690 0.02607
2518.82113 0.02550
2517.53536 0.02482
2516.24959 0.02432
2514.96383 0.02407
2513.67806 0.02406
2512.39229 0.02428
2511.10652 0.02475
2509.82075 0.02540
2508.53498 0.02603
2507.24921 0.02649
2505.96344 0.02670
2504.67767 0.02668
2503.39191 0.02641
2502.10614 0.02584
2500.82037 0.02515
2499.53460 0.02472
2498.24883 0.02479
2496.96306 0.02516
2495.67729 0.02547
2494.39152 0.02552
2493.10576 0.02543
2491.81999 0.02537
2490.53422 0.02541
2489.24845 0.02553
2487.96268 0.02564
2486.67691 0.02562
2485.39114 0.02546
2484.10537 0.02536
2482.81960 0.02543
2481.53384 0.02551
2480.24807 0.02537
2478.96230 0.02501
2477.67653 0.02464
2476.39076 0.02449
2475.10499 0.02461
2473.81922 0.02486
2472.53345 0.02503
2471.24769 0.02494
2469.96192 0.02462
2468.67615 0.02434
2467.39038 0.02423
2466.10461 0.02417
2464.81884 0.02395
2463.53307 0.02367
2462.24730 0.02367
2460.96153 0.02412
2459.67577 0.02469
2458.39000 0.02488
2457.10423 0.02456
2455.81846 0.02411
2454.53269 0.02397
2453.24692 0.02419
2451.96115 0.02454
2450.67538 0.02477
2449.38962 0.02483
2448.10385 0.02479
2446.81808 0.02468
2445.53231 0.02444
2444.24654 0.02407
2442.96077 0.02375
2441.67500 0.02376
2440.38923 0.02419
2439.10346 0.02478
2437.81770 0.02514
2436.53193 0.02512
2435.24616 0.02487
2433.96039 0.02460
2432.67462 0.02435
2431.38885 0.02407
2430.10308 0.02372
2428.81731 0.02338
2427.53155 0.02317
2426.24578 0.02311
2424.96001 0.02310
2423.67424 0.02302
2422.38847 0.02282
2421.10270 0.02256
2419.81693 0.02232
2418.53116 0.02219
2417.24539 0.02218
2415.95963 0.02221
2414.67386 0.02212
2413.38809 0.02185
2412.10232 0.02155
2410.81655 0.02146
2409.53078 0.02170
2408.24501 0.02212
2406.95924 0.02249
2405.67347 0.02262
2404.38771 0.02249
2403.10194 0.02220
2401.81617 0.02187
2400.53040 0.02159
2399.24463 0.02154
2397.95886 0.02160
2396.67309 0.02172
2395.38732 0.02181
2394.10156 0.02186
2392.81579 0.02196
2391.53002 0.02222
2390.24425 0.02259
2388.95848 0.02286
2387.67271 0.02289
2386.38694 0.02277
2385.10117 0.02273
2383.81540 0.02288
2382.52964 0.02311
2381.24387 0.02318
2379.95810 0.02308
2378.67233 0.02292
2377.38656 0.02293
2376.10079 0.02314
2374.81502 0.02331
2373.52925 0.02312
2372.24349 0.02271
2370.95772 0.02242
2369.67195 0.02233
2368.38618 0.02243
2367.10041 0.02265
2365.81464 0.02296
2364.52887 0.02327
2363.24310 0.02347
2361.95733 0.02351
2360.67157 0.02337
2359.38580 0.02311
2358.10003 0.02280
2356.81426 0.02257
2355.52849 0.02262
2354.24272 0.02296
2352.95695 0.02334
2351.67118 0.02340
2350.38542 0.02325
2349.09965 0.02316
2347.81388 0.02315
2346.52811 0.02317
2345.24234 0.02331
2343.95657 0.02354
2342.67080 0.02385
2341.38503 0.02365
2340.09926 0.02315
2338.81350 0.02298
2337.52773 0.02318
2336.24196 0.02327
2334.95619 0.02337
2333.67042 0.02356
2332.38465 0.02378
2331.09888 0.02350
2329.81311 0.02351
2328.52735 0.02380
2327.24158 0.02401
2325.95581 0.02429
2324.67004 0.02448
2323.38427 0.02453
2322.09850 0.02417
2320.81273 0.02374
2319.52696 0.02343
2318.24119 0.02327
2316.95543 0.02316
2315.66966 0.02307
2314.38389 0.02301
2313.09812 0.02287
2311.81235 0.02258
2310.52658 0.02220
2309.24081 0.02184
2307.95504 0.02157
2306.66928 0.02146
2305.38351 0.02142
2304.09774 0.02138
2302.81197 0.02131
2301.52620 0.02131
2300.24043 0.02146
2298.95466 0.02169
2297.66889 0.02180
2296.38312 0.02168
2295.09736 0.02143
2293.81159 0.02128
2292.52582 0.02134
2291.24005 0.02149
2289.95428 0.02147
2288.66851 0.02110
2287.38274 0.02053
2286.09697 0.02002
2284.81121 0.01980
2283.52544 0.01983
2282.23967 0.01996
2280.95390 0.02008
2279.66813 0.02013
2278.38236 0.02011
2277.09659 0.01999
2275.81082 0.01970
2274.52505 0.01915
2273.23929 0.01840
2271.95352 0.01766
2270.66775 0.01714
2269.38198 0.01689
2268.09621 0.01673
2266.81044 0.01654
2265.52467 0.01631
2264.23890 0.01621
2262.95314 0.01636
2261.66737 0.01681
2260.38160 0.01749
2259.09583 0.01817
2257.81006 0.01857
2256.52429 0.01855
2255.23852 0.01825
2253.95275 0.01795
2252.66698 0.01775
2251.38122 0.01757
2250.09545 0.01721
2248.80968 0.01660
2247.52391 0.01606
2246.23814 0.01550
2244.95237 0.01512
2243.66660 0.01521
2242.38083 0.01579
2241.09507 0.01664
2239.80930 0.01743
2238.52353 0.01792
2237.23776 0.01795
2235.95199 0.01754
2234.66622 0.01684
2233.38045 0.01613
2232.09468 0.01560
2230.80891 0.01518
2229.52315 0.01480
2228.23738 0.01447
2226.95161 0.01435
2225.66584 0.01444
2224.38007 0.01454
2223.09430 0.01437
2221.80853 0.01394
2220.52276 0.01360
2219.23700 0.01364
2217.95123 0.01395
2216.66546 0.01412
2215.37969 0.01389
2214.09392 0.01320
2212.80815 0.01213
2211.52238 0.01098
2210.23661 0.01037
2208.95084 0.01081
2207.66508 0.01214
2206.37931 0.01356
2205.09354 0.01432
2203.80777 0.01424
2202.52200 0.01365
2201.23623 0.01310
2199.95046 0.01284
2198.66469 0.01271
2197.37893 0.01239
2196.09316 0.01183
2194.80739 0.01123
2193.52162 0.01066
2192.23585 0.01016
2190.95008 0.00992
2189.66431 0.01027
2188.37854 0.01131
2187.09277 0.01258
2185.80701 0.01337
2184.52124 0.01321
2183.23547 0.01220
2181.94970 0.01083
2180.66393 0.00966
2179.37816 0.00913
2178.09239 0.00936
2176.80662 0.01000
2175.52085 0.01043
2174.23509 0.01031
2172.94932 0.00980
2171.66355 0.00928
2170.37778 0.00894
2169.09201 0.00873
2167.80624 0.00836
2166.52047 0.00763
2165.23470 0.00686
2163.94894 0.00681
2162.66317 0.00760
2161.37740 0.00827
2160.09163 0.00783
2158.80586 0.00661
2157.52009 0.00566
2156.23432 0.00523
2154.94855 0.00473
2153.66278 0.00398
2152.37702 0.00357
2151.09125 0.00404
2149.80548 0.00514
2148.51971 0.00602
2147.23394 0.00613
2145.94817 0.00578
2144.66240 0.00573
2143.37663 0.00635
2142.09087 0.00719
2140.80510 0.00759
2139.51933 0.00741
2138.23356 0.00708
2136.94779 0.00697
2135.66202 0.00709
2134.37625 0.00733
2133.09048 0.00770
2131.80471 0.00826
2130.51895 0.00888
2129.23318 0.00943
2127.94741 0.00984
2126.66164 0.01015
2125.37587 0.01041
2124.09010 0.01063
2122.80433 0.01083
2121.51856 0.01102
2120.23280 0.01115
2118.94703 0.01117
2117.66126 0.01121
2116.37549 0.01146
2115.08972 0.01201
2113.80395 0.01256
2112.51818 0.01274
2111.23241 0.01244
2109.94664 0.01192
2108.66088 0.01151
2107.37511 0.01135
2106.08934 0.01143
2104.80357 0.01159
2103.51780 0.01159
2102.23203 0.01136
2100.94626 0.01118
2099.66049 0.01267
2098.37473 0.01359
2097.08896 0.01356
2095.80319 0.01284
2094.51742 0.01172
2093.23165 0.01068
2091.94588 0.01011
2090.66011 0.01009
2089.37434 0.01044
2088.08857 0.01093
2086.80281 0.01142
2085.51704 0.01185
2084.23127 0.01223
2082.94550 0.01256
2081.65973 0.01272
2080.37396 0.01251
2079.08819 0.01191
2077.80242 0.01126
2076.51666 0.01096
2075.23089 0.01108
2073.94512 0.01124
2072.65935 0.01095
2071.37358 0.01010
2070.08781 0.00898
2068.80204 0.00809
2067.51627 0.00776
2066.23050 0.00798
2064.94474 0.00843
2063.65897 0.00873
2062.37320 0.00867
2061.08743 0.00819
2059.80166 0.00742
2058.51589 0.00662
2057.23012 0.00610
2055.94435 0.00608
2054.65859 0.00666
2053.37282 0.00764
2052.08705 0.00855
2050.80128 0.00890
2049.51551 0.00855
2048.22974 0.00779
2046.94397 0.00702
2045.65820 0.00637
2044.37243 0.00585
2043.08667 0.00556
2041.80090 0.00557
2040.51513 0.00579
2039.22936 0.00617
2037.94359 0.00680
2036.65782 0.00760
2035.37205 0.00815
2034.08628 0.00804
2032.80052 0.00734
2031.51475 0.00659
2030.22898 0.00623
2028.94321 0.00631
2027.65744 0.00656
2026.37167 0.00667
2025.08590 0.00648
2023.80013 0.00588
2022.51436 0.00486
2021.22860 0.00359
2019.94283 0.00243
2018.65706 0.00171
2017.37129 0.00158
2016.08552 0.00200
2014.79975 0.00282
2013.51398 0.00395
2012.22821 0.00532
2010.94245 0.00678
2009.65668 0.00811
2008.37091 0.00904
2007.08514 0.00932
2005.79937 0.00891
2004.51360 0.00802
2003.22783 0.00695
2001.94206 0.00594
2000.65629 0.00512
1999.37053 0.00464
1998.08476 0.00471
1996.79899 0.00536
1995.51322 0.00624
1994.22745 0.00678
1992.94168 0.00671
1991.65591 0.00638
1990.37014 0.00627
1989.08438 0.00641
1987.79861 0.00644
1986.51284 0.00627
1985.22707 0.00629
1983.94130 0.00702
1982.65553 0.00849
1981.36976 0.01024
1980.08399 0.01178
1978.79822 0.01273
1977.51246 0.01300
1976.22669 0.01267
1974.94092 0.01205
1973.65515 0.01153
1972.36938 0.01133
1971.08361 0.01125
1969.79784 0.01097
1968.51207 0.01047
1967.22631 0.01010
1965.94054 0.01007
1964.65477 0.01013
1963.36900 0.00994
1962.08323 0.00957
1960.79746 0.00940
1959.51169 0.00959
1958.22592 0.00982
1956.94015 0.00970
1955.65439 0.00925
1954.36862 0.00900
1953.08285 0.00942
1951.79708 0.01044
1950.51131 0.01152
1949.22554 0.01216
1947.93977 0.01229
1946.65400 0.01210
1945.36823 0.01179
1944.08247 0.01154
1942.79670 0.01151
1941.51093 0.01165
1940.22516 0.01175
1938.93939 0.01163
1937.65362 0.01136
1936.36785 0.01123
1935.08208 0.01146
1933.79632 0.01200
1932.51055 0.01259
1931.22478 0.01301
1929.93901 0.01325
1928.65324 0.01334
1927.36747 0.01323
1926.08170 0.01291
1924.79593 0.01244
1923.51016 0.01199
1922.22440 0.01164
1920.93863 0.01134
1919.65286 0.01103
1918.36709 0.01085
1917.08132 0.01105
1915.79555 0.01174
1914.50978 0.01259
1913.22401 0.01309
1911.93825 0.01289
1910.65248 0.01215
1909.36671 0.01132
1908.08094 0.01087
1906.79517 0.01093
1905.50940 0.01139
1904.22363 0.01198
1902.93786 0.01250
1901.65209 0.01279
1900.36633 0.01278
1899.08056 0.01251
1897.79479 0.01215
1896.50902 0.01192
1895.22325 0.01195
1893.93748 0.01231
1892.65171 0.01296
1891.36594 0.01366
1890.08018 0.01406
1888.79441 0.01397
1887.50864 0.01350
1886.22287 0.01298
1884.93710 0.01268
1883.65133 0.01264
1882.36556 0.01279
1881.07979 0.01304
1879.79402 0.01327
1878.50826 0.01339
1877.22249 0.01342
1875.93672 0.01342
1874.65095 0.01347
1873.36518 0.01354
1872.07941 0.01354
1870.79364 0.01350
1869.50787 0.01348
1868.22211 0.01353
1866.93634 0.01360
1865.65057 0.01358
1864.36480 0.01347
1863.07903 0.01338
1861.79326 0.01341
1860.50749 0.01357
1859.22172 0.01377
1857.93595 0.01390
1856.65019 0.01394
1855.36442 0.01388
1854.07865 0.01370
1852.79288 0.01340
1851.50711 0.01314
1850.22134 0.01306
1848.93557 0.01322
1847.64980 0.01351
1846.36404 0.01370
1845.07827 0.01367
1843.79250 0.01346
1842.50673 0.01327
1841.22096 0.01325
1839.93519 0.01334
1838.64942 0.01337
1837.36365 0.01328
1836.07788 0.01315
1834.79212 0.01316
1833.50635 0.01339
1832.22058 0.01378
1830.93481 0.01414
1829.64904 0.01437
1828.36327 0.01447
1827.07750 0.01454
1825.79173 0.01464
1824.50597 0.01474
1823.22020 0.01478
1821.93443 0.01474
1820.64866 0.01470
1819.36289 0.01470
1818.07712 0.01465
1816.79135 0.01445
1815.50558 0.01411
1814.21981 0.01379
1812.93405 0.01359
1811.64828 0.01354
1810.36251 0.01358
1809.07674 0.01365
1807.79097 0.01373
1806.50520 0.01381
1805.21943 0.01389
1803.93366 0.01398
1802.64790 0.01407
1801.36213 0.01417
1800.07636 0.01429
1798.79059 0.01439
1797.50482 0.01438
1796.21905 0.01428
1794.93328 0.01422
1793.64751 0.01430
1792.36174 0.01450
1791.07598 0.01471
1789.79021 0.01485
1788.50444 0.01493
1787.21867 0.01500
1785.93290 0.01508
1784.64713 0.01517
1783.36136 0.01527
1782.07559 0.01537
1780.78983 0.01542
1779.50406 0.01538
1778.21829 0.01528
1776.93252 0.01524
1775.64675 0.01531
1774.36098 0.01547
1773.07521 0.01561
1771.78944 0.01564
1770.50367 0.01556
1769.21791 0.01545
1767.93214 0.01537
1766.64637 0.01533
1765.36060 0.01533
1764.07483 0.01538
1762.78906 0.01549
1761.50329 0.01562
1760.21752 0.01576
1758.93176 0.01588
1757.64599 0.01599
1756.36022 0.01609
1755.07445 0.01621
1753.78868 0.01636
1752.50291 0.01649
1751.21714 0.01658
1749.93137 0.01661
1748.64560 0.01662
1747.35984 0.01662
1746.07407 0.01663
1744.78830 0.01663
1743.50253 0.01664
1742.21676 0.01667
1740.93099 0.01670
1739.64522 0.01672
1738.35945 0.01682
1737.07369 0.01707
1735.78792 0.01744
1734.50215 0.01777
1733.21638 0.01792
1731.93061 0.01786
1730.64484 0.01774
1729.35907 0.01768
1728.07330 0.01771
1726.78753 0.01778
1725.50177 0.01785
1724.21600 0.01797
1722.93023 0.01821
1721.64446 0.01862
1720.35869 0.01914
1719.07292 0.01965
1717.78715 0.02004
1716.50138 0.02029
1715.21561 0.02045
1713.92985 0.02060
1712.64408 0.02077
1711.35831 0.02098
1710.07254 0.02126
1708.78677 0.02161
1707.50100 0.02202
1706.21523 0.02244
1704.92946 0.02288
1703.64370 0.02341
1702.35793 0.02402
1701.07216 0.02460
1699.78639 0.02505
1698.50062 0.02535
1697.21485 0.02556
1695.92908 0.02571
1694.64331 0.02579
1693.35754 0.02577
1692.07178 0.02572
1690.78601 0.02573
1689.50024 0.02590
1688.21447 0.02628
1686.92870 0.02687
1685.64293 0.02750
1684.35716 0.02794
1683.07139 0.02811
1681.78563 0.02812
1680.49986 0.02817
1679.21409 0.02840
1677.92832 0.02879
1676.64255 0.02921
1675.35678 0.02957
1674.07101 0.02983
1672.78524 0.03006
1671.49947 0.03028
1670.21371 0.03046
1668.92794 0.03057
1667.64217 0.03064
1666.35640 0.03080
1665.07063 0.03110
1663.78486 0.03149
1662.49909 0.03185
1661.21332 0.03214
1659.92756 0.03235
1658.64179 0.03257
1657.35602 0.03290
1656.07025 0.03339
1654.78448 0.03398
1653.49871 0.03440
1652.21294 0.03449
1650.92717 0.03430
1649.64140 0.03409
1648.35564 0.03404
1647.06987 0.03410
1645.78410 0.03415
1644.49833 0.03417
1643.21256 0.03421
1641.92679 0.03433
1640.64102 0.03451
1639.35525 0.03474
1638.06949 0.03498
1636.78372 0.03517
1635.49795 0.03526
1634.21218 0.03522
1632.92641 0.03513
1631.64064 0.03510
1630.35487 0.03519
1629.06910 0.03538
1627.78333 0.03563
1626.49757 0.03585
1625.21180 0.03601
1623.92603 0.03608
1622.64026 0.03607
1621.35449 0.03607
1620.06872 0.03620
1618.78295 0.03650
1617.49718 0.03686
1616.21142 0.03714
1614.92565 0.03728
1613.63988 0.03741
1612.35411 0.03761
1611.06834 0.03788
1609.78257 0.03812
1608.49680 0.03830
1607.21103 0.03846
1605.92526 0.03866
1604.63950 0.03893
1603.35373 0.03924
1602.06796 0.03955
1600.78219 0.03986
1599.49642 0.04018
1598.21065 0.04052
1596.92488 0.04087
1595.63911 0.04117
1594.35335 0.04142
1593.06758 0.04162
1591.78181 0.04186
1590.49604 0.04219
1589.21027 0.04261
1587.92450 0.04303
1586.63873 0.04338
1585.35296 0.04369
1584.06719 0.04403
1582.78143 0.04445
1581.49566 0.04498
1580.20989 0.04559
1578.92412 0.04625
1577.63835 0.04687
1576.35258 0.04738
1575.06681 0.04775
1573.78104 0.04809
1572.49528 0.04851
1571.20951 0.04905
1569.92374 0.04962
1568.63797 0.05013
1567.35220 0.05052
1566.06643 0.05085
1564.78066 0.05121
1563.49489 0.05170
1562.20912 0.05237
1560.92336 0.05317
1559.63759 0.05390
1558.35182 0.05438
1557.06605 0.05462
1555.78028 0.05476
1554.49451 0.05494
1553.20874 0.05519
1551.92297 0.05545
1550.63721 0.05565
1549.35144 0.05577
1548.06567 0.05582
1546.77990 0.05584
1545.49413 0.05585
1544.20836 0.05586
1542.92259 0.05585
1541.63682 0.05577
1540.35105 0.05552
1539.06529 0.05504
1537.77952 0.05441
1536.49375 0.05382
1535.20798 0.05340
1533.92221 0.05316
1532.63644 0.05301
1531.35067 0.05292
1530.06490 0.05295
1528.77914 0.05315
1527.49337 0.05349
1526.20760 0.05394
1524.92183 0.05448
1523.63606 0.05509
1522.35029 0.05576
1521.06452 0.05646
1519.77875 0.05721
1518.49298 0.05807
1517.20722 0.05907
1515.92145 0.06016
1514.63568 0.06129
1513.34991 0.06248
1512.06414 0.06375
1510.77837 0.06515
1509.49260 0.06668
1508.20683 0.06828
1506.92107 0.06981
1505.63530 0.07116
1504.34953 0.07230
1503.06376 0.07334
1501.77799 0.07439
1500.49222 0.07552
1499.20645 0.07666
1497.92068 0.07773
1496.63491 0.07862
1495.34915 0.07933
1494.06338 0.07995
1492.77761 0.08061
1491.49184 0.08138
1490.20607 0.08221
1488.92030 0.08303
1487.63453 0.08383
1486.34876 0.08464
1485.06299 0.08556
1483.77723 0.08662
1482.49146 0.08779
1481.20569 0.08904
1479.91992 0.09039
1478.63415 0.09182
1477.34838 0.09328
1476.06261 0.09470
1474.77684 0.09602
1473.49108 0.09721
1472.20531 0.09826
1470.91954 0.09920
1469.63377 0.10009
1468.34800 0.10100
1467.06223 0.10193
1465.77646 0.10284
1464.49069 0.10366
1463.20492 0.10440
1461.91916 0.10519
1460.63339 0.10616
1459.34762 0.10729
1458.06185 0.10844
1456.77608 0.10943
1455.49031 0.11016
1454.20454 0.11072
1452.91877 0.11119
1451.63301 0.11160
1450.34724 0.11194
1449.06147 0.11219
1447.77570 0.11232
1446.48993 0.11233
1445.20416 0.11220
1443.91839 0.11189
1442.63262 0.11143
1441.34685 0.11088
1440.06109 0.11035
1438.77532 0.10993
1437.48955 0.10964
1436.20378 0.10948
1434.91801 0.10946
1433.63224 0.10965
1432.34647 0.11012
1431.06070 0.11087
1429.77494 0.11185
1428.48917 0.11303
1427.20340 0.11438
1425.91763 0.11587
1424.63186 0.11745
1423.34609 0.11909
1422.06032 0.12074
1420.77455 0.12231
1419.48878 0.12372
1418.20302 0.12487
1416.91725 0.12574
1415.63148 0.12634
1414.34571 0.12672
1413.05994 0.12688
1411.77417 0.12680
1410.48840 0.12645
1409.20263 0.12579
1407.91687 0.12482
1406.63110 0.12354
1405.34533 0.12199
1404.05956 0.12019
1402.77379 0.11818
1401.48802 0.11599
1400.20225 0.11364
1398.91648 0.11113
1397.63071 0.10848
1396.34495 0.10573
1395.05918 0.10294
1393.77341 0.10017
1392.48764 0.09748
1391.20187 0.09487
1389.91610 0.09237
1388.63033 0.08997
1387.34456 0.08762
1386.05880 0.08532
1384.77303 0.08305
1383.48726 0.08082
1382.20149 0.07864
1380.91572 0.07652
1379.62995 0.07442
1378.34418 0.07228
1377.05841 0.07006
1375.77264 0.06775
1374.48688 0.06537
1373.20111 0.06295
1371.91534 0.06052
1370.62957 0.05815
1369.34380 0.05588
1368.05803 0.05379
1366.77226 0.05191
1365.48649 0.05018
1364.20073 0.04852
1362.91496 0.04690
1361.62919 0.04533
1360.34342 0.04386
1359.05765 0.04248
1357.77188 0.04122
1356.48611 0.04008
1355.20034 0.03907
1353.91457 0.03817
1352.62881 0.03735
1351.34304 0.03659
1350.05727 0.03585
1348.77150 0.03510
1347.48573 0.03434
1346.19996 0.03363
1344.91419 0.03299
1343.62842 0.03246
1342.34266 0.03200
1341.05689 0.03158
1339.77112 0.03117
1338.48535 0.03075
1337.19958 0.03031
1335.91381 0.02986
1334.62804 0.02942
1333.34227 0.02900
1332.05650 0.02860
1330.77074 0.02821
1329.48497 0.02786
1328.19920 0.02756
1326.91343 0.02734
1325.62766 0.02718
1324.34189 0.02702
1323.05612 0.02681
1321.77035 0.02656
1320.48459 0.02631
1319.19882 0.02608
1317.91305 0.02586
1316.62728 0.02565
1315.34151 0.02544
1314.05574 0.02524
1312.76997 0.02504
1311.48420 0.02484
1310.19843 0.02466
1308.91267 0.02450
1307.62690 0.02438
1306.34113 0.02427
1305.05536 0.02417
1303.76959 0.02408
1302.48382 0.02401
1301.19805 0.02395
1299.91228 0.02387
1298.62652 0.02375
1297.34075 0.02361
1296.05498 0.02344
1294.76921 0.02327
1293.48344 0.02309
1292.19767 0.02290
1290.91190 0.02273
1289.62613 0.02258
1288.34036 0.02245
1287.05460 0.02231
1285.76883 0.02216
1284.48306 0.02200
1283.19729 0.02187
1281.91152 0.02176
1280.62575 0.02167
1279.33998 0.02159
1278.05421 0.02151
1276.76845 0.02141
1275.48268 0.02129
1274.19691 0.02117
1272.91114 0.02108
1271.62537 0.02099
1270.33960 0.02091
1269.05383 0.02079
1267.76806 0.02065
1266.48229 0.02051
1265.19653 0.02040
1263.91076 0.02032
1262.62499 0.02026
1261.33922 0.02019
1260.05345 0.02012
1258.76768 0.02003
1257.48191 0.01995
1256.19614 0.01988
1254.91037 0.01984
1253.62461 0.01982
1252.33884 0.01982
1251.05307 0.01981
1249.76730 0.01978
1248.48153 0.01974
1247.19576 0.01970
1245.90999 0.01965
1244.62422 0.01958
1243.33846 0.01946
1242.05269 0.01933
1240.76692 0.01920
1239.48115 0.01911
1238.19538 0.01907
1236.90961 0.01909
1235.62384 0.01912
1234.33807 0.01912
1233.05230 0.01907
1231.76654 0.01894
1230.48077 0.01878
1229.19500 0.01866
1227.90923 0.01865
1226.62346 0.01872
1225.33769 0.01880
1224.05192 0.01886
1222.76615 0.01887
1221.48039 0.01885
1220.19462 0.01884
1218.90885 0.01882
1217.62308 0.01879
1216.33731 0.01874
1215.05154 0.01868
1213.76577 0.01864
1212.48000 0.01865
1211.19423 0.01871
1209.90847 0.01878
1208.62270 0.01881
1207.33693 0.01881
1206.05116 0.01881
1204.76539 0.01886
1203.47962 0.01897
1202.19385 0.01908
1200.90808 0.01909
1199.62232 0.01892
1198.33655 0.01892
1197.05078 0.01892
1195.76501 0.01894
1194.47924 0.01900
1193.19347 0.01909
1191.90770 0.01919
1190.62193 0.01927
1189.33616 0.01927
1188.05040 0.01923
1186.76463 0.01923
1185.47886 0.01931
1184.19309 0.01944
1182.90732 0.01955
1181.62155 0.01960
1180.33578 0.01956
1179.05001 0.01949
1177.76425 0.01945
1176.47848 0.01950
1175.19271 0.01964
1173.90694 0.01984
1172.62117 0.02004
1171.33540 0.02024
1170.04963 0.02045
1168.76386 0.02066
1167.47809 0.02084
1166.19233 0.02099
1164.90656 0.02119
1163.62079 0.02147
1162.33502 0.02181
1161.04925 0.02218
1159.76348 0.02253
1158.47771 0.02290
1157.19194 0.02331
1155.90618 0.02372
1154.62041 0.02410
1153.33464 0.02449
1152.04887 0.02492
1150.76310 0.02542
1149.47733 0.02602
1148.19156 0.02671
1146.90579 0.02746
1145.62002 0.02827
1144.33426 0.02912
1143.04849 0.03002
1141.76272 0.03100
1140.47695 0.03210
1139.19118 0.03332
1137.90541 0.03466
1136.61964 0.03610
1135.33387 0.03767
1134.04811 0.03944
1132.76234 0.04149
1131.47657 0.04384
1130.19080 0.04645
1128.90503 0.04929
1127.61926 0.05233
1126.33349 0.05555
1125.04772 0.05897
1123.76195 0.06262
1122.47619 0.06655
1121.19042 0.07069
1119.90465 0.07491
1118.61888 0.07911
1117.33311 0.08328
1116.04734 0.08744
1114.76157 0.09160
1113.47580 0.09571
1112.19004 0.09974
1110.90427 0.10373
1109.61850 0.10771
1108.33273 0.11163
1107.04696 0.11540
1105.76119 0.11897
1104.47542 0.12238
1103.18965 0.12572
1101.90388 0.12903
1100.61812 0.13229
1099.33235 0.13545
1098.04658 0.13845
1096.76081 0.14133
1095.47504 0.14412
1094.18927 0.14685
1092.90350 0.14943
1091.61773 0.15180
1090.33197 0.15397
1089.04620 0.15602
1087.76043 0.15802
1086.47466 0.15999
1085.18889 0.16196
1083.90312 0.16398
1082.61735 0.16609
1081.33158 0.16833
1080.04581 0.17079
1078.76005 0.17357
1077.47428 0.17667
1076.18851 0.17997
1074.90274 0.18333
1073.61697 0.18671
1072.33120 0.19023
1071.04543 0.19395
1069.75966 0.19786
1068.47390 0.20187
1067.18813 0.20592
1065.90236 0.21005
1064.61659 0.21429
1063.33082 0.21866
1062.04505 0.22315
1060.75928 0.22771
1059.47351 0.23231
1058.18774 0.23693
1056.90198 0.24149
1055.61621 0.24596
1054.33044 0.25034
1053.04467 0.25468
1051.75890 0.25901
1050.47313 0.26341
1049.18736 0.26794
1047.90159 0.27265
1046.61583 0.27749
1045.33006 0.28237
1044.04429 0.28724
1042.75852 0.29213
1041.47275 0.29709
1040.18698 0.30213
1038.90121 0.30722
1037.61544 0.31233
1036.32967 0.31745
1035.04391 0.32254
1033.75814 0.32748
1032.47237 0.33212
1031.18660 0.33639
1029.90083 0.34028
1028.61506 0.34380
1027.32929 0.34689
1026.04352 0.34947
1024.75775 0.35152
1023.47199 0.35307
1022.18622 0.35410
1020.90045 0.35451
1019.61468 0.35420
1018.32891 0.35316
1017.04314 0.35140
1015.75737 0.34894
1014.47160 0.34579
1013.18584 0.34192
1011.90007 0.33734
1010.61430 0.33205
1009.32853 0.32608
1008.04276 0.31948
1006.75699 0.31238
1005.47122 0.30482
1004.18545 0.29683
1002.89968 0.28844
1001.61392 0.27972
1000.32815 0.27082
999.04238 0.26183
997.75661 0.25282
996.47084 0.24381
995.18507 0.23478
993.89930 0.22582
992.61353 0.21702
991.32777 0.20850
990.04200 0.20028
988.75623 0.19235
987.47046 0.18473
986.18469 0.17739
984.89892 0.17029
983.61315 0.16342
982.32738 0.15686
981.04161 0.15072
979.75585 0.14505
978.47008 0.13984
977.18431 0.13509
975.89854 0.13080
974.61277 0.12702
973.32700 0.12385
972.04123 0.12139
970.75546 0.11976
969.46970 0.11899
968.18393 0.11898
966.89816 0.11954
965.61239 0.12056
964.32662 0.12190
963.04085 0.12333
961.75508 0.12446
960.46931 0.12488
959.18354 0.12433
957.89778 0.12276
956.61201 0.12031
955.32624 0.11726
954.04047 0.11388
952.75470 0.11037
951.46893 0.10687
950.18316 0.10350
948.89739 0.10032
947.61163 0.09729
946.32586 0.09432
945.04009 0.09137
943.75432 0.08849
942.46855 0.08577
941.18278 0.08321
939.89701 0.08078
938.61124 0.07842
937.32547 0.07614
936.03971 0.07395
934.75394 0.07193
933.46817 0.07017
932.18240 0.06866
930.89663 0.06730
929.61086 0.06596
928.32509 0.06459
927.03932 0.06321
925.75356 0.06186
924.46779 0.06056
923.18202 0.05934
921.89625 0.05824
920.61048 0.05727
919.32471 0.05644
918.03894 0.05572
916.75317 0.05511
915.46740 0.05455
914.18164 0.05402
912.89587 0.05347
911.61010 0.05289
910.32433 0.05225
909.03856 0.05157
907.75279 0.05094
906.46702 0.05042
905.18125 0.05001
903.89549 0.04964
902.60972 0.04922
901.32395 0.04872
900.03818 0.04822
898.75241 0.04779
897.46664 0.04743
896.18087 0.04714
894.89510 0.04696
893.60933 0.04693
892.32357 0.04699
891.03780 0.04707
889.75203 0.04721
888.46626 0.04763
887.18049 0.04856
885.89472 0.05017
884.60895 0.05256
883.32318 0.05574
882.03742 0.05946
880.75165 0.06319
879.46588 0.06635
878.18011 0.06868
876.89434 0.07043
875.60857 0.07205
874.32280 0.07369
873.03703 0.07507
871.75126 0.07577
870.46550 0.07550
869.17973 0.07424
867.89396 0.07211
866.60819 0.06935
865.32242 0.06626
864.03665 0.06311
862.75088 0.06006
861.46511 0.05722
860.17935 0.05466
858.89358 0.05249
857.60781 0.05076
856.32204 0.04947
855.03627 0.04851
853.75050 0.04770
852.46473 0.04690
851.17896 0.04605
849.89319 0.04520
848.60743 0.04448
847.32166 0.04390
846.03589 0.04342
844.75012 0.04298
843.46435 0.04255
842.17858 0.04214
840.89281 0.04174
839.60704 0.04133
838.32128 0.04094
837.03551 0.04061
835.74974 0.04033
834.46397 0.04007
833.17820 0.03983
831.89243 0.03957
830.60666 0.03927
829.32089 0.03894
828.03512 0.03868
826.74936 0.03859
825.46359 0.03861
824.17782 0.03857
822.89205 0.03837
821.60628 0.03809
820.32051 0.03791
819.03474 0.03784
817.74897 0.03779
816.46321 0.03769
815.17744 0.03755
813.89167 0.03747
812.60590 0.03742
811.32013 0.03731
810.03436 0.03708
808.74859 0.03679
807.46282 0.03655
806.17705 0.03643
804.89129 0.03643
803.60552 0.03646
802.31975 0.03646
801.03398 0.03640
799.74821 0.03631
798.46244 0.03622
797.17667 0.03611
795.89090 0.03593
794.60513 0.03572
793.31937 0.03557
792.03360 0.03555
790.74783 0.03560
789.46206 0.03559
788.17629 0.03548
786.89052 0.03531
785.60475 0.03517
784.31898 0.03508
783.03322 0.03502
781.74745 0.03493
780.46168 0.03484
779.17591 0.03480
777.89014 0.03483
776.60437 0.03489
775.31860 0.03489
774.03283 0.03484
772.74706 0.03480
771.46130 0.03476
770.17553 0.03472
768.88976 0.03468
767.60399 0.03470
766.31822 0.03480
765.03245 0.03490
763.74668 0.03493
762.46091 0.03493
761.17515 0.03501
759.88938 0.03520
758.60361 0.03541
757.31784 0.03551
756.03207 0.03548
754.74630 0.03537
753.46053 0.03525
752.17476 0.03514
750.88899 0.03505
749.60323 0.03501
748.31746 0.03502
747.03169 0.03501
745.74592 0.03490
744.46015 0.03468
743.17438 0.03445
741.88861 0.03434
740.60284 0.03442
739.31708 0.03457
738.03131 0.03457
736.74554 0.03438
735.45977 0.03415
734.17400 0.03399
732.88823 0.03388
731.60246 0.03378
730.31669 0.03373
729.03092 0.03379
727.74516 0.03394
726.45939 0.03409
725.17362 0.03415
723.88785 0.03421
722.60208 0.03419
721.31631 0.03422
720.03054 0.03432
718.74477 0.03441
717.45901 0.03443
716.17324 0.03441
714.88747 0.03436
713.60170 0.03432
712.31593 0.03428
711.03016 0.03425
709.74439 0.03424
708.45862 0.03422
707.17285 0.03417
705.88709 0.03411
704.60132 0.03407
703.31555 0.03405
702.02978 0.03405
700.74401 0.03405
699.45824 0.03402
698.17247 0.03396
696.88670 0.03388
695.60094 0.03382
694.31517 0.03379
693.02940 0.03378
691.74363 0.03381
690.45786 0.03385
689.17209 0.03389
687.88632 0.03389
686.60055 0.03381
685.31478 0.03368
684.02902 0.03354
682.74325 0.03345
681.45748 0.03342
680.17171 0.03342
678.88594 0.03344
677.60017 0.03350
676.31440 0.03360
675.02863 0.03378
673.74287 0.03400
672.45710 0.03423
671.17133 0.03441
669.88556 0.03454
668.59979 0.03462
667.31402 0.03468
666.02825 0.03466
664.74248 0.03451
663.45671 0.03426
662.17095 0.03397
660.88518 0.03369
659.59941 0.03347
658.31364 0.03330
657.02787 0.03319
655.74210 0.03317
654.45633 0.03325
653.17056 0.03338
651.88480 0.03351
650.59903 0.03358
649.31326 0.03361
648.02749 0.03364
646.74172 0.03373
645.45595 0.03388
644.17018 0.03411
642.88441 0.03439
641.59864 0.03472
640.31288 0.03508
639.02711 0.03544
637.74134 0.03576
636.45557 0.03606
635.16980 0.03640
633.88403 0.03685
632.59826 0.03741
631.31249 0.03819
630.02673 0.03991
628.74096 0.04215
627.45519 0.04187
626.16942 0.04439
624.88365 0.04899
623.59788 0.05396
622.31211 0.05884
621.02634 0.06308
619.74057 0.06568
618.45481 0.06620
617.16904 0.06552
615.88327 0.06546
614.59750 0.06768
613.31173 0.07279
612.02596 0.08001
610.74019 0.08777
609.45442 0.09492
608.16866 0.10160
606.88289 0.10852
605.59712 0.11570
604.31135 0.12213
603.02558 0.12644
601.73981 0.12785
600.45404 0.12658
599.16827 0.12341
597.88250 0.11920
596.59674 0.11462
595.31097 0.11015
594.02520 0.10613
592.73943 0.10280
591.45366 0.10030
590.16789 0.09873
588.88212 0.09808
587.59635 0.09829
586.31059 0.09929
585.02482 0.10099
583.73905 0.10323
582.45328 0.10587
581.16751 0.10881
579.88174 0.11205
578.59597 0.11559
577.31020 0.11931
576.02443 0.12300
574.73867 0.12648
573.45290 0.12974
572.16713 0.13301
570.88136 0.13659
569.59559 0.14074
568.30982 0.14559
567.02405 0.15100
565.73828 0.15650
564.45251 0.16141
563.16675 0.16503
561.88098 0.16678
560.59521 0.16623
559.30944 0.16319
558.02367 0.15782
556.73790 0.15071
555.45213 0.14266
554.16636 0.13436
552.88060 0.12626
551.59483 0.11860
550.30906 0.11152
549.02329 0.10509
547.73752 0.09930
546.45175 0.09409
545.16598 0.08938
543.88021 0.08510
542.59444 0.08123
541.30868 0.07773
540.02291 0.07458
538.73714 0.07178
537.45137 0.06936
536.16560 0.06724
534.87983 0.06528
533.59406 0.06332
532.30829 0.06133
531.02253 0.05935
529.73676 0.05746
528.45099 0.05566
527.16522 0.05399
525.87945 0.05251
524.59368 0.05125
523.30791 0.05016
522.02214 0.04910
520.73637 0.04797
519.45061 0.04679
518.16484 0.04569
516.87907 0.04474
515.59330 0.04390
514.30753 0.04305
513.02176 0.04212
511.73599 0.04117
510.45022 0.04032
509.16446 0.03957
507.87869 0.03889
506.59292 0.03822
505.30715 0.03760
504.02138 0.03703
502.73561 0.03649
501.44984 0.03593
500.16407 0.03538
498.87830 0.03486
497.59254 0.03440
496.30677 0.03397
495.02100 0.03356
493.73523 0.03319
492.44946 0.03284
491.16369 0.03248
489.87792 0.03205
488.59215 0.03164
487.30639 0.03136
486.02062 0.03133
484.73485 0.03155
483.44908 0.03194
482.16331 0.03232
480.87754 0.03255
479.59177 0.03261
478.30600 0.03263
477.02023 0.03270
475.73447 0.03286
474.44870 0.03306
473.16293 0.03324
471.87716 0.03337
470.59139 0.03341
469.30562 0.03332
468.01985 0.03311
466.73408 0.03285
465.44832 0.03257
464.16255 0.03224
462.87678 0.03184
461.59101 0.03141
460.30524 0.03097
459.01947 0.03055
457.73370 0.03013
456.44793 0.02968
455.16216 0.02922
453.87640 0.02874
452.59063 0.02829
451.30486 0.02789
450.01909 0.02756
448.73332 0.02727
447.44755 0.02702
446.16178 0.02681
444.87601 0.02665
443.59025 0.02650
442.30448 0.02632
441.01871 0.02610
439.73294 0.02586
438.44717 0.02565
437.16140 0.02550
435.87563 0.02542
434.58986 0.02537
433.30409 0.02530
432.01833 0.02518
430.73256 0.02500
429.44679 0.02481
428.16102 0.02462
426.87525 0.02445
425.58948 0.02430
424.30371 0.02418
423.01794 0.02406
421.73218 0.02395
420.44641 0.02385
419.16064 0.02377
417.87487 0.02367
416.58910 0.02356
415.30333 0.02345
414.01756 0.02336
412.73179 0.02328
411.44602 0.02320
410.16026 0.02313
408.87449 0.02311
407.58872 0.02318
406.30295 0.02331
405.01718 0.02348
403.73141 0.02366
402.44564 0.02382
401.15987 0.02397
399.87411 0.02412
