3997.45528	0.04780
3996.16951	0.04737
3994.88374	0.04708
3993.59798	0.04694
3992.31221	0.04677
3991.02644	0.04651
3989.74067	0.04638
3988.45490	0.04656
3987.16913	0.04696
3985.88336	0.04729
3984.59759	0.04733
3983.31183	0.04711
3982.02606	0.04679
3980.74029	0.04656
3979.45452	0.04655
3978.16875	0.04664
3976.88298	0.04663
3975.59721	0.04641
3974.31144	0.04622
3973.02567	0.04636
3971.73991	0.04681
3970.45414	0.04709
3969.16837	0.04675
3967.88260	0.04589
3966.59683	0.04501
3965.31106	0.04450
3964.02529	0.04430
3962.73952	0.04420
3961.45376	0.04402
3960.16799	0.04374
3958.88222	0.04335
3957.59645	0.04287
3956.31068	0.04246
3955.02491	0.04234
3953.73914	0.04273
3952.45337	0.04366
3951.16760	0.04476
3949.88184	0.04557
3948.59607	0.04590
3947.31030	0.04605
3946.02453	0.04636
3944.73876	0.04679
3943.45299	0.04687
3942.16722	0.04622
3940.88145	0.04497
3939.59569	0.04369
3938.30992	0.04291
3937.02415	0.04267
3935.73838	0.04277
3934.45261	0.04305
3933.16684	0.04351
3931.88107	0.04401
3930.59530	0.04426
3929.30953	0.04408
3928.02377	0.04357
3926.73800	0.04293
3925.45223	0.04232
3924.16646	0.04196
3922.88069	0.04205
3921.59492	0.04260
3920.30915	0.04332
3919.02338	0.04391
3917.73762	0.04426
3916.45185	0.04444
3915.16608	0.04444
3913.88031	0.04419
3912.59454	0.04371
3911.30877	0.04321
3910.02300	0.04290
3908.73723	0.04286
3907.45146	0.04302
3906.16570	0.04324
3904.87993	0.04339
3903.59416	0.04346
3902.30839	0.04358
3901.02262	0.04384
3899.73685	0.04405
3898.45108	0.04391
3897.16531	0.04333
3895.87955	0.04269
3894.59378	0.04242
3893.30801	0.04257
3892.02224	0.04280
3890.73647	0.04289
3889.45070	0.04299
3888.16493	0.04331
3886.87916	0.04379
3885.59339	0.04412
3884.30763	0.04423
3883.02186	0.04428
3881.73609	0.04438
3880.45032	0.04436
3879.16455	0.04411
3877.87878	0.04379
3876.59301	0.04354
3875.30724	0.04327
3874.02148	0.04283
3872.73571	0.04233
3871.44994	0.04195
3870.16417	0.04162
3868.87840	0.04121
3867.59263	0.04089
3866.30686	0.04106
3865.02109	0.04171
3863.73532	0.04236
3862.44956	0.04259
3861.16379	0.04244
3859.87802	0.04222
3858.59225	0.04220
3857.30648	0.04248
3856.02071	0.04295
3854.73494	0.04333
3853.44917	0.04341
3852.16341	0.04334
3850.87764	0.04353
3849.59187	0.04414
3848.30610	0.04484
3847.02033	0.04515
3845.73456	0.04492
3844.44879	0.04429
3843.16302	0.04348
3841.87725	0.04261
3840.59149	0.04183
3839.30572	0.04143
3838.01995	0.04158
3836.73418	0.04214
3835.44841	0.04276
3834.16264	0.04320
3832.87687	0.04346
3831.59110	0.04356
3830.30534	0.04331
3829.01957	0.04256
3827.73380	0.04153
3826.44803	0.04074
3825.16226	0.04065
3823.87649	0.04134
3822.59072	0.04239
3821.30495	0.04325
3820.01918	0.04357
3818.73342	0.04335
3817.44765	0.04277
3816.16188	0.04194
3814.87611	0.04096
3813.59034	0.04014
3812.30457	0.03989
3811.01880	0.04039
3809.73303	0.04133
3808.44726	0.04217
3807.16150	0.04257
3805.87573	0.04252
3804.58996	0.04218
3803.30419	0.04166
3802.01842	0.04108
3800.73265	0.04061
3799.44688	0.04042
3798.16111	0.04044
3796.87535	0.04049
3795.58958	0.04047
3794.30381	0.04058
3793.01804	0.04096
3791.73227	0.04148
3790.44650	0.04172
3789.16073	0.04144
3787.87496	0.04084
3786.58919	0.04035
3785.30343	0.04024
3784.01766	0.04041
3782.73189	0.04066
3781.44612	0.04087
3780.16035	0.04108
3778.87458	0.04129
3777.58881	0.04149
3776.30304	0.04162
3775.01728	0.04158
3773.73151	0.04130
3772.44574	0.04082
3771.15997	0.04029
3769.87420	0.03979
3768.58843	0.03921
3767.30266	0.03850
3766.01689	0.03784
3764.73112	0.03752
3763.44536	0.03771
3762.15959	0.03841
3760.87382	0.03950
3759.58805	0.04061
3758.30228	0.04124
3757.01651	0.04113
3755.73074	0.04048
3754.44497	0.03985
3753.15921	0.03971
3751.87344	0.04016
3750.58767	0.04088
3749.30190	0.04141
3748.01613	0.04145
3746.73036	0.04102
3745.44459	0.04034
3744.15882	0.03959
3742.87305	0.03886
3741.58729	0.03815
3740.30152	0.03737
3739.01575	0.03647
3737.72998	0.03556
3736.44421	0.03491
3735.15844	0.03477
3733.87267	0.03509
3732.58690	0.03553
3731.30114	0.03583
3730.01537	0.03600
3728.72960	0.03633
3727.44383	0.03703
3726.15806	0.03795
3724.87229	0.03872
3723.58652	0.03902
3722.30075	0.03877
3721.01498	0.03819
3719.72922	0.03760
3718.44345	0.03727
3717.15768	0.03723
3715.87191	0.03741
3714.58614	0.03773
3713.30037	0.03815
3712.01460	0.03862
3710.72883	0.03912
3709.44307	0.03962
3708.15730	0.03996
3706.87153	0.03987
3705.58576	0.03930
3704.29999	0.03855
3703.01422	0.03814
3701.72845	0.03827
3700.44268	0.03872
3699.15691	0.03905
3697.87115	0.03892
3696.58538	0.03824
3695.29961	0.03726
3694.01384	0.03641
3692.72807	0.03610
3691.44230	0.03652
3690.15653	0.03749
3688.87076	0.03845
3687.58500	0.03885
3686.29923	0.03868
3685.01346	0.03837
3683.72769	0.03843
3682.44192	0.03898
3681.15615	0.03961
3679.87038	0.03991
3678.58461	0.03980
3677.29884	0.03942
3676.01308	0.03894
3674.72731	0.03853
3673.44154	0.03842
3672.15577	0.03871
3670.87000	0.03916
3669.58423	0.03936
3668.29846	0.03917
3667.01269	0.03879
3665.72693	0.03843
3664.44116	0.03808
3663.15539	0.03766
3661.86962	0.03731
3660.58385	0.03727
3659.29808	0.03757
3658.01231	0.03805
3656.72654	0.03857
3655.44077	0.03919
3654.15501	0.03999
3652.86924	0.04078
3651.58347	0.04129
3650.29770	0.04140
3649.01193	0.04119
3647.72616	0.04092
3646.44039	0.04079
3645.15462	0.04080
3643.86886	0.04073
3642.58309	0.04038
3641.29732	0.03981
3640.01155	0.03932
3638.72578	0.03910
3637.44001	0.03899
3636.15424	0.03868
3634.86847	0.03815
3633.58270	0.03775
3632.29694	0.03782
3631.01117	0.03831
3629.72540	0.03877
3628.43963	0.03889
3627.15386	0.03878
3625.86809	0.03890
3624.58232	0.03958
3623.29655	0.04065
3622.01079	0.04160
3620.72502	0.04204
3619.43925	0.04205
3618.15348	0.04201
3616.86771	0.04221
3615.58194	0.04271
3614.29617	0.04335
3613.01040	0.04395
3611.72463	0.04432
3610.43887	0.04443
3609.15310	0.04445
3607.86733	0.04464
3606.58156	0.04508
3605.29579	0.04559
3604.01002	0.04588
3602.72425	0.04587
3601.43848	0.04573
3600.15272	0.04561
3598.86695	0.04546
3597.58118	0.04524
3596.29541	0.04508
3595.00964	0.04519
3593.72387	0.04551
3592.43810	0.04577
3591.15233	0.04585
3589.86656	0.04598
3588.58080	0.04641
3587.29503	0.04706
3586.00926	0.04763
3584.72349	0.04782
3583.43772	0.04749
3582.15195	0.04682
3580.86618	0.04623
3579.58041	0.04614
3578.29464	0.04655
3577.00888	0.04711
3575.72311	0.04741
3574.43734	0.04735
3573.15157	0.04714
3571.86580	0.04710
3570.58003	0.04744
3569.29426	0.04804
3568.00849	0.04846
3566.72273	0.04840
3565.43696	0.04803
3564.15119	0.04785
3562.86542	0.04816
3561.57965	0.04883
3560.29388	0.04945
3559.00811	0.04976
3557.72234	0.04982
3556.43657	0.04996
3555.15081	0.05044
3553.86504	0.05117
3552.57927	0.05175
3551.29350	0.05190
3550.00773	0.05170
3548.72196	0.05142
3547.43619	0.05117
3546.15042	0.05085
3544.86466	0.05047
3543.57889	0.05034
3542.29312	0.05075
3541.00735	0.05160
3539.72158	0.05241
3538.43581	0.05274
3537.15004	0.05257
3535.86427	0.05228
3534.57850	0.05230
3533.29274	0.05274
3532.00697	0.05332
3530.72120	0.05375
3529.43543	0.05390
3528.14966	0.05393
3526.86389	0.05412
3525.57812	0.05461
3524.29235	0.05526
3523.00659	0.05574
3521.72082	0.05578
3520.43505	0.05538
3519.14928	0.05484
3517.86351	0.05462
3516.57774	0.05495
3515.29197	0.05559
3514.00620	0.05604
3512.72043	0.05600
3511.43467	0.05563
3510.14890	0.05531
3508.86313	0.05521
3507.57736	0.05524
3506.29159	0.05532
3505.00582	0.05553
3503.72005	0.05599
3502.43428	0.05664
3501.14852	0.05727
3499.86275	0.05766
3498.57698	0.05769
3497.29121	0.05743
3496.00544	0.05710
3494.71967	0.05696
3493.43390	0.05723
3492.14813	0.05795
3490.86236	0.05885
3489.57660	0.05948
3488.29083	0.05952
3487.00506	0.05911
3485.71929	0.05870
3484.43352	0.05869
3483.14775	0.05916
3481.86198	0.05990
3480.57621	0.06053
3479.29045	0.06071
3478.00468	0.06030
3476.71891	0.05950
3475.43314	0.05873
3474.14737	0.05835
3472.86160	0.05846
3471.57583	0.05895
3470.29006	0.05961
3469.00429	0.06024
3467.71853	0.06066
3466.43276	0.06081
3465.14699	0.06075
3463.86122	0.06062
3462.57545	0.06049
3461.28968	0.06041
3460.00391	0.06037
3458.71814	0.06039
3457.43238	0.06051
3456.14661	0.06073
3454.86084	0.06096
3453.57507	0.06111
3452.28930	0.06119
3451.00353	0.06129
3449.71776	0.06143
3448.43199	0.06162
3447.14622	0.06188
3445.86046	0.06221
3444.57469	0.06253
3443.28892	0.06273
3442.00315	0.06273
3440.71738	0.06259
3439.43161	0.06243
3438.14584	0.06242
3436.86007	0.06258
3435.57431	0.06283
3434.28854	0.06305
3433.00277	0.06327
3431.71700	0.06358
3430.43123	0.06396
3429.14546	0.06417
3427.85969	0.06397
3426.57392	0.06337
3425.28815	0.06262
3424.00239	0.06200
3422.71662	0.06162
3421.43085	0.06147
3420.14508	0.06160
3418.85931	0.06197
3417.57354	0.06241
3416.28777	0.06266
3415.00200	0.06272
3413.71624	0.06288
3412.43047	0.06335
3411.14470	0.06407
3409.85893	0.06478
3408.57316	0.06536
3407.28739	0.06581
3406.00162	0.06616
3404.71585	0.06638
3403.43008	0.06644
3402.14432	0.06634
3400.85855	0.06612
3399.57278	0.06589
3398.28701	0.06589
3397.00124	0.06607
3395.71547	0.06618
3394.42970	0.06607
3393.14393	0.06588
3391.85817	0.06593
3390.57240	0.06626
3389.28663	0.06658
3388.00086	0.06657
3386.71509	0.06629
3385.42932	0.06607
3384.14355	0.06611
3382.85778	0.06631
3381.57201	0.06649
3380.28625	0.06664
3379.00048	0.06682
3377.71471	0.06693
3376.42894	0.06685
3375.14317	0.06662
3373.85740	0.06650
3372.57163	0.06670
3371.28586	0.06720
3370.00010	0.06773
3368.71433	0.06801
3367.42856	0.06795
3366.14279	0.06768
3364.85702	0.06742
3363.57125	0.06739
3362.28548	0.06763
3360.99971	0.06797
3359.71394	0.06811
3358.42818	0.06792
3357.14241	0.06756
3355.85664	0.06727
3354.57087	0.06717
3353.28510	0.06716
3351.99933	0.06710
3350.71356	0.06696
3349.42779	0.06683
3348.14202	0.06680
3346.85626	0.06686
3345.57049	0.06697
3344.28472	0.06718
3342.99895	0.06757
3341.71318	0.06807
3340.42741	0.06842
3339.14164	0.06842
3337.85587	0.06816
3336.57011	0.06791
3335.28434	0.06787
3333.99857	0.06792
3332.71280	0.06788
3331.42703	0.06779
3330.14126	0.06795
3328.85549	0.06847
3327.56972	0.06911
3326.28395	0.06955
3324.99819	0.06964
3323.71242	0.06952
3322.42665	0.06934
3321.14088	0.06922
3319.85511	0.06914
3318.56934	0.06905
3317.28357	0.06891
3315.99780	0.06874
3314.71204	0.06866
3313.42627	0.06879
3312.14050	0.06911
3310.85473	0.06943
3309.56896	0.06957
3308.28319	0.06945
3306.99742	0.06920
3305.71165	0.06898
3304.42588	0.06887
3303.14012	0.06895
3301.85435	0.06927
3300.56858	0.06973
3299.28281	0.07006
3297.99704	0.07000
3296.71127	0.06955
3295.42550	0.06899
3294.13973	0.06856
3292.85397	0.06829
3291.56820	0.06814
3290.28243	0.06809
3288.99666	0.06823
3287.71089	0.06853
3286.42512	0.06887
3285.13935	0.06906
3283.85358	0.06902
3282.56781	0.06877
3281.28205	0.06842
3279.99628	0.06813
3278.71051	0.06805
3277.42474	0.06820
3276.13897	0.06845
3274.85320	0.06861
3273.56743	0.06861
3272.28166	0.06856
3270.99590	0.06858
3269.71013	0.06870
3268.42436	0.06882
3267.13859	0.06887
3265.85282	0.06879
3264.56705	0.06860
3263.28128	0.06835
3261.99551	0.06812
3260.70974	0.06797
3259.42398	0.06783
3258.13821	0.06768
3256.85244	0.06755
3255.56667	0.06755
3254.28090	0.06763
3252.99513	0.06756
3251.70936	0.06716
3250.42359	0.06650
3249.13783	0.06590
3247.85206	0.06559
3246.56629	0.06557
3245.28052	0.06570
3243.99475	0.06583
3242.70898	0.06590
3241.42321	0.06588
3240.13744	0.06576
3238.85167	0.06556
3237.56591	0.06538
3236.28014	0.06533
3234.99437	0.06541
3233.70860	0.06556
3232.42283	0.06562
3231.13706	0.06548
3229.85129	0.06517
3228.56552	0.06478
3227.27976	0.06444
3225.99399	0.06422
3224.70822	0.06417
3223.42245	0.06427
3222.13668	0.06443
3220.85091	0.06456
3219.56514	0.06465
3218.27937	0.06480
3216.99360	0.06507
3215.70784	0.06543
3214.42207	0.06567
3213.13630	0.06567
3211.85053	0.06547
3210.56476	0.06525
3209.27899	0.06515
3207.99322	0.06518
3206.70745	0.06522
3205.42169	0.06518
3204.13592	0.06500
3202.85015	0.06469
3201.56438	0.06435
3200.27861	0.06404
3198.99284	0.06378
3197.70707	0.06354
3196.42130	0.06332
3195.13553	0.06309
3193.84977	0.06280
3192.56400	0.06241
3191.27823	0.06200
3189.99246	0.06173
3188.70669	0.06180
3187.42092	0.06226
3186.13515	0.06291
3184.84938	0.06329
3183.56362	0.06309
3182.27785	0.06238
3180.99208	0.06158
3179.70631	0.06104
3178.42054	0.06081
3177.13477	0.06069
3175.84900	0.06059
3174.56323	0.06064
3173.27746	0.06095
3171.99170	0.06137
3170.70593	0.06151
3169.42016	0.06118
3168.13439	0.06061
3166.84862	0.06013
3165.56285	0.05979
3164.27708	0.05937
3162.99131	0.05881
3161.70555	0.05839
3160.41978	0.05838
3159.13401	0.05872
3157.84824	0.05909
3156.56247	0.05927
3155.27670	0.05921
3153.99093	0.05896
3152.70516	0.05862
3151.41939	0.05837
3150.13363	0.05834
3148.84786	0.05853
3147.56209	0.05885
3146.27632	0.05922
3144.99055	0.05956
3143.70478	0.05983
3142.41901	0.05996
3141.13324	0.05995
3139.84748	0.05976
3138.56171	0.05937
3137.27594	0.05881
3135.99017	0.05832
3134.70440	0.05808
3133.41863	0.05811
3132.13286	0.05821
3130.84709	0.05823
3129.56132	0.05812
3128.27556	0.05797
3126.98979	0.05792
3125.70402	0.05806
3124.41825	0.05833
3123.13248	0.05855
3121.84671	0.05849
3120.56094	0.05815
3119.27517	0.05778
3117.98940	0.05762
3116.70364	0.05770
3115.41787	0.05785
3114.13210	0.05791
3112.84633	0.05781
3111.56056	0.05759
3110.27479	0.05737
3108.98902	0.05726
3107.70325	0.05728
3106.41749	0.05731
3105.13172	0.05724
3103.84595	0.05703
3102.56018	0.05671
3101.27441	0.05628
3099.98864	0.05579
3098.70287	0.05543
3097.41710	0.05539
3096.13133	0.05566
3094.84557	0.05609
3093.55980	0.05649
3092.27403	0.05672
3090.98826	0.05670
3089.70249	0.05639
3088.41672	0.05587
3087.13095	0.05539
3085.84518	0.05518
3084.55942	0.05533
3083.27365	0.05566
3081.98788	0.05588
3080.70211	0.05585
3079.41634	0.05569
3078.13057	0.05554
3076.84480	0.05547
3075.55903	0.05545
3074.27326	0.05542
3072.98750	0.05533
3071.70173	0.05518
3070.41596	0.05501
3069.13019	0.05491
3067.84442	0.05491
3066.55865	0.05493
3065.27288	0.05485
3063.98711	0.05466
3062.70135	0.05448
3061.41558	0.05449
3060.12981	0.05474
3058.84404	0.05511
3057.55827	0.05538
3056.27250	0.05539
3054.98673	0.05519
3053.70096	0.05492
3052.41519	0.05469
3051.12943	0.05451
3049.84366	0.05434
3048.55789	0.05418
3047.27212	0.05405
3045.98635	0.05390
3044.70058	0.05358
3043.41481	0.05305
3042.12904	0.05245
3040.84328	0.05201
3039.55751	0.05179
3038.27174	0.05174
3036.98597	0.05175
3035.70020	0.05173
3034.41443	0.05160
3033.12866	0.05141
3031.84289	0.05125
3030.55712	0.05124
3029.27136	0.05133
3027.98559	0.05147
3026.69982	0.05164
3025.41405	0.05186
3024.12828	0.05205
3022.84251	0.05211
3021.55674	0.05206
3020.27097	0.05202
3018.98521	0.05203
3017.69944	0.05200
3016.41367	0.05182
3015.12790	0.05149
3013.84213	0.05111
3012.55636	0.05077
3011.27059	0.05054
3009.98482	0.05044
3008.69905	0.05048
3007.41329	0.05062
3006.12752	0.05081
3004.84175	0.05091
3003.55598	0.05077
3002.27021	0.05030
3000.98444	0.04967
2999.69867	0.04919
2998.41290	0.04915
2997.12714	0.04942
2995.84137	0.04972
2994.55560	0.04997
2993.26983	0.05030
2991.98406	0.05075
2990.69829	0.05104
2989.41252	0.05092
2988.12675	0.05053
2986.84098	0.05031
2985.55522	0.05054
2984.26945	0.05107
2982.98368	0.05154
2981.69791	0.05177
2980.41214	0.05186
2979.12637	0.05194
2977.84060	0.05204
2976.55483	0.05215
2975.26907	0.05238
2973.98330	0.05284
2972.69753	0.05346
2971.41176	0.05406
2970.12599	0.05452
2968.84022	0.05489
2967.55445	0.05526
2966.26868	0.05566
2964.98291	0.05606
2963.69715	0.05643
2962.41138	0.05686
2961.12561	0.05739
2959.83984	0.05792
2958.55407	0.05825
2957.26830	0.05834
2955.98253	0.05843
2954.69676	0.05874
2953.41100	0.05929
2952.12523	0.05985
2950.83946	0.06024
2949.55369	0.06043
2948.26792	0.06054
2946.98215	0.06067
2945.69638	0.06079
2944.41061	0.06084
2943.12484	0.06081
2941.83908	0.06082
2940.55331	0.06100
2939.26754	0.06136
2937.98177	0.06183
2936.69600	0.06233
2935.41023	0.06278
2934.12446	0.06310
2932.83869	0.06325
2931.55293	0.06330
2930.26716	0.06338
2928.98139	0.06356
2927.69562	0.06381
2926.40985	0.06404
2925.12408	0.06410
2923.83831	0.06388
2922.55254	0.06340
2921.26677	0.06291
2919.98101	0.06265
2918.69524	0.06262
2917.40947	0.06260
2916.12370	0.06243
2914.83793	0.06212
2913.55216	0.06174
2912.26639	0.06132
2910.98062	0.06086
2909.69486	0.06042
2908.40909	0.06002
2907.12332	0.05962
2905.83755	0.05916
2904.55178	0.05870
2903.26601	0.05843
2901.98024	0.05836
2900.69447	0.05836
2899.40870	0.05824
2898.12294	0.05796
2896.83717	0.05758
2895.55140	0.05724
2894.26563	0.05706
2892.97986	0.05708
2891.69409	0.05714
2890.40832	0.05696
2889.12255	0.05645
2887.83678	0.05580
2886.55102	0.05529
2885.26525	0.05496
2883.97948	0.05471
2882.69371	0.05448
2881.40794	0.05439
2880.12217	0.05450
2878.83640	0.05474
2877.55063	0.05490
2876.26487	0.05493
2874.97910	0.05495
2873.69333	0.05511
2872.40756	0.05543
2871.12179	0.05581
2869.83602	0.05613
2868.55025	0.05627
2867.26448	0.05618
2865.97871	0.05589
2864.69295	0.05555
2863.40718	0.05528
2862.12141	0.05519
2860.83564	0.05525
2859.54987	0.05535
2858.26410	0.05537
2856.97833	0.05530
2855.69256	0.05523
2854.40680	0.05518
2853.12103	0.05507
2851.83526	0.05480
2850.54949	0.05441
2849.26372	0.05400
2847.97795	0.05362
2846.69218	0.05326
2845.40641	0.05284
2844.12064	0.05231
2842.83488	0.05165
2841.54911	0.05095
2840.26334	0.05033
2838.97757	0.04989
2837.69180	0.04958
2836.40603	0.04934
2835.12026	0.04915
2833.83449	0.04898
2832.54873	0.04878
2831.26296	0.04847
2829.97719	0.04808
2828.69142	0.04772
2827.40565	0.04743
2826.11988	0.04713
2824.83411	0.04671
2823.54834	0.04621
2822.26257	0.04588
2820.97681	0.04587
2819.69104	0.04604
2818.40527	0.04604
2817.11950	0.04571
2815.83373	0.04523
2814.54796	0.04490
2813.26219	0.04485
2811.97642	0.04496
2810.69066	0.04505
2809.40489	0.04502
2808.11912	0.04490
2806.83335	0.04473
2805.54758	0.04458
2804.26181	0.04451
2802.97604	0.04453
2801.69027	0.04462
2800.40450	0.04472
2799.11874	0.04481
2797.83297	0.04488
2796.54720	0.04492
2795.26143	0.04493
2793.97566	0.04483
2792.68989	0.04458
2791.40412	0.04417
2790.11835	0.04365
2788.83259	0.04314
2787.54682	0.04281
2786.26105	0.04273
2784.97528	0.04284
2783.68951	0.04298
2782.40374	0.04303
2781.11797	0.04302
2779.83220	0.04299
2778.54643	0.04295
2777.26067	0.04288
2775.97490	0.04283
2774.68913	0.04279
2773.40336	0.04270
2772.11759	0.04252
2770.83182	0.04224
2769.54605	0.04195
2768.26028	0.04171
2766.97452	0.04156
2765.68875	0.04149
2764.40298	0.04152
2763.11721	0.04165
2761.83144	0.04186
2760.54567	0.04204
2759.25990	0.04211
2757.97413	0.04199
2756.68836	0.04175
2755.40260	0.04149
2754.11683	0.04139
2752.83106	0.04150
2751.54529	0.04175
2750.25952	0.04199
2748.97375	0.04214
2747.68798	0.04220
2746.40221	0.04215
2745.11645	0.04193
2743.83068	0.04161
2742.54491	0.04135
2741.25914	0.04125
2739.97337	0.04124
2738.68760	0.04123
2737.40183	0.04123
2736.11606	0.04132
2734.83029	0.04145
2733.54453	0.04144
2732.25876	0.04119
2730.97299	0.04078
2729.68722	0.04043
2728.40145	0.04027
2727.11568	0.04022
2725.82991	0.04019
2724.54414	0.04013
2723.25838	0.04004
2721.97261	0.03993
2720.68684	0.03984
2719.40107	0.03985
2718.11530	0.03998
2716.82953	0.04009
2715.54376	0.04008
2714.25799	0.03995
2712.97222	0.03981
2711.68646	0.03979
2710.40069	0.03991
2709.11492	0.04007
2707.82915	0.04008
2706.54338	0.03990
2705.25761	0.03968
2703.97184	0.03954
2702.68607	0.03945
2701.40031	0.03936
2700.11454	0.03928
2698.82877	0.03926
2697.54300	0.03925
2696.25723	0.03916
2694.97146	0.03898
2693.68569	0.03881
2692.39992	0.03873
2691.11415	0.03876
2689.82839	0.03886
2688.54262	0.03899
2687.25685	0.03913
2685.97108	0.03922
2684.68531	0.03917
2683.39954	0.03889
2682.11377	0.03843
2680.82800	0.03801
2679.54224	0.03786
2678.25647	0.03804
2676.97070	0.03832
2675.68493	0.03849
2674.39916	0.03845
2673.11339	0.03830
2671.82762	0.03811
2670.54185	0.03793
2669.25608	0.03778
2667.97032	0.03773
2666.68455	0.03782
2665.39878	0.03798
2664.11301	0.03810
2662.82724	0.03813
2661.54147	0.03809
2660.25570	0.03802
2658.96993	0.03799
2657.68417	0.03804
2656.39840	0.03819
2655.11263	0.03839
2653.82686	0.03853
2652.54109	0.03847
2651.25532	0.03816
2649.96955	0.03768
2648.68378	0.03717
2647.39801	0.03676
2646.11225	0.03651
2644.82648	0.03649
2643.54071	0.03671
2642.25494	0.03699
2640.96917	0.03705
2639.68340	0.03679
2638.39763	0.03635
2637.11186	0.03597
2635.82609	0.03575
2634.54033	0.03559
2633.25456	0.03543
2631.96879	0.03522
2630.68302	0.03500
2629.39725	0.03478
2628.11148	0.03451
2626.82571	0.03420
2625.53994	0.03400
2624.25418	0.03403
2622.96841	0.03427
2621.68264	0.03452
2620.39687	0.03464
2619.11110	0.03470
2617.82533	0.03479
2616.53956	0.03482
2615.25379	0.03464
2613.96802	0.03423
2612.68226	0.03376
2611.39649	0.03343
2610.11072	0.03327
2608.82495	0.03317
2607.53918	0.03301
2606.25341	0.03274
2604.96764	0.03241
2603.68187	0.03211
2602.39611	0.03189
2601.11034	0.03182
2599.82457	0.03188
2598.53880	0.03202
2597.25303	0.03215
2595.96726	0.03221
2594.68149	0.03214
2593.39572	0.03190
2592.10995	0.03152
2590.82419	0.03107
2589.53842	0.03070
2588.25265	0.03054
2586.96688	0.03064
2585.68111	0.03090
2584.39534	0.03112
2583.10957	0.03118
2581.82380	0.03111
2580.53804	0.03108
2579.25227	0.03119
2577.96650	0.03145
2576.68073	0.03177
2575.39496	0.03200
2574.10919	0.03200
2572.82342	0.03183
2571.53765	0.03169
2570.25188	0.03169
2568.96612	0.03170
2567.68035	0.03154
2566.39458	0.03121
2565.10881	0.03084
2563.82304	0.03053
2562.53727	0.03027
2561.25150	0.03001
2559.96573	0.02978
2558.67997	0.02970
2557.39420	0.02982
2556.10843	0.02999
2554.82266	0.03000
2553.53689	0.02978
2552.25112	0.02955
2550.96535	0.02952
2549.67958	0.02971
2548.39381	0.02999
2547.10805	0.03024
2545.82228	0.03043
2544.53651	0.03053
2543.25074	0.03053
2541.96497	0.03041
2540.67920	0.03016
2539.39343	0.02979
2538.10766	0.02940
2536.82190	0.02910
2535.53613	0.02894
2534.25036	0.02890
2532.96459	0.02893
2531.67882	0.02901
2530.39305	0.02909
2529.10728	0.02912
2527.82151	0.02910
2526.53574	0.02916
2525.24998	0.02936
2523.96421	0.02953
2522.67844	0.02943
2521.39267	0.02900
2520.10690	0.02845
2518.82113	0.02803
2517.53536	0.02784
2516.24959	0.02781
2514.96383	0.02788
2513.67806	0.02801
2512.39229	0.02823
2511.10652	0.02860
2509.82075	0.02903
2508.53498	0.02938
2507.24921	0.02953
2505.96344	0.02951
2504.67767	0.02933
2503.39191	0.02895
2502.10614	0.02844
2500.82037	0.02802
2499.53460	0.02788
2498.24883	0.02789
2496.96306	0.02786
2495.67729	0.02774
2494.39152	0.02765
2493.10576	0.02772
2491.81999	0.02784
2490.53422	0.02787
2489.24845	0.02777
2487.96268	0.02761
2486.67691	0.02747
2485.39114	0.02739
2484.10537	0.02739
2482.81960	0.02751
2481.53384	0.02770
2480.24807	0.02783
2478.96230	0.02783
2477.67653	0.02779
2476.39076	0.02785
2475.10499	0.02809
2473.81922	0.02844
2472.53345	0.02876
2471.24769	0.02900
2469.96192	0.02909
2468.67615	0.02896
2467.39038	0.02865
2466.10461	0.02835
2464.81884	0.02828
2463.53307	0.02843
2462.24730	0.02852
2460.96153	0.02840
2459.67577	0.02816
2458.39000	0.02801
2457.10423	0.02803
2455.81846	0.02806
2454.53269	0.02791
2453.24692	0.02753
2451.96115	0.02704
2450.67538	0.02661
2449.38962	0.02630
2448.10385	0.02609
2446.81808	0.02603
2445.53231	0.02620
2444.24654	0.02655
2442.96077	0.02698
2441.67500	0.02738
2440.38923	0.02766
2439.10346	0.02773
2437.81770	0.02756
2436.53193	0.02726
2435.24616	0.02700
2433.96039	0.02681
2432.67462	0.02667
2431.38885	0.02654
2430.10308	0.02646
2428.81731	0.02646
2427.53155	0.02652
2426.24578	0.02654
2424.96001	0.02644
2423.67424	0.02619
2422.38847	0.02592
2421.10270	0.02581
2419.81693	0.02597
2418.53116	0.02625
2417.24539	0.02642
2415.95963	0.02639
2414.67386	0.02628
2413.38809	0.02626
2412.10232	0.02646
2410.81655	0.02683
2409.53078	0.02716
2408.24501	0.02720
2406.95924	0.02691
2405.67347	0.02650
2404.38771	0.02621
2403.10194	0.02611
2401.81617	0.02607
2400.53040	0.02598
2399.24463	0.02607
2397.95886	0.02618
2396.67309	0.02630
2395.38732	0.02637
2394.10156	0.02630
2392.81579	0.02610
2391.53002	0.02592
2390.24425	0.02584
2388.95848	0.02586
2387.67271	0.02590
2386.38694	0.02588
2385.10117	0.02579
2383.81540	0.02571
2382.52964	0.02568
2381.24387	0.02564
2379.95810	0.02551
2378.67233	0.02530
2377.38656	0.02509
2376.10079	0.02492
2374.81502	0.02485
2373.52925	0.02486
2372.24349	0.02503
2370.95772	0.02525
2369.67195	0.02551
2368.38618	0.02563
2367.10041	0.02550
2365.81464	0.02511
2364.52887	0.02479
2363.24310	0.02474
2361.95733	0.02495
2360.67157	0.02524
2359.38580	0.02556
2358.10003	0.02567
2356.81426	0.02553
2355.52849	0.02525
2354.24272	0.02493
2352.95695	0.02464
2351.67118	0.02430
2350.38542	0.02395
2349.09965	0.02394
2347.81388	0.02445
2346.52811	0.02510
2345.24234	0.02559
2343.95657	0.02593
2342.67080	0.02612
2341.38503	0.02585
2340.09926	0.02517
2338.81350	0.02481
2337.52773	0.02499
2336.24196	0.02505
2334.95619	0.02488
2333.67042	0.02493
2332.38465	0.02501
2331.09888	0.02425
2329.81311	0.02341
2328.52735	0.02352
2327.24158	0.02361
2325.95581	0.02390
2324.67004	0.02506
2323.38427	0.02596
2322.09850	0.02635
2320.81273	0.02719
2319.52696	0.02767
2318.24119	0.02781
2316.95543	0.02808
2315.66966	0.02785
2314.38389	0.02731
2313.09812	0.02681
2311.81235	0.02606
2310.52658	0.02548
2309.24081	0.02513
2307.95504	0.02495
2306.66928	0.02512
2305.38351	0.02537
2304.09774	0.02561
2302.81197	0.02578
2301.52620	0.02571
2300.24043	0.02543
2298.95466	0.02490
2297.66889	0.02430
2296.38312	0.02378
2295.09736	0.02345
2293.81159	0.02342
2292.52582	0.02366
2291.24005	0.02409
2289.95428	0.02452
2288.66851	0.02486
2287.38274	0.02507
2286.09697	0.02513
2284.81121	0.02506
2283.52544	0.02490
2282.23967	0.02478
2280.95390	0.02472
2279.66813	0.02461
2278.38236	0.02430
2277.09659	0.02379
2275.81082	0.02327
2274.52505	0.02293
2273.23929	0.02282
2271.95352	0.02286
2270.66775	0.02285
2269.38198	0.02268
2268.09621	0.02237
2266.81044	0.02201
2265.52467	0.02163
2264.23890	0.02120
2262.95314	0.02069
2261.66737	0.02012
2260.38160	0.01970
2259.09583	0.01966
2257.81006	0.02002
2256.52429	0.02048
2255.23852	0.02064
2253.95275	0.02035
2252.66698	0.01983
2251.38122	0.01946
2250.09545	0.01974
2248.80968	0.02066
2247.52391	0.02080
2246.23814	0.02085
2244.95237	0.02087
2243.66660	0.02077
2242.38083	0.02046
2241.09507	0.01998
2239.80930	0.01953
2238.52353	0.01925
2237.23776	0.01913
2235.95199	0.01898
2234.66622	0.01850
2233.38045	0.01761
2232.09468	0.01680
2230.80891	0.01691
2229.52315	0.01817
2228.23738	0.01982
2226.95161	0.02082
2225.66584	0.02078
2224.38007	0.02004
2223.09430	0.01908
2221.80853	0.01812
2220.52276	0.01722
2219.23700	0.01636
2217.95123	0.01561
2216.66546	0.01512
2215.37969	0.01497
2214.09392	0.01499
2212.80815	0.01493
2211.52238	0.01480
2210.23661	0.01496
2208.95084	0.01560
2207.66508	0.01643
2206.37931	0.01697
2205.09354	0.01712
2203.80777	0.01715
2202.52200	0.01732
2201.23623	0.01752
2199.95046	0.01748
2198.66469	0.01713
2197.37893	0.01678
2196.09316	0.01673
2194.80739	0.01691
2193.52162	0.01685
2192.23585	0.01625
2190.95008	0.01536
2189.66431	0.01465
2188.37854	0.01435
2187.09277	0.01447
2185.80701	0.01502
2184.52124	0.01583
2183.23547	0.01639
2181.94970	0.01623
2180.66393	0.01541
2179.37816	0.01449
2178.09239	0.01382
2176.80662	0.01330
2175.52085	0.01277
2174.23509	0.01233
2172.94932	0.01218
2171.66355	0.01227
2170.37778	0.01238
2169.09201	0.01243
2167.80624	0.01238
2166.52047	0.01203
2165.23470	0.01116
2163.94894	0.00980
2162.66317	0.00811
2161.37740	0.00621
2160.09163	0.00440
2158.80586	0.00354
2157.52009	0.00450
2156.23432	0.00708
2154.94855	0.01004
2153.66278	0.01204
2152.37702	0.01259
2151.09125	0.01213
2149.80548	0.01157
2148.51971	0.01139
2147.23394	0.01147
2145.94817	0.01146
2144.66240	0.01119
2143.37663	0.01068
2142.09087	0.01018
2140.80510	0.01010
2139.51933	0.01063
2138.23356	0.01151
2136.94779	0.01232
2135.66202	0.01289
2134.37625	0.01319
2133.09048	0.01318
2131.80471	0.01293
2130.51895	0.01269
2129.23318	0.01277
2127.94741	0.01317
2126.66164	0.01376
2125.37587	0.01441
2124.09010	0.01502
2122.80433	0.01545
2121.51856	0.01565
2120.23280	0.01566
2118.94703	0.01567
2117.66126	0.01589
2116.37549	0.01634
2115.08972	0.01675
2113.80395	0.01678
2112.51818	0.01637
2111.23241	0.01581
2109.94664	0.01549
2108.66088	0.01549
2107.37511	0.01570
2106.08934	0.01589
2104.80357	0.01595
2103.51780	0.01590
2102.23203	0.01573
2100.94626	0.01546
2099.66049	0.01632
2098.37473	0.01646
2097.08896	0.01597
2095.80319	0.01536
2094.51742	0.01484
2093.23165	0.01452
2091.94588	0.01451
2090.66011	0.01477
2089.37434	0.01511
2088.08857	0.01536
2086.80281	0.01538
2085.51704	0.01515
2084.23127	0.01463
2082.94550	0.01386
2081.65973	0.01306
2080.37396	0.01265
2079.08819	0.01291
2077.80242	0.01372
2076.51666	0.01468
2075.23089	0.01542
2073.94512	0.01580
2072.65935	0.01588
2071.37358	0.01574
2070.08781	0.01545
2068.80204	0.01501
2067.51627	0.01443
2066.23050	0.01382
2064.94474	0.01345
2063.65897	0.01353
2062.37320	0.01392
2061.08743	0.01408
2059.80166	0.01358
2058.51589	0.01252
2057.23012	0.01150
2055.94435	0.01101
2054.65859	0.01107
2053.37282	0.01134
2052.08705	0.01151
2050.80128	0.01148
2049.51551	0.01133
2048.22974	0.01129
2046.94397	0.01146
2045.65820	0.01160
2044.37243	0.01135
2043.08667	0.01057
2041.80090	0.00947
2040.51513	0.00840
2039.22936	0.00750
2037.94359	0.00680
2036.65782	0.00635
2035.37205	0.00621
2034.08628	0.00625
2032.80052	0.00626
2031.51475	0.00626
2030.22898	0.00651
2028.94321	0.00725
2027.65744	0.00833
2026.37167	0.00938
2025.08590	0.01006
2023.80013	0.01017
2022.51436	0.00973
2021.22860	0.00895
2019.94283	0.00826
2018.65706	0.00802
2017.37129	0.00824
2016.08552	0.00869
2014.79975	0.00924
2013.51398	0.00997
2012.22821	0.01092
2010.94245	0.01178
2009.65668	0.01217
2008.37091	0.01199
2007.08514	0.01152
2005.79937	0.01107
2004.51360	0.01067
2003.22783	0.01018
2001.94206	0.00955
2000.65629	0.00905
1999.37053	0.00899
1998.08476	0.00934
1996.79899	0.00975
1995.51322	0.00991
1994.22745	0.00994
1992.94168	0.01012
1991.65591	0.01053
1990.37014	0.01104
1989.08438	0.01146
1987.79861	0.01169
1986.51284	0.01171
1985.22707	0.01159
1983.94130	0.01152
1982.65553	0.01169
1981.36976	0.01207
1980.08399	0.01228
1978.79822	0.01204
1977.51246	0.01148
1976.22669	0.01114
1974.94092	0.01142
1973.65515	0.01216
1972.36938	0.01280
1971.08361	0.01300
1969.79784	0.01289
1968.51207	0.01277
1967.22631	0.01271
1965.94054	0.01252
1964.65477	0.01222
1963.36900	0.01207
1962.08323	0.01214
1960.79746	0.01212
1959.51169	0.01169
1958.22592	0.01096
1956.94015	0.01040
1955.65439	0.01041
1954.36862	0.01093
1953.08285	0.01163
1951.79708	0.01237
1950.51131	0.01320
1949.22554	0.01412
1947.93977	0.01489
1946.65400	0.01538
1945.36823	0.01564
1944.08247	0.01578
1942.79670	0.01576
1941.51093	0.01556
1940.22516	0.01538
1938.93939	0.01537
1937.65362	0.01540
1936.36785	0.01523
1935.08208	0.01481
1933.79632	0.01442
1932.51055	0.01438
1931.22478	0.01476
1929.93901	0.01532
1928.65324	0.01569
1927.36747	0.01571
1926.08170	0.01548
1924.79593	0.01528
1923.51016	0.01523
1922.22440	0.01527
1920.93863	0.01532
1919.65286	0.01534
1918.36709	0.01537
1917.08132	0.01540
1915.79555	0.01541
1914.50978	0.01546
1913.22401	0.01566
1911.93825	0.01603
1910.65248	0.01639
1909.36671	0.01653
1908.08094	0.01643
1906.79517	0.01619
1905.50940	0.01597
1904.22363	0.01582
1902.93786	0.01574
1901.65209	0.01565
1900.36633	0.01551
1899.08056	0.01536
1897.79479	0.01534
1896.50902	0.01549
1895.22325	0.01573
1893.93748	0.01591
1892.65171	0.01595
1891.36594	0.01586
1890.08018	0.01568
1888.79441	0.01546
1887.50864	0.01525
1886.22287	0.01513
1884.93710	0.01518
1883.65133	0.01544
1882.36556	0.01580
1881.07979	0.01604
1879.79402	0.01600
1878.50826	0.01571
1877.22249	0.01538
1875.93672	0.01527
1874.65095	0.01548
1873.36518	0.01586
1872.07941	0.01617
1870.79364	0.01625
1869.50787	0.01613
1868.22211	0.01596
1866.93634	0.01586
1865.65057	0.01582
1864.36480	0.01580
1863.07903	0.01576
1861.79326	0.01569
1860.50749	0.01563
1859.22172	0.01563
1857.93595	0.01571
1856.65019	0.01584
1855.36442	0.01600
1854.07865	0.01614
1852.79288	0.01621
1851.50711	0.01620
1850.22134	0.01615
1848.93557	0.01616
1847.64980	0.01627
1846.36404	0.01638
1845.07827	0.01634
1843.79250	0.01612
1842.50673	0.01582
1841.22096	0.01556
1839.93519	0.01538
1838.64942	0.01528
1837.36365	0.01526
1836.07788	0.01531
1834.79212	0.01538
1833.50635	0.01545
1832.22058	0.01554
1830.93481	0.01566
1829.64904	0.01578
1828.36327	0.01592
1827.07750	0.01611
1825.79173	0.01643
1824.50597	0.01683
1823.22020	0.01717
1821.93443	0.01728
1820.64866	0.01707
1819.36289	0.01662
1818.07712	0.01613
1816.79135	0.01579
1815.50558	0.01565
1814.21981	0.01563
1812.93405	0.01560
1811.64828	0.01558
1810.36251	0.01563
1809.07674	0.01576
1807.79097	0.01587
1806.50520	0.01589
1805.21943	0.01587
1803.93366	0.01587
1802.64790	0.01598
1801.36213	0.01616
1800.07636	0.01637
1798.79059	0.01652
1797.50482	0.01659
1796.21905	0.01657
1794.93328	0.01650
1793.64751	0.01637
1792.36174	0.01617
1791.07598	0.01596
1789.79021	0.01582
1788.50444	0.01586
1787.21867	0.01604
1785.93290	0.01622
1784.64713	0.01628
1783.36136	0.01624
1782.07559	0.01622
1780.78983	0.01628
1779.50406	0.01635
1778.21829	0.01637
1776.93252	0.01634
1775.64675	0.01632
1774.36098	0.01633
1773.07521	0.01636
1771.78944	0.01636
1770.50367	0.01636
1769.21791	0.01641
1767.93214	0.01650
1766.64637	0.01655
1765.36060	0.01652
1764.07483	0.01644
1762.78906	0.01641
1761.50329	0.01646
1760.21752	0.01651
1758.93176	0.01650
1757.64599	0.01641
1756.36022	0.01636
1755.07445	0.01645
1753.78868	0.01670
1752.50291	0.01699
1751.21714	0.01717
1749.93137	0.01718
1748.64560	0.01704
1747.35984	0.01688
1746.07407	0.01678
1744.78830	0.01678
1743.50253	0.01686
1742.21676	0.01698
1740.93099	0.01708
1739.64522	0.01718
1738.35945	0.01729
1737.07369	0.01741
1735.78792	0.01749
1734.50215	0.01745
1733.21638	0.01727
1731.93061	0.01706
1730.64484	0.01694
1729.35907	0.01696
1728.07330	0.01707
1726.78753	0.01720
1725.50177	0.01731
1724.21600	0.01742
1722.93023	0.01757
1721.64446	0.01780
1720.35869	0.01811
1719.07292	0.01844
1717.78715	0.01873
1716.50138	0.01896
1715.21561	0.01915
1713.92985	0.01931
1712.64408	0.01945
1711.35831	0.01961
1710.07254	0.01985
1708.78677	0.02021
1707.50100	0.02066
1706.21523	0.02117
1704.92946	0.02173
1703.64370	0.02238
1702.35793	0.02311
1701.07216	0.02384
1699.78639	0.02451
1698.50062	0.02513
1697.21485	0.02577
1695.92908	0.02642
1694.64331	0.02703
1693.35754	0.02757
1692.07178	0.02811
1690.78601	0.02870
1689.50024	0.02935
1688.21447	0.03008
1686.92870	0.03090
1685.64293	0.03177
1684.35716	0.03259
1683.07139	0.03327
1681.78563	0.03380
1680.49986	0.03430
1679.21409	0.03486
1677.92832	0.03554
1676.64255	0.03633
1675.35678	0.03713
1674.07101	0.03789
1672.78524	0.03860
1671.49947	0.03926
1670.21371	0.03992
1668.92794	0.04054
1667.64217	0.04113
1666.35640	0.04172
1665.07063	0.04235
1663.78486	0.04301
1662.49909	0.04366
1661.21332	0.04427
1659.92756	0.04482
1658.64179	0.04536
1657.35602	0.04596
1656.07025	0.04667
1654.78448	0.04742
1653.49871	0.04804
1652.21294	0.04839
1650.92717	0.04847
1649.64140	0.04845
1648.35564	0.04847
1647.06987	0.04854
1645.78410	0.04861
1644.49833	0.04866
1643.21256	0.04869
1641.92679	0.04871
1640.64102	0.04870
1639.35525	0.04863
1638.06949	0.04851
1636.78372	0.04832
1635.49795	0.04806
1634.21218	0.04769
1632.92641	0.04727
1631.64064	0.04684
1630.35487	0.04641
1629.06910	0.04594
1627.78333	0.04542
1626.49757	0.04482
1625.21180	0.04418
1623.92603	0.04355
1622.64026	0.04298
1621.35449	0.04251
1620.06872	0.04210
1618.78295	0.04171
1617.49718	0.04127
1616.21142	0.04073
1614.92565	0.04016
1613.63988	0.03962
1612.35411	0.03919
1611.06834	0.03885
1609.78257	0.03854
1608.49680	0.03825
1607.21103	0.03797
1605.92526	0.03770
1604.63950	0.03745
1603.35373	0.03724
1602.06796	0.03707
1600.78219	0.03694
1599.49642	0.03687
1598.21065	0.03684
1596.92488	0.03684
1595.63911	0.03682
1594.35335	0.03677
1593.06758	0.03671
1591.78181	0.03668
1590.49604	0.03670
1589.21027	0.03680
1587.92450	0.03694
1586.63873	0.03711
1585.35296	0.03730
1584.06719	0.03749
1582.78143	0.03770
1581.49566	0.03793
1580.20989	0.03821
1578.92412	0.03856
1577.63835	0.03897
1576.35258	0.03936
1575.06681	0.03968
1573.78104	0.03994
1572.49528	0.04024
1571.20951	0.04060
1569.92374	0.04099
1568.63797	0.04134
1567.35220	0.04161
1566.06643	0.04184
1564.78066	0.04210
1563.49489	0.04245
1562.20912	0.04293
1560.92336	0.04344
1559.63759	0.04384
1558.35182	0.04405
1557.06605	0.04415
1555.78028	0.04426
1554.49451	0.04444
1553.20874	0.04467
1551.92297	0.04487
1550.63721	0.04502
1549.35144	0.04512
1548.06567	0.04522
1546.77990	0.04534
1545.49413	0.04547
1544.20836	0.04561
1542.92259	0.04571
1541.63682	0.04577
1540.35105	0.04572
1539.06529	0.04554
1537.77952	0.04530
1536.49375	0.04507
1535.20798	0.04494
1533.92221	0.04489
1532.63644	0.04487
1531.35067	0.04484
1530.06490	0.04484
1528.77914	0.04491
1527.49337	0.04503
1526.20760	0.04518
1524.92183	0.04537
1523.63606	0.04565
1522.35029	0.04604
1521.06452	0.04646
1519.77875	0.04686
1518.49298	0.04721
1517.20722	0.04755
1515.92145	0.04792
1514.63568	0.04835
1513.34991	0.04884
1512.06414	0.04940
1510.77837	0.05004
1509.49260	0.05076
1508.20683	0.05150
1506.92107	0.05218
1505.63530	0.05273
1504.34953	0.05312
1503.06376	0.05346
1501.77799	0.05385
1500.49222	0.05430
1499.20645	0.05477
1497.92068	0.05517
1496.63491	0.05549
1495.34915	0.05573
1494.06338	0.05595
1492.77761	0.05620
1491.49184	0.05652
1490.20607	0.05691
1488.92030	0.05736
1487.63453	0.05783
1486.34876	0.05835
1485.06299	0.05894
1483.77723	0.05962
1482.49146	0.06039
1481.20569	0.06120
1479.91992	0.06201
1478.63415	0.06280
1477.34838	0.06356
1476.06261	0.06431
1474.77684	0.06506
1473.49108	0.06580
1472.20531	0.06644
1470.91954	0.06694
1469.63377	0.06733
1468.34800	0.06768
1467.06223	0.06804
1465.77646	0.06839
1464.49069	0.06871
1463.20492	0.06901
1461.91916	0.06933
1460.63339	0.06974
1459.34762	0.07026
1458.06185	0.07085
1456.77608	0.07143
1455.49031	0.07192
1454.20454	0.07233
1452.91877	0.07266
1451.63301	0.07295
1450.34724	0.07320
1449.06147	0.07339
1447.77570	0.07354
1446.48993	0.07364
1445.20416	0.07366
1443.91839	0.07354
1442.63262	0.07327
1441.34685	0.07289
1440.06109	0.07250
1438.77532	0.07216
1437.48955	0.07187
1436.20378	0.07164
1434.91801	0.07147
1433.63224	0.07144
1432.34647	0.07159
1431.06070	0.07190
1429.77494	0.07230
1428.48917	0.07281
1427.20340	0.07345
1425.91763	0.07425
1424.63186	0.07516
1423.34609	0.07612
1422.06032	0.07707
1420.77455	0.07798
1419.48878	0.07879
1418.20302	0.07947
1416.91725	0.08001
1415.63148	0.08047
1414.34571	0.08088
1413.05994	0.08125
1411.77417	0.08154
1410.48840	0.08171
1409.20263	0.08172
1407.91687	0.08157
1406.63110	0.08127
1405.34533	0.08082
1404.05956	0.08023
1402.77379	0.07948
1401.48802	0.07858
1400.20225	0.07758
1398.91648	0.07651
1397.63071	0.07539
1396.34495	0.07426
1395.05918	0.07311
1393.77341	0.07196
1392.48764	0.07081
1391.20187	0.06965
1389.91610	0.06850
1388.63033	0.06739
1387.34456	0.06633
1386.05880	0.06527
1384.77303	0.06416
1383.48726	0.06298
1382.20149	0.06179
1380.91572	0.06065
1379.62995	0.05958
1378.34418	0.05851
1377.05841	0.05735
1375.77264	0.05606
1374.48688	0.05464
1373.20111	0.05317
1371.91534	0.05171
1370.62957	0.05031
1369.34380	0.04899
1368.05803	0.04774
1366.77226	0.04656
1365.48649	0.04548
1364.20073	0.04448
1362.91496	0.04352
1361.62919	0.04257
1360.34342	0.04164
1359.05765	0.04073
1357.77188	0.03985
1356.48611	0.03903
1355.20034	0.03828
1353.91457	0.03763
1352.62881	0.03707
1351.34304	0.03658
1350.05727	0.03612
1348.77150	0.03569
1347.48573	0.03527
1346.19996	0.03486
1344.91419	0.03445
1343.62842	0.03408
1342.34266	0.03375
1341.05689	0.03348
1339.77112	0.03325
1338.48535	0.03301
1337.19958	0.03275
1335.91381	0.03246
1334.62804	0.03213
1333.34227	0.03178
1332.05650	0.03144
1330.77074	0.03114
1329.48497	0.03089
1328.19920	0.03068
1326.91343	0.03046
1325.62766	0.03021
1324.34189	0.02994
1323.05612	0.02966
1321.77035	0.02941
1320.48459	0.02919
1319.19882	0.02899
1317.91305	0.02881
1316.62728	0.02863
1315.34151	0.02845
1314.05574	0.02825
1312.76997	0.02800
1311.48420	0.02772
1310.19843	0.02745
1308.91267	0.02721
1307.62690	0.02702
1306.34113	0.02683
1305.05536	0.02662
1303.76959	0.02638
1302.48382	0.02617
1301.19805	0.02600
1299.91228	0.02586
1298.62652	0.02570
1297.34075	0.02551
1296.05498	0.02530
1294.76921	0.02512
1293.48344	0.02499
1292.19767	0.02491
1290.91190	0.02485
1289.62613	0.02482
1288.34036	0.02478
1287.05460	0.02472
1285.76883	0.02464
1284.48306	0.02454
1283.19729	0.02442
1281.91152	0.02431
1280.62575	0.02419
1279.33998	0.02408
1278.05421	0.02399
1276.76845	0.02390
1275.48268	0.02380
1274.19691	0.02368
1272.91114	0.02356
1271.62537	0.02344
1270.33960	0.02334
1269.05383	0.02329
1267.76806	0.02327
1266.48229	0.02325
1265.19653	0.02319
1263.91076	0.02309
1262.62499	0.02300
1261.33922	0.02296
1260.05345	0.02297
1258.76768	0.02300
1257.48191	0.02303
1256.19614	0.02299
1254.91037	0.02291
1253.62461	0.02282
1252.33884	0.02278
1251.05307	0.02278
1249.76730	0.02277
1248.48153	0.02272
1247.19576	0.02266
1245.90999	0.02263
1244.62422	0.02267
1243.33846	0.02273
1242.05269	0.02277
1240.76692	0.02275
1239.48115	0.02266
1238.19538	0.02255
1236.90961	0.02245
1235.62384	0.02236
1234.33807	0.02227
1233.05230	0.02214
1231.76654	0.02200
1230.48077	0.02188
1229.19500	0.02180
1227.90923	0.02172
1226.62346	0.02160
1225.33769	0.02143
1224.05192	0.02122
1222.76615	0.02100
1221.48039	0.02079
1220.19462	0.02059
1218.90885	0.02039
1217.62308	0.02017
1216.33731	0.01994
1215.05154	0.01973
1213.76577	0.01956
1212.48000	0.01948
1211.19423	0.01945
1209.90847	0.01946
1208.62270	0.01945
1207.33693	0.01941
1206.05116	0.01936
1204.76539	0.01931
1203.47962	0.01930
1202.19385	0.01934
1200.90808	0.01932
1199.62232	0.01913
1198.33655	0.01904
1197.05078	0.01890
1195.76501	0.01875
1194.47924	0.01864
1193.19347	0.01855
1191.90770	0.01845
1190.62193	0.01834
1189.33616	0.01825
1188.05040	0.01821
1186.76463	0.01821
1185.47886	0.01821
1184.19309	0.01816
1182.90732	0.01807
1181.62155	0.01796
1180.33578	0.01785
1179.05001	0.01775
1177.76425	0.01768
1176.47848	0.01767
1175.19271	0.01774
1173.90694	0.01783
1172.62117	0.01788
1171.33540	0.01789
1170.04963	0.01791
1168.76386	0.01797
1167.47809	0.01808
1166.19233	0.01820
1164.90656	0.01830
1163.62079	0.01836
1162.33502	0.01838
1161.04925	0.01837
1159.76348	0.01837
1158.47771	0.01839
1157.19194	0.01844
1155.90618	0.01851
1154.62041	0.01859
1153.33464	0.01869
1152.04887	0.01883
1150.76310	0.01900
1149.47733	0.01922
1148.19156	0.01953
1146.90579	0.01989
1145.62002	0.02024
1144.33426	0.02052
1143.04849	0.02078
1141.76272	0.02113
1140.47695	0.02163
1139.19118	0.02230
1137.90541	0.02309
1136.61964	0.02396
1135.33387	0.02486
1134.04811	0.02578
1132.76234	0.02675
1131.47657	0.02782
1130.19080	0.02908
1128.90503	0.03053
1127.61926	0.03217
1126.33349	0.03395
1125.04772	0.03587
1123.76195	0.03795
1122.47619	0.04017
1121.19042	0.04251
1119.90465	0.04494
1118.61888	0.04742
1117.33311	0.04990
1116.04734	0.05237
1114.76157	0.05481
1113.47580	0.05725
1112.19004	0.05970
1110.90427	0.06210
1109.61850	0.06438
1108.33273	0.06647
1107.04696	0.06842
1105.76119	0.07029
1104.47542	0.07217
1103.18965	0.07404
1101.90388	0.07591
1100.61812	0.07773
1099.33235	0.07948
1098.04658	0.08111
1096.76081	0.08263
1095.47504	0.08408
1094.18927	0.08547
1092.90350	0.08676
1091.61773	0.08793
1090.33197	0.08904
1089.04620	0.09020
1087.76043	0.09146
1086.47466	0.09281
1085.18889	0.09414
1083.90312	0.09536
1082.61735	0.09650
1081.33158	0.09766
1080.04581	0.09895
1078.76005	0.10035
1077.47428	0.10182
1076.18851	0.10337
1074.90274	0.10504
1073.61697	0.10683
1072.33120	0.10870
1071.04543	0.11062
1069.75966	0.11259
1068.47390	0.11461
1067.18813	0.11667
1065.90236	0.11876
1064.61659	0.12091
1063.33082	0.12312
1062.04505	0.12537
1060.75928	0.12758
1059.47351	0.12974
1058.18774	0.13186
1056.90198	0.13396
1055.61621	0.13603
1054.33044	0.13810
1053.04467	0.14018
1051.75890	0.14226
1050.47313	0.14431
1049.18736	0.14635
1047.90159	0.14847
1046.61583	0.15072
1045.33006	0.15307
1044.04429	0.15545
1042.75852	0.15781
1041.47275	0.16016
1040.18698	0.16251
1038.90121	0.16485
1037.61544	0.16721
1036.32967	0.16959
1035.04391	0.17196
1033.75814	0.17424
1032.47237	0.17631
1031.18660	0.17819
1029.90083	0.17994
1028.61506	0.18158
1027.32929	0.18303
1026.04352	0.18424
1024.75775	0.18520
1023.47199	0.18596
1022.18622	0.18654
1020.90045	0.18689
1019.61468	0.18694
1018.32891	0.18666
1017.04314	0.18609
1015.75737	0.18532
1014.47160	0.18436
1013.18584	0.18316
1011.90007	0.18163
1010.61430	0.17973
1009.32853	0.17752
1008.04276	0.17505
1006.75699	0.17227
1005.47122	0.16911
1004.18545	0.16562
1002.89968	0.16192
1001.61392	0.15810
1000.32815	0.15420
999.04238	0.15020
997.75661	0.14609
996.47084	0.14190
995.18507	0.13764
993.89930	0.13335
992.61353	0.12914
991.32777	0.12507
990.04200	0.12115
988.75623	0.11733
987.47046	0.11359
986.18469	0.10998
984.89892	0.10653
983.61315	0.10325
982.32738	0.10015
981.04161	0.09726
979.75585	0.09455
978.47008	0.09197
977.18431	0.08951
975.89854	0.08724
974.61277	0.08522
973.32700	0.08349
972.04123	0.08205
970.75546	0.08091
969.46970	0.08005
968.18393	0.07953
966.89816	0.07938
965.61239	0.07957
964.32662	0.07999
963.04085	0.08046
961.75508	0.08081
960.46931	0.08090
959.18354	0.08069
957.89778	0.08013
956.61201	0.07926
955.32624	0.07807
954.04047	0.07661
952.75470	0.07494
951.46893	0.07318
950.18316	0.07145
948.89739	0.06985
947.61163	0.06838
946.32586	0.06697
945.04009	0.06556
943.75432	0.06412
942.46855	0.06271
941.18278	0.06138
939.89701	0.06014
938.61124	0.05898
937.32547	0.05788
936.03971	0.05684
934.75394	0.05588
933.46817	0.05501
932.18240	0.05418
930.89663	0.05336
929.61086	0.05255
928.32509	0.05177
927.03932	0.05105
925.75356	0.05038
924.46779	0.04974
923.18202	0.04915
921.89625	0.04860
920.61048	0.04813
919.32471	0.04774
918.03894	0.04737
916.75317	0.04695
915.46740	0.04644
914.18164	0.04590
912.89587	0.04539
911.61010	0.04492
910.32433	0.04446
909.03856	0.04397
907.75279	0.04345
906.46702	0.04297
905.18125	0.04257
903.89549	0.04226
902.60972	0.04195
901.32395	0.04154
900.03818	0.04103
898.75241	0.04047
897.46664	0.03995
896.18087	0.03953
894.89510	0.03922
893.60933	0.03900
892.32357	0.03884
891.03780	0.03874
889.75203	0.03871
888.46626	0.03885
887.18049	0.03922
885.89472	0.03988
884.60895	0.04084
883.32318	0.04217
882.03742	0.04389
880.75165	0.04580
879.46588	0.04755
878.18011	0.04891
876.89434	0.04995
875.60857	0.05094
874.32280	0.05198
873.03703	0.05295
871.75126	0.05363
870.46550	0.05386
869.17973	0.05355
867.89396	0.05269
866.60819	0.05131
865.32242	0.04959
864.03665	0.04775
862.75088	0.04600
861.46511	0.04440
860.17935	0.04295
858.89358	0.04168
857.60781	0.04067
856.32204	0.03994
855.03627	0.03945
853.75050	0.03910
852.46473	0.03876
851.17896	0.03836
849.89319	0.03792
848.60743	0.03752
847.32166	0.03722
846.03589	0.03700
844.75012	0.03676
843.46435	0.03645
842.17858	0.03608
840.89281	0.03570
839.60704	0.03532
838.32128	0.03494
837.03551	0.03456
835.74974	0.03426
834.46397	0.03407
833.17820	0.03399
831.89243	0.03389
830.60666	0.03369
829.32089	0.03342
828.03512	0.03320
826.74936	0.03307
825.46359	0.03298
824.17782	0.03284
822.89205	0.03268
821.60628	0.03256
820.32051	0.03250
819.03474	0.03251
817.74897	0.03252
816.46321	0.03250
815.17744	0.03240
813.89167	0.03220
812.60590	0.03196
811.32013	0.03179
810.03436	0.03175
808.74859	0.03180
807.46282	0.03187
806.17705	0.03192
804.89129	0.03196
803.60552	0.03202
802.31975	0.03207
801.03398	0.03207
799.74821	0.03204
798.46244	0.03202
797.17667	0.03202
795.89090	0.03202
794.60513	0.03201
793.31937	0.03200
792.03360	0.03199
790.74783	0.03197
789.46206	0.03196
788.17629	0.03192
786.89052	0.03183
785.60475	0.03169
784.31898	0.03155
783.03322	0.03151
781.74745	0.03158
780.46168	0.03168
779.17591	0.03172
777.89014	0.03163
776.60437	0.03145
775.31860	0.03126
774.03283	0.03114
772.74706	0.03113
771.46130	0.03121
770.17553	0.03133
768.88976	0.03144
767.60399	0.03149
766.31822	0.03144
765.03245	0.03128
763.74668	0.03109
762.46091	0.03099
761.17515	0.03106
759.88938	0.03122
758.60361	0.03137
757.31784	0.03142
756.03207	0.03142
754.74630	0.03139
753.46053	0.03137
752.17476	0.03135
750.88899	0.03130
749.60323	0.03118
748.31746	0.03096
747.03169	0.03068
745.74592	0.03042
744.46015	0.03027
743.17438	0.03024
741.88861	0.03026
740.60284	0.03023
739.31708	0.03009
738.03131	0.02990
736.74554	0.02975
735.45977	0.02974
734.17400	0.02988
732.88823	0.03010
731.60246	0.03024
730.31669	0.03029
729.03092	0.03032
727.74516	0.03040
726.45939	0.03050
725.17362	0.03054
723.88785	0.03027
722.60208	0.03040
721.31631	0.03075
720.03054	0.03111
718.74477	0.03140
717.45901	0.03156
716.17324	0.03154
714.88747	0.03135
713.60170	0.03105
712.31593	0.03073
711.03016	0.03046
709.74439	0.03026
708.45862	0.03012
707.17285	0.03004
705.88709	0.03002
704.60132	0.03008
703.31555	0.03014
702.02978	0.03016
700.74401	0.03014
699.45824	0.03015
698.17247	0.03024
696.88670	0.03039
695.60094	0.03054
694.31517	0.03065
693.02940	0.03072
691.74363	0.03076
690.45786	0.03076
689.17209	0.03068
687.88632	0.03053
686.60055	0.03034
685.31478	0.03016
684.02902	0.03000
682.74325	0.02982
681.45748	0.02960
680.17171	0.02936
678.88594	0.02916
677.60017	0.02903
676.31440	0.02899
675.02863	0.02899
673.74287	0.02899
672.45710	0.02899
671.17133	0.02899
669.88556	0.02904
668.59979	0.02923
667.31402	0.02931
666.02825	0.02914
664.74248	0.02914
663.45671	0.02913
662.17095	0.02904
660.88518	0.02889
659.59941	0.02870
658.31364	0.02852
657.02787	0.02839
655.74210	0.02833
654.45633	0.02833
653.17056	0.02837
651.88480	0.02842
650.59903	0.02846
649.31326	0.02849
648.02749	0.02849
646.74172	0.02846
645.45595	0.02841
644.17018	0.02837
642.88441	0.02838
641.59864	0.02843
640.31288	0.02846
639.02711	0.02846
637.74134	0.02842
636.45557	0.02840
635.16980	0.02845
633.88403	0.02861
632.59826	0.02882
631.31249	0.02924
630.02673	0.03055
628.74096	0.03231
627.45519	0.03163
626.16942	0.03366
624.88365	0.03754
623.59788	0.04143
622.31211	0.04491
621.02634	0.04798
619.74057	0.05024
618.45481	0.05106
617.16904	0.05033
615.88327	0.04875
614.59750	0.04742
613.31173	0.04731
612.02596	0.04895
610.74019	0.05255
609.45442	0.05777
608.16866	0.06347
606.88289	0.06834
605.59712	0.07193
604.31135	0.07457
603.02558	0.07645
601.73981	0.07729
600.45404	0.07682
599.16827	0.07526
597.88250	0.07320
596.59674	0.07115
595.31097	0.06926
594.02520	0.06748
592.73943	0.06581
591.45366	0.06442
590.16789	0.06352
588.88212	0.06319
587.59635	0.06332
586.31059	0.06380
585.02482	0.06464
583.73905	0.06586
582.45328	0.06732
581.16751	0.06882
579.88174	0.07029
578.59597	0.07180
577.31020	0.07345
576.02443	0.07520
574.73867	0.07698
573.45290	0.07882
572.16713	0.08090
570.88136	0.08337
569.59559	0.08624
568.30982	0.08930
567.02405	0.09221
565.73828	0.09473
564.45251	0.09670
563.16675	0.09803
561.88098	0.09854
560.59521	0.09810
559.30944	0.09675
558.02367	0.09460
556.73790	0.09177
555.45213	0.08842
554.16636	0.08469
552.88060	0.08081
551.59483	0.07695
550.30906	0.07326
549.02329	0.06982
547.73752	0.06668
546.45175	0.06389
545.16598	0.06150
543.88021	0.05948
542.59444	0.05777
541.30868	0.05623
540.02291	0.05476
538.73714	0.05333
537.45137	0.05196
536.16560	0.05072
534.87983	0.04959
533.59406	0.04855
532.30829	0.04757
531.02253	0.04671
529.73676	0.04602
528.45099	0.04542
527.16522	0.04477
525.87945	0.04401
524.59368	0.04320
523.30791	0.04244
522.02214	0.04176
520.73637	0.04111
519.45061	0.04041
518.16484	0.03964
516.87907	0.03883
515.59330	0.03807
514.30753	0.03745
513.02176	0.03697
511.73599	0.03659
510.45022	0.03623
509.16446	0.03584
507.87869	0.03544
506.59292	0.03508
505.30715	0.03473
504.02138	0.03435
502.73561	0.03391
501.44984	0.03344
500.16407	0.03299
498.87830	0.03261
497.59254	0.03233
496.30677	0.03208
495.02100	0.03181
493.73523	0.03152
492.44946	0.03124
491.16369	0.03102
489.87792	0.03087
488.59215	0.03080
487.30639	0.03080
486.02062	0.03082
484.73485	0.03080
483.44908	0.03073
482.16331	0.03065
480.87754	0.03057
479.59177	0.03055
478.30600	0.03064
477.02023	0.03080
475.73447	0.03096
474.44870	0.03105
473.16293	0.03105
471.87716	0.03104
470.59139	0.03106
469.30562	0.03112
468.01985	0.03118
466.73408	0.03118
465.44832	0.03106
464.16255	0.03079
462.87678	0.03042
461.59101	0.02998
460.30524	0.02955
459.01947	0.02916
457.73370	0.02881
456.44793	0.02848
455.16216	0.02815
453.87640	0.02782
452.59063	0.02748
451.30486	0.02715
450.01909	0.02686
448.73332	0.02662
447.44755	0.02641
446.16178	0.02621
444.87601	0.02603
443.59025	0.02586
442.30448	0.02570
441.01871	0.02552
439.73294	0.02534
438.44717	0.02517
437.16140	0.02503
435.87563	0.02495
434.58986	0.02491
433.30409	0.02487
432.01833	0.02478
430.73256	0.02464
429.44679	0.02447
428.16102	0.02429
426.87525	0.02412
425.58948	0.02392
424.30371	0.02372
423.01794	0.02351
421.73218	0.02332
420.44641	0.02313
419.16064	0.02295
417.87487	0.02276
416.58910	0.02257
415.30333	0.02237
414.01756	0.02215
412.73179	0.02191
411.44602	0.02166
410.16026	0.02143
408.87449	0.02125
407.58872	0.02113
406.30295	0.02108
405.01718	0.02111
403.73141	0.02120
402.44564	0.02130
401.15987	0.02138
399.87411	0.02145
