3997.45528 0.04081
3996.16951 0.03981
3994.88374 0.03900
3993.59798 0.03794
3992.31221 0.03662
3991.02644 0.03556
3989.74067 0.03544
3988.45490 0.03654
3987.16913 0.03832
3985.88336 0.03972
3984.59759 0.03997
3983.31183 0.03915
3982.02606 0.03791
3980.74029 0.03680
3979.45452 0.03603
3978.16875 0.03563
3976.88298 0.03568
3975.59721 0.03613
3974.31144 0.03674
3973.02567 0.03722
3971.73991 0.03744
3970.45414 0.03735
3969.16837 0.03694
3967.88260 0.03624
3966.59683 0.03553
3965.31106 0.03520
3964.02529 0.03543
3962.73952 0.03597
3961.45376 0.03644
3960.16799 0.03667
3958.88222 0.03690
3957.59645 0.03741
3956.31068 0.03809
3955.02491 0.03844
3953.73914 0.03811
3952.45337 0.03731
3951.16760 0.03660
3949.88184 0.03642
3948.59607 0.03688
3947.31030 0.03776
3946.02453 0.03858
3944.73876 0.03891
3943.45299 0.03865
3942.16722 0.03808
3940.88145 0.03760
3939.59569 0.03747
3938.30992 0.03768
3937.02415 0.03801
3935.73838 0.03823
3934.45261 0.03824
3933.16684 0.03806
3931.88107 0.03781
3930.59530 0.03761
3929.30953 0.03762
3928.02377 0.03789
3926.73800 0.03815
3925.45223 0.03793
3924.16646 0.03701
3922.88069 0.03577
3921.59492 0.03508
3920.30915 0.03572
3919.02338 0.03767
3917.73762 0.03990
3916.45185 0.04113
3915.16608 0.04088
3913.88031 0.03977
3912.59454 0.03880
3911.30877 0.03858
3910.02300 0.03911
3908.73723 0.04009
3907.45146 0.04119
3906.16570 0.04210
3904.87993 0.04248
3903.59416 0.04208
3902.30839 0.04096
3901.02262 0.03967
3899.73685 0.03888
3898.45108 0.03886
3897.16531 0.03925
3895.87955 0.03959
3894.59378 0.03975
3893.30801 0.03981
3892.02224 0.03974
3890.73647 0.03938
3889.45070 0.03888
3888.16493 0.03862
3886.87916 0.03873
3885.59339 0.03886
3884.30763 0.03858
3883.02186 0.03782
3881.73609 0.03688
3880.45032 0.03620
3879.16455 0.03616
3877.87878 0.03684
3876.59301 0.03786
3875.30724 0.03860
3874.02148 0.03872
3872.73571 0.03833
3871.44994 0.03765
3870.16417 0.03675
3868.87840 0.03577
3867.59263 0.03501
3866.30686 0.03472
3865.02109 0.03488
3863.73532 0.03524
3862.44956 0.03556
3861.16379 0.03570
3859.87802 0.03574
3858.59225 0.03601
3857.30648 0.03676
3856.02071 0.03774
3854.73494 0.03836
3853.44917 0.03841
3852.16341 0.03825
3850.87764 0.03815
3849.59187 0.03789
3848.30610 0.03723
3847.02033 0.03641
3845.73456 0.03594
3844.44879 0.03596
3843.16302 0.03631
3841.87725 0.03681
3840.59149 0.03745
3839.30572 0.03815
3838.01995 0.03874
3836.73418 0.03899
3835.44841 0.03880
3834.16264 0.03812
3832.87687 0.03708
3831.59110 0.03590
3830.30534 0.03482
3829.01957 0.03395
3827.73380 0.03339
3826.44803 0.03325
3825.16226 0.03364
3823.87649 0.03441
3822.59072 0.03513
3821.30495 0.03551
3820.01918 0.03568
3818.73342 0.03598
3817.44765 0.03647
3816.16188 0.03684
3814.87611 0.03680
3813.59034 0.03652
3812.30457 0.03649
3811.01880 0.03692
3809.73303 0.03752
3808.44726 0.03765
3807.16150 0.03693
3805.87573 0.03567
3804.58996 0.03462
3803.30419 0.03428
3802.01842 0.03450
3800.73265 0.03480
3799.44688 0.03489
3798.16111 0.03471
3796.87535 0.03425
3795.58958 0.03361
3794.30381 0.03311
3793.01804 0.03319
3791.73227 0.03389
3790.44650 0.03484
3789.16073 0.03562
3787.87496 0.03619
3786.58919 0.03669
3785.30343 0.03699
3784.01766 0.03675
3782.73189 0.03594
3781.44612 0.03509
3780.16035 0.03489
3778.87458 0.03544
3777.58881 0.03625
3776.30304 0.03667
3775.01728 0.03652
3773.73151 0.03612
3772.44574 0.03589
3771.15997 0.03585
3769.87420 0.03565
3768.58843 0.03508
3767.30266 0.03452
3766.01689 0.03452
3764.73112 0.03509
3763.44536 0.03562
3762.15959 0.03555
3760.87382 0.03492
3759.58805 0.03423
3758.30228 0.03389
3757.01651 0.03404
3755.73074 0.03452
3754.44497 0.03503
3753.15921 0.03522
3751.87344 0.03498
3750.58767 0.03457
3749.30190 0.03433
3748.01613 0.03432
3746.73036 0.03427
3745.44459 0.03401
3744.15882 0.03383
3742.87305 0.03417
3741.58729 0.03494
3740.30152 0.03549
3739.01575 0.03534
3737.72998 0.03467
3736.44421 0.03403
3735.15844 0.03373
3733.87267 0.03374
3732.58690 0.03400
3731.30114 0.03458
3730.01537 0.03539
3728.72960 0.03606
3727.44383 0.03625
3726.15806 0.03599
3724.87229 0.03550
3723.58652 0.03493
3722.30075 0.03430
3721.01498 0.03365
3719.72922 0.03308
3718.44345 0.03269
3717.15768 0.03261
3715.87191 0.03295
3714.58614 0.03362
3713.30037 0.03428
3712.01460 0.03465
3710.72883 0.03487
3709.44307 0.03537
3708.15730 0.03642
3706.87153 0.03780
3705.58576 0.03889
3704.29999 0.03916
3703.01422 0.03874
3701.72845 0.03822
3700.44268 0.03785
3699.15691 0.03726
3697.87115 0.03616
3696.58538 0.03483
3695.29961 0.03377
3694.01384 0.03320
3692.72807 0.03298
3691.44230 0.03274
3690.15653 0.03220
3688.87076 0.03138
3687.58500 0.03062
3686.29923 0.03030
3685.01346 0.03075
3683.72769 0.03178
3682.44192 0.03272
3681.15615 0.03303
3679.87038 0.03283
3678.58461 0.03271
3677.29884 0.03310
3676.01308 0.03377
3674.72731 0.03428
3673.44154 0.03452
3672.15577 0.03465
3670.87000 0.03472
3669.58423 0.03465
3668.29846 0.03441
3667.01269 0.03417
3665.72693 0.03411
3664.44116 0.03423
3663.15539 0.03439
3661.86962 0.03452
3660.58385 0.03471
3659.29808 0.03503
3658.01231 0.03542
3656.72654 0.03581
3655.44077 0.03630
3654.15501 0.03706
3652.86924 0.03792
3651.58347 0.03841
3650.29770 0.03813
3649.01193 0.03722
3647.72616 0.03620
3646.44039 0.03555
3645.15462 0.03538
3643.86886 0.03552
3642.58309 0.03573
3641.29732 0.03586
3640.01155 0.03589
3638.72578 0.03585
3637.44001 0.03573
3636.15424 0.03551
3634.86847 0.03532
3633.58270 0.03539
3632.29694 0.03583
3631.01117 0.03632
3629.72540 0.03638
3628.43963 0.03579
3627.15386 0.03489
3625.86809 0.03422
3624.58232 0.03403
3623.29655 0.03428
3622.01079 0.03483
3620.72502 0.03553
3619.43925 0.03618
3618.15348 0.03667
3616.86771 0.03710
3615.58194 0.03767
3614.29617 0.03841
3613.01040 0.03925
3611.72463 0.04003
3610.43887 0.04046
3609.15310 0.04027
3607.86733 0.03957
3606.58156 0.03897
3605.29579 0.03893
3604.01002 0.03927
3602.72425 0.03947
3601.43848 0.03948
3600.15272 0.03962
3598.86695 0.04009
3597.58118 0.04058
3596.29541 0.04066
3595.00964 0.04016
3593.72387 0.03938
3592.43810 0.03898
3591.15233 0.03953
3589.86656 0.04096
3588.58080 0.04252
3587.29503 0.04332
3586.00926 0.04290
3584.72349 0.04153
3583.43772 0.04002
3582.15195 0.03913
3580.86618 0.03923
3579.58041 0.04023
3578.29464 0.04168
3577.00888 0.04299
3575.72311 0.04385
3574.43734 0.04425
3573.15157 0.04437
3571.86580 0.04430
3570.58003 0.04400
3569.29426 0.04347
3568.00849 0.04293
3566.72273 0.04279
3565.43696 0.04318
3564.15119 0.04374
3562.86542 0.04395
3561.57965 0.04367
3560.29388 0.04329
3559.00811 0.04333
3557.72234 0.04408
3556.43657 0.04537
3555.15081 0.04668
3553.86504 0.04742
3552.57927 0.04730
3551.29350 0.04654
3550.00773 0.04574
3548.72196 0.04536
3547.43619 0.04539
3546.15042 0.04561
3544.86466 0.04596
3543.57889 0.04668
3542.29312 0.04786
3541.00735 0.04913
3539.72158 0.04990
3538.43581 0.04980
3537.15004 0.04892
3535.86427 0.04767
3534.57850 0.04655
3533.29274 0.04593
3532.00697 0.04594
3530.72120 0.04655
3529.43543 0.04752
3528.14966 0.04851
3526.86389 0.04918
3525.57812 0.04944
3524.29235 0.04948
3523.00659 0.04948
3521.72082 0.04937
3520.43505 0.04899
3519.14928 0.04842
3517.86351 0.04799
3516.57774 0.04805
3515.29197 0.04868
3514.00620 0.04974
3512.72043 0.05088
3511.43467 0.05169
3510.14890 0.05189
3508.86313 0.05152
3507.57736 0.05084
3506.29159 0.05016
3505.00582 0.04968
3503.72005 0.04952
3502.43428 0.04968
3501.14852 0.05012
3499.86275 0.05083
3498.57698 0.05178
3497.29121 0.05280
3496.00544 0.05353
3494.71967 0.05370
3493.43390 0.05329
3492.14813 0.05255
3490.86236 0.05180
3489.57660 0.05131
3488.29083 0.05135
3487.00506 0.05199
3485.71929 0.05307
3484.43352 0.05416
3483.14775 0.05488
3481.86198 0.05515
3480.57621 0.05510
3479.29045 0.05485
3478.00468 0.05448
3476.71891 0.05412
3475.43314 0.05399
3474.14737 0.05425
3472.86160 0.05486
3471.57583 0.05569
3470.29006 0.05640
3469.00429 0.05665
3467.71853 0.05629
3466.43276 0.05566
3465.14699 0.05530
3463.86122 0.05547
3462.57545 0.05597
3461.28968 0.05638
3460.00391 0.05650
3458.71814 0.05644
3457.43238 0.05637
3456.14661 0.05636
3454.86084 0.05635
3453.57507 0.05631
3452.28930 0.05627
3451.00353 0.05628
3449.71776 0.05635
3448.43199 0.05644
3447.14622 0.05648
3445.86046 0.05643
3444.57469 0.05644
3443.28892 0.05676
3442.00315 0.05753
3440.71738 0.05846
3439.43161 0.05898
3438.14584 0.05880
3436.86007 0.05822
3435.57431 0.05764
3434.28854 0.05718
3433.00277 0.05677
3431.71700 0.05668
3430.43123 0.05731
3429.14546 0.05854
3427.85969 0.05960
3426.57392 0.05983
3425.28815 0.05932
3424.00239 0.05872
3422.71662 0.05848
3421.43085 0.05868
3420.14508 0.05922
3418.85931 0.05996
3417.57354 0.06067
3416.28777 0.06114
3415.00200 0.06130
3413.71624 0.06133
3412.43047 0.06133
3411.14470 0.06120
3409.85893 0.06080
3408.57316 0.06035
3407.28739 0.06028
3406.00162 0.06075
3404.71585 0.06136
3403.43008 0.06156
3402.14432 0.06138
3400.85855 0.06132
3399.57278 0.06133
3398.28701 0.06149
3397.00124 0.06203
3395.71547 0.06246
3394.42970 0.06240
3393.14393 0.06192
3391.85817 0.06134
3390.57240 0.06099
3389.28663 0.06101
3388.00086 0.06137
3386.71509 0.06206
3385.42932 0.06303
3384.14355 0.06407
3382.85778 0.06479
3381.57201 0.06487
3380.28625 0.06432
3379.00048 0.06350
3377.71471 0.06277
3376.42894 0.06232
3375.14317 0.06222
3373.85740 0.06251
3372.57163 0.06313
3371.28586 0.06381
3370.00010 0.06422
3368.71433 0.06421
3367.42856 0.06391
3366.14279 0.06348
3364.85702 0.06305
3363.57125 0.06279
3362.28548 0.06282
3360.99971 0.06312
3359.71394 0.06346
3358.42818 0.06362
3357.14241 0.06351
3355.85664 0.06324
3354.57087 0.06307
3353.28510 0.06321
3351.99933 0.06372
3350.71356 0.06444
3349.42779 0.06505
3348.14202 0.06522
3346.85626 0.06480
3345.57049 0.06407
3344.28472 0.06363
3342.99895 0.06388
3341.71318 0.06456
3340.42741 0.06497
3339.14164 0.06464
3337.85587 0.06384
3336.57011 0.06321
3335.28434 0.06325
3333.99857 0.06397
3332.71280 0.06503
3331.42703 0.06598
3330.14126 0.06644
3328.85549 0.06624
3327.56972 0.06557
3326.28395 0.06484
3324.99819 0.06444
3323.71242 0.06451
3322.42665 0.06488
3321.14088 0.06534
3319.85511 0.06568
3318.56934 0.06579
3317.28357 0.06558
3315.99780 0.06521
3314.71204 0.06505
3313.42627 0.06540
3312.14050 0.06617
3310.85473 0.06695
3309.56896 0.06741
3308.28319 0.06749
3306.99742 0.06728
3305.71165 0.06687
3304.42588 0.06634
3303.14012 0.06589
3301.85435 0.06573
3300.56858 0.06596
3299.28281 0.06644
3297.99704 0.06687
3296.71127 0.06706
3295.42550 0.06705
3294.13973 0.06697
3292.85397 0.06695
3291.56820 0.06706
3290.28243 0.06729
3288.99666 0.06765
3287.71089 0.06801
3286.42512 0.06821
3285.13935 0.06819
3283.85358 0.06815
3282.56781 0.06830
3281.28205 0.06857
3279.99628 0.06870
3278.71051 0.06851
3277.42474 0.06804
3276.13897 0.06742
3274.85320 0.06679
3273.56743 0.06633
3272.28166 0.06626
3270.99590 0.06663
3269.71013 0.06722
3268.42436 0.06771
3267.13859 0.06799
3265.85282 0.06819
3264.56705 0.06846
3263.28128 0.06874
3261.99551 0.06888
3260.70974 0.06883
3259.42398 0.06862
3258.13821 0.06827
3256.85244 0.06777
3255.56667 0.06729
3254.28090 0.06708
3252.99513 0.06721
3251.70936 0.06743
3250.42359 0.06747
3249.13783 0.06727
3247.85206 0.06689
3246.56629 0.06639
3245.28052 0.06573
3243.99475 0.06498
3242.70898 0.06432
3241.42321 0.06403
3240.13744 0.06435
3238.85167 0.06517
3237.56591 0.06602
3236.28014 0.06644
3234.99437 0.06631
3233.70860 0.06585
3232.42283 0.06534
3231.13706 0.06500
3229.85129 0.06494
3228.56552 0.06504
3227.27976 0.06498
3225.99399 0.06454
3224.70822 0.06385
3223.42245 0.06332
3222.13668 0.06323
3220.85091 0.06351
3219.56514 0.06393
3218.27937 0.06431
3216.99360 0.06459
3215.70784 0.06476
3214.42207 0.06477
3213.13630 0.06456
3211.85053 0.06414
3210.56476 0.06369
3209.27899 0.06346
3207.99322 0.06352
3206.70745 0.06362
3205.42169 0.06344
3204.13592 0.06304
3202.85015 0.06286
3201.56438 0.06320
3200.27861 0.06373
3198.99284 0.06390
3197.70707 0.06365
3196.42130 0.06342
3195.13553 0.06354
3193.84977 0.06380
3192.56400 0.06384
3191.27823 0.06362
3189.99246 0.06344
3188.70669 0.06351
3187.42092 0.06374
3186.13515 0.06390
3184.84938 0.06390
3183.56362 0.06382
3182.27785 0.06375
3180.99208 0.06372
3179.70631 0.06365
3178.42054 0.06345
3177.13477 0.06307
3175.84900 0.06258
3174.56323 0.06211
3173.27746 0.06173
3171.99170 0.06145
3170.70593 0.06114
3169.42016 0.06069
3168.13439 0.06013
3166.84862 0.05966
3165.56285 0.05953
3164.27708 0.05987
3162.99131 0.06055
3161.70555 0.06127
3160.41978 0.06175
3159.13401 0.06185
3157.84824 0.06151
3156.56247 0.06079
3155.27670 0.05982
3153.99093 0.05888
3152.70516 0.05827
3151.41939 0.05812
3150.13363 0.05834
3148.84786 0.05865
3147.56209 0.05888
3146.27632 0.05906
3144.99055 0.05934
3143.70478 0.05977
3142.41901 0.06024
3141.13324 0.06057
3139.84748 0.06070
3138.56171 0.06068
3137.27594 0.06065
3135.99017 0.06070
3134.70440 0.06083
3133.41863 0.06096
3132.13286 0.06098
3130.84709 0.06077
3129.56132 0.06023
3128.27556 0.05939
3126.98979 0.05844
3125.70402 0.05771
3124.41825 0.05737
3123.13248 0.05739
3121.84671 0.05758
3120.56094 0.05782
3119.27517 0.05809
3117.98940 0.05839
3116.70364 0.05868
3115.41787 0.05884
3114.13210 0.05881
3112.84633 0.05863
3111.56056 0.05834
3110.27479 0.05797
3108.98902 0.05758
3107.70325 0.05735
3106.41749 0.05732
3105.13172 0.05737
3103.84595 0.05734
3102.56018 0.05728
3101.27441 0.05739
3099.98864 0.05769
3098.70287 0.05800
3097.41710 0.05814
3096.13133 0.05814
3094.84557 0.05816
3093.55980 0.05832
3092.27403 0.05858
3090.98826 0.05881
3089.70249 0.05891
3088.41672 0.05880
3087.13095 0.05844
3085.84518 0.05795
3084.55942 0.05752
3083.27365 0.05733
3081.98788 0.05731
3080.70211 0.05734
3079.41634 0.05737
3078.13057 0.05754
3076.84480 0.05793
3075.55903 0.05839
3074.27326 0.05862
3072.98750 0.05851
3071.70173 0.05826
3070.41596 0.05814
3069.13019 0.05814
3067.84442 0.05806
3066.55865 0.05780
3065.27288 0.05757
3063.98711 0.05748
3062.70135 0.05743
3061.41558 0.05722
3060.12981 0.05683
3058.84404 0.05649
3057.55827 0.05643
3056.27250 0.05668
3054.98673 0.05705
3053.70096 0.05723
3052.41519 0.05705
3051.12943 0.05658
3049.84366 0.05602
3048.55789 0.05558
3047.27212 0.05532
3045.98635 0.05517
3044.70058 0.05510
3043.41481 0.05507
3042.12904 0.05508
3040.84328 0.05511
3039.55751 0.05512
3038.27174 0.05510
3036.98597 0.05506
3035.70020 0.05504
3034.41443 0.05500
3033.12866 0.05488
3031.84289 0.05462
3030.55712 0.05429
3029.27136 0.05406
3027.98559 0.05402
3026.69982 0.05413
3025.41405 0.05421
3024.12828 0.05414
3022.84251 0.05396
3021.55674 0.05381
3020.27097 0.05374
3018.98521 0.05374
3017.69944 0.05376
3016.41367 0.05374
3015.12790 0.05360
3013.84213 0.05334
3012.55636 0.05303
3011.27059 0.05274
3009.98482 0.05249
3008.69905 0.05230
3007.41329 0.05225
3006.12752 0.05234
3004.84175 0.05247
3003.55598 0.05252
3002.27021 0.05263
3000.98444 0.05278
2999.69867 0.05256
2998.41290 0.05294
2997.12714 0.05350
2995.84137 0.05398
2994.55560 0.05415
2993.26983 0.05395
2991.98406 0.05356
2990.69829 0.05327
2989.41252 0.05319
2988.12675 0.05318
2986.84098 0.05305
2985.55522 0.05284
2984.26945 0.05274
2982.98368 0.05290
2981.69791 0.05321
2980.41214 0.05350
2979.12637 0.05373
2977.84060 0.05390
2976.55483 0.05403
2975.26907 0.05412
2973.98330 0.05426
2972.69753 0.05455
2971.41176 0.05502
2970.12599 0.05563
2968.84022 0.05628
2967.55445 0.05690
2966.26868 0.05747
2964.98291 0.05807
2963.69715 0.05871
2962.41138 0.05933
2961.12561 0.05978
2959.83984 0.05999
2958.55407 0.06004
2957.26830 0.06013
2955.98253 0.06047
2954.69676 0.06104
2953.41100 0.06164
2952.12523 0.06206
2950.83946 0.06226
2949.55369 0.06230
2948.26792 0.06228
2946.98215 0.06222
2945.69638 0.06208
2944.41061 0.06177
2943.12484 0.06133
2941.83908 0.06106
2940.55331 0.06125
2939.26754 0.06189
2937.98177 0.06266
2936.69600 0.06323
2935.41023 0.06346
2934.12446 0.06346
2932.83869 0.06338
2931.55293 0.06333
2930.26716 0.06331
2928.98139 0.06337
2927.69562 0.06357
2926.40985 0.06389
2925.12408 0.06415
2923.83831 0.06423
2922.55254 0.06418
2921.26677 0.06417
2919.98101 0.06417
2918.69524 0.06403
2917.40947 0.06372
2916.12370 0.06338
2914.83793 0.06307
2913.55216 0.06271
2912.26639 0.06227
2910.98062 0.06190
2909.69486 0.06171
2908.40909 0.06155
2907.12332 0.06119
2905.83755 0.06059
2904.55178 0.06001
2903.26601 0.05970
2901.98024 0.05968
2900.69447 0.05975
2899.40870 0.05964
2898.12294 0.05923
2896.83717 0.05853
2895.55140 0.05772
2894.26563 0.05706
2892.97986 0.05672
2891.69409 0.05661
2890.40832 0.05645
2889.12255 0.05606
2887.83678 0.05556
2886.55102 0.05520
2885.26525 0.05506
2883.97948 0.05502
2882.69371 0.05502
2881.40794 0.05509
2880.12217 0.05516
2878.83640 0.05510
2877.55063 0.05497
2876.26487 0.05500
2874.97910 0.05535
2873.69333 0.05587
2872.40756 0.05628
2871.12179 0.05649
2869.83602 0.05656
2868.55025 0.05656
2867.26448 0.05642
2865.97871 0.05607
2864.69295 0.05557
2863.40718 0.05513
2862.12141 0.05497
2860.83564 0.05512
2859.54987 0.05543
2858.26410 0.05570
2856.97833 0.05583
2855.69256 0.05581
2854.40680 0.05566
2853.12103 0.05548
2851.83526 0.05532
2850.54949 0.05513
2849.26372 0.05477
2847.97795 0.05418
2846.69218 0.05343
2845.40641 0.05274
2844.12064 0.05226
2842.83488 0.05196
2841.54911 0.05164
2840.26334 0.05117
2838.97757 0.05062
2837.69180 0.05015
2836.40603 0.04981
2835.12026 0.04948
2833.83449 0.04911
2832.54873 0.04874
2831.26296 0.04838
2829.97719 0.04794
2828.69142 0.04740
2827.40565 0.04688
2826.11988 0.04658
2824.83411 0.04656
2823.54834 0.04668
2822.26257 0.04677
2820.97681 0.04677
2819.69104 0.04668
2818.40527 0.04646
2817.11950 0.04614
2815.83373 0.04582
2814.54796 0.04563
2813.26219 0.04566
2811.97642 0.04583
2810.69066 0.04597
2809.40489 0.04596
2808.11912 0.04578
2806.83335 0.04550
2805.54758 0.04522
2804.26181 0.04496
2802.97604 0.04471
2801.69027 0.04455
2800.40450 0.04454
2799.11874 0.04468
2797.83297 0.04485
2796.54720 0.04493
2795.26143 0.04482
2793.97566 0.04457
2792.68989 0.04428
2791.40412 0.04408
2790.11835 0.04402
2788.83259 0.04401
2787.54682 0.04390
2786.26105 0.04363
2784.97528 0.04331
2783.68951 0.04315
2782.40374 0.04323
2781.11797 0.04344
2779.83220 0.04366
2778.54643 0.04387
2777.26067 0.04403
2775.97490 0.04402
2774.68913 0.04379
2773.40336 0.04341
2772.11759 0.04305
2770.83182 0.04285
2769.54605 0.04285
2768.26028 0.04296
2766.97452 0.04301
2765.68875 0.04297
2764.40298 0.04290
2763.11721 0.04289
2761.83144 0.04290
2760.54567 0.04279
2759.25990 0.04255
2757.97413 0.04225
2756.68836 0.04203
2755.40260 0.04197
2754.11683 0.04212
2752.83106 0.04244
2751.54529 0.04272
2750.25952 0.04280
2748.97375 0.04263
2747.68798 0.04232
2746.40221 0.04195
2745.11645 0.04159
2743.83068 0.04135
2742.54491 0.04133
2741.25914 0.04148
2739.97337 0.04160
2738.68760 0.04161
2737.40183 0.04160
2736.11606 0.04164
2734.83029 0.04163
2733.54453 0.04149
2732.25876 0.04132
2730.97299 0.04127
2729.68722 0.04132
2728.40145 0.04126
2727.11568 0.04104
2725.82991 0.04075
2724.54414 0.04055
2723.25838 0.04046
2721.97261 0.04039
2720.68684 0.04030
2719.40107 0.04020
2718.11530 0.04010
2716.82953 0.04003
2715.54376 0.03996
2714.25799 0.03993
2712.97222 0.03998
2711.68646 0.04008
2710.40069 0.04006
2709.11492 0.03984
2707.82915 0.03955
2706.54338 0.03938
2705.25761 0.03942
2703.97184 0.03962
2702.68607 0.03989
2701.40031 0.04006
2700.11454 0.03998
2698.82877 0.03963
2697.54300 0.03923
2696.25723 0.03901
2694.97146 0.03902
2693.68569 0.03906
2692.39992 0.03899
2691.11415 0.03885
2689.82839 0.03884
2688.54262 0.03907
2687.25685 0.03938
2685.97108 0.03952
2684.68531 0.03937
2683.39954 0.03905
2682.11377 0.03878
2680.82800 0.03866
2679.54224 0.03864
2678.25647 0.03861
2676.97070 0.03849
2675.68493 0.03832
2674.39916 0.03824
2673.11339 0.03834
2671.82762 0.03854
2670.54185 0.03873
2669.25608 0.03878
2667.97032 0.03867
2666.68455 0.03842
2665.39878 0.03812
2664.11301 0.03798
2662.82724 0.03815
2661.54147 0.03859
2660.25570 0.03912
2658.96993 0.03957
2657.68417 0.03989
2656.39840 0.04008
2655.11263 0.04016
2653.82686 0.04018
2652.54109 0.04013
2651.25532 0.03989
2649.96955 0.03938
2648.68378 0.03870
2647.39801 0.03814
2646.11225 0.03792
2644.82648 0.03804
2643.54071 0.03824
2642.25494 0.03829
2640.96917 0.03813
2639.68340 0.03789
2638.39763 0.03772
2637.11186 0.03764
2635.82609 0.03755
2634.54033 0.03734
2633.25456 0.03706
2631.96879 0.03686
2630.68302 0.03688
2629.39725 0.03713
2628.11148 0.03745
2626.82571 0.03762
2625.53994 0.03753
2624.25418 0.03720
2622.96841 0.03680
2621.68264 0.03644
2620.39687 0.03616
2619.11110 0.03591
2617.82533 0.03562
2616.53956 0.03533
2615.25379 0.03520
2613.96802 0.03531
2612.68226 0.03547
2611.39649 0.03538
2610.11072 0.03501
2608.82495 0.03461
2607.53918 0.03443
2606.25341 0.03444
2604.96764 0.03448
2603.68187 0.03445
2602.39611 0.03431
2601.11034 0.03414
2599.82457 0.03396
2598.53880 0.03377
2597.25303 0.03347
2595.96726 0.03307
2594.68149 0.03267
2593.39572 0.03243
2592.10995 0.03235
2590.82419 0.03238
2589.53842 0.03242
2588.25265 0.03245
2586.96688 0.03243
2585.68111 0.03233
2584.39534 0.03218
2583.10957 0.03210
2581.82380 0.03219
2580.53804 0.03247
2579.25227 0.03288
2577.96650 0.03325
2576.68073 0.03344
2575.39496 0.03343
2574.10919 0.03334
2572.82342 0.03325
2571.53765 0.03311
2570.25188 0.03292
2568.96612 0.03282
2567.68035 0.03289
2566.39458 0.03297
2565.10881 0.03275
2563.82304 0.03213
2562.53727 0.03128
2561.25150 0.03058
2559.96573 0.03030
2558.67997 0.03038
2557.39420 0.03056
2556.10843 0.03061
2554.82266 0.03052
2553.53689 0.03042
2552.25112 0.03033
2550.96535 0.03022
2549.67958 0.03006
2548.39381 0.02987
2547.10805 0.02969
2545.82228 0.02957
2544.53651 0.02961
2543.25074 0.02980
2541.96497 0.03005
2540.67920 0.03015
2539.39343 0.02995
2538.10766 0.02951
2536.82190 0.02914
2535.53613 0.02904
2534.25036 0.02919
2532.96459 0.02947
2531.67882 0.02979
2530.39305 0.03017
2529.10728 0.03053
2527.82151 0.03075
2526.53574 0.03083
2525.24998 0.03087
2523.96421 0.03095
2522.67844 0.03100
2521.39267 0.03095
2520.10690 0.03079
2518.82113 0.03062
2517.53536 0.03046
2516.24959 0.03030
2514.96383 0.03008
2513.67806 0.02980
2512.39229 0.02957
2511.10652 0.02955
2509.82075 0.02976
2508.53498 0.02993
2507.24921 0.02981
2505.96344 0.02953
2504.67767 0.02942
2503.39191 0.02960
2502.10614 0.02980
2500.82037 0.02976
2499.53460 0.02951
2498.24883 0.02927
2496.96306 0.02927
2495.67729 0.02959
2494.39152 0.03010
2493.10576 0.03057
2491.81999 0.03076
2490.53422 0.03053
2489.24845 0.02997
2487.96268 0.02928
2486.67691 0.02869
2485.39114 0.02837
2484.10537 0.02832
2482.81960 0.02843
2481.53384 0.02854
2480.24807 0.02854
2478.96230 0.02842
2477.67653 0.02833
2476.39076 0.02835
2475.10499 0.02845
2473.81922 0.02854
2472.53345 0.02853
2471.24769 0.02846
2469.96192 0.02837
2468.67615 0.02831
2467.39038 0.02832
2466.10461 0.02841
2464.81884 0.02857
2463.53307 0.02880
2462.24730 0.02907
2460.96153 0.02928
2459.67577 0.02935
2458.39000 0.02928
2457.10423 0.02908
2455.81846 0.02876
2454.53269 0.02837
2453.24692 0.02811
2451.96115 0.02821
2450.67538 0.02863
2449.38962 0.02910
2448.10385 0.02932
2446.81808 0.02923
2445.53231 0.02896
2444.24654 0.02868
2442.96077 0.02848
2441.67500 0.02834
2440.38923 0.02826
2439.10346 0.02819
2437.81770 0.02809
2436.53193 0.02788
2435.24616 0.02758
2433.96039 0.02729
2432.67462 0.02721
2431.38885 0.02737
2430.10308 0.02762
2428.81731 0.02775
2427.53155 0.02775
2426.24578 0.02770
2424.96001 0.02767
2423.67424 0.02758
2422.38847 0.02725
2421.10270 0.02669
2419.81693 0.02610
2418.53116 0.02572
2417.24539 0.02562
2415.95963 0.02581
2414.67386 0.02629
2413.38809 0.02700
2412.10232 0.02771
2410.81655 0.02815
2409.53078 0.02823
2408.24501 0.02801
2406.95924 0.02758
2405.67347 0.02699
2404.38771 0.02638
2403.10194 0.02602
2401.81617 0.02605
2400.53040 0.02639
2399.24463 0.02731
2397.95886 0.02674
2396.67309 0.02623
2395.38732 0.02610
2394.10156 0.02615
2392.81579 0.02635
2391.53002 0.02659
2390.24425 0.02669
2388.95848 0.02658
2387.67271 0.02635
2386.38694 0.02622
2385.10117 0.02634
2383.81540 0.02668
2382.52964 0.02701
2381.24387 0.02715
2379.95810 0.02711
2378.67233 0.02699
2377.38656 0.02691
2376.10079 0.02694
2374.81502 0.02706
2373.52925 0.02727
2372.24349 0.02751
2370.95772 0.02772
2369.67195 0.02772
2368.38618 0.02760
2367.10041 0.02750
2365.81464 0.02755
2364.52887 0.02758
2363.24310 0.02758
2361.95733 0.02766
2360.67157 0.02800
2359.38580 0.02828
2358.10003 0.02842
2356.81426 0.02845
2355.52849 0.02844
2354.24272 0.02840
2352.95695 0.02835
2351.67118 0.02852
2350.38542 0.02886
2349.09965 0.02908
2347.81388 0.02914
2346.52811 0.02949
2345.24234 0.02990
2343.95657 0.02973
2342.67080 0.02908
2341.38503 0.02911
2340.09926 0.02989
2338.81350 0.02985
2337.52773 0.02883
2336.24196 0.02868
2334.95619 0.02912
2333.67042 0.02821
2332.38465 0.02640
2331.09888 0.02591
2329.81311 0.02562
2328.52735 0.02446
2327.24158 0.02520
2325.95581 0.02746
2324.67004 0.02904
2323.38427 0.03086
2322.09850 0.03274
2320.81273 0.03297
2319.52696 0.03303
2318.24119 0.03313
2316.95543 0.03246
2315.66966 0.03204
2314.38389 0.03175
2313.09812 0.03115
2311.81235 0.03084
2310.52658 0.03034
2309.24081 0.02966
2307.95504 0.02899
2306.66928 0.02814
2305.38351 0.02749
2304.09774 0.02705
2302.81197 0.02681
2301.52620 0.02682
2300.24043 0.02684
2298.95466 0.02679
2297.66889 0.02662
2296.38312 0.02638
2295.09736 0.02619
2293.81159 0.02597
2292.52582 0.02573
2291.24005 0.02555
2289.95428 0.02559
2288.66851 0.02587
2287.38274 0.02627
2286.09697 0.02663
2284.81121 0.02687
2283.52544 0.02706
2282.23967 0.02730
2280.95390 0.02753
2279.66813 0.02755
2278.38236 0.02722
2277.09659 0.02663
2275.81082 0.02606
2274.52505 0.02568
2273.23929 0.02542
2271.95352 0.02510
2270.66775 0.02463
2269.38198 0.02402
2268.09621 0.02335
2266.81044 0.02285
2265.52467 0.02272
2264.23890 0.02288
2262.95314 0.02302
2261.66737 0.02282
2260.38160 0.02231
2259.09583 0.02171
2257.81006 0.02116
2256.52429 0.02054
2255.23852 0.01981
2253.95275 0.01930
2252.66698 0.01926
2251.38122 0.01937
2250.09545 0.01998
2248.80968 0.02223
2247.52391 0.02179
2246.23814 0.02117
2244.95237 0.02097
2243.66660 0.02119
2242.38083 0.02152
2241.09507 0.02167
2239.80930 0.02155
2238.52353 0.02120
2237.23776 0.02091
2235.95199 0.02106
2234.66622 0.02160
2233.38045 0.02198
2232.09468 0.02173
2230.80891 0.02092
2229.52315 0.01988
2228.23738 0.01876
2226.95161 0.01762
2225.66584 0.01675
2224.38007 0.01643
2223.09430 0.01665
2221.80853 0.01726
2220.52276 0.01811
2219.23700 0.01896
2217.95123 0.01946
2216.66546 0.01939
2215.37969 0.01885
2214.09392 0.01825
2212.80815 0.01786
2211.52238 0.01773
2210.23661 0.01779
2208.95084 0.01804
2207.66508 0.01837
2206.37931 0.01837
2205.09354 0.01768
2203.80777 0.01656
2202.52200 0.01564
2201.23623 0.01524
2199.95046 0.01512
2198.66469 0.01502
2197.37893 0.01498
2196.09316 0.01513
2194.80739 0.01553
2193.52162 0.01621
2192.23585 0.01697
2190.95008 0.01745
2189.66431 0.01733
2188.37854 0.01656
2187.09277 0.01524
2185.80701 0.01355
2184.52124 0.01197
2183.23547 0.01121
2181.94970 0.01162
2180.66393 0.01264
2179.37816 0.01320
2178.09239 0.01267
2176.80662 0.01143
2175.52085 0.01048
2174.23509 0.01049
2172.94932 0.01118
2171.66355 0.01197
2170.37778 0.01272
2169.09201 0.01369
2167.80624 0.01476
2166.52047 0.01523
2165.23470 0.01463
2163.94894 0.01330
2162.66317 0.01197
2161.37740 0.01072
2160.09163 0.00900
2158.80586 0.00664
2157.52009 0.00457
2156.23432 0.00374
2154.94855 0.00404
2153.66278 0.00453
2152.37702 0.00471
2151.09125 0.00497
2149.80548 0.00600
2148.51971 0.00788
2147.23394 0.00989
2145.94817 0.01116
2144.66240 0.01141
2143.37663 0.01099
2142.09087 0.01040
2140.80510 0.00991
2139.51933 0.00955
2138.23356 0.00937
2136.94779 0.00949
2135.66202 0.01000
2134.37625 0.01066
2133.09048 0.01110
2131.80471 0.01116
2130.51895 0.01102
2129.23318 0.01098
2127.94741 0.01113
2126.66164 0.01152
2125.37587 0.01216
2124.09010 0.01301
2122.80433 0.01385
2121.51856 0.01449
2120.23280 0.01491
2118.94703 0.01530
2117.66126 0.01580
2116.37549 0.01627
2115.08972 0.01650
2113.80395 0.01643
2112.51818 0.01625
2111.23241 0.01627
2109.94664 0.01661
2108.66088 0.01706
2107.37511 0.01726
2106.08934 0.01705
2104.80357 0.01660
2103.51780 0.01623
2102.23203 0.01613
2100.94626 0.01616
2099.66049 0.01642
2098.37473 0.01659
2097.08896 0.01614
2095.80319 0.01543
2094.51742 0.01498
2093.23165 0.01509
2091.94588 0.01568
2090.66011 0.01633
2089.37434 0.01653
2088.08857 0.01614
2086.80281 0.01540
2085.51704 0.01469
2084.23127 0.01434
2082.94550 0.01450
2081.65973 0.01509
2080.37396 0.01580
2079.08819 0.01612
2077.80242 0.01578
2076.51666 0.01505
2075.23089 0.01455
2073.94512 0.01476
2072.65935 0.01557
2071.37358 0.01635
2070.08781 0.01650
2068.80204 0.01594
2067.51627 0.01505
2066.23050 0.01429
2064.94474 0.01384
2063.65897 0.01354
2062.37320 0.01310
2061.08743 0.01236
2059.80166 0.01151
2058.51589 0.01095
2057.23012 0.01093
2055.94435 0.01136
2054.65859 0.01198
2053.37282 0.01261
2052.08705 0.01310
2050.80128 0.01320
2049.51551 0.01273
2048.22974 0.01188
2046.94397 0.01111
2045.65820 0.01063
2044.37243 0.01033
2043.08667 0.01011
2041.80090 0.01015
2040.51513 0.01068
2039.22936 0.01160
2037.94359 0.01240
2036.65782 0.01251
2035.37205 0.01172
2034.08628 0.01044
2032.80052 0.00928
2031.51475 0.00857
2030.22898 0.00814
2028.94321 0.00782
2027.65744 0.00779
2026.37167 0.00824
2025.08590 0.00896
2023.80013 0.00946
2022.51436 0.00942
2021.22860 0.00893
2019.94283 0.00823
2018.65706 0.00759
2017.37129 0.00724
2016.08552 0.00728
2014.79975 0.00773
2013.51398 0.00851
2012.22821 0.00940
2010.94245 0.01001
2009.65668 0.00997
2008.37091 0.00940
2007.08514 0.00885
2005.79937 0.00874
2004.51360 0.00899
2003.22783 0.00927
2001.94206 0.00955
2000.65629 0.01006
1999.37053 0.01081
1998.08476 0.01138
1996.79899 0.01129
1995.51322 0.01063
1994.22745 0.01009
1992.94168 0.01030
1991.65591 0.01118
1990.37014 0.01218
1989.08438 0.01279
1987.79861 0.01294
1986.51284 0.01299
1985.22707 0.01331
1983.94130 0.01394
1982.65553 0.01444
1981.36976 0.01430
1980.08399 0.01342
1978.79822 0.01229
1977.51246 0.01147
1976.22669 0.01113
1974.94092 0.01118
1973.65515 0.01147
1972.36938 0.01193
1971.08361 0.01247
1969.79784 0.01300
1968.51207 0.01322
1967.22631 0.01288
1965.94054 0.01212
1964.65477 0.01147
1963.36900 0.01126
1962.08323 0.01121
1960.79746 0.01088
1959.51169 0.01035
1958.22592 0.01014
1956.94015 0.01052
1955.65439 0.01123
1954.36862 0.01182
1953.08285 0.01212
1951.79708 0.01223
1950.51131 0.01233
1949.22554 0.01253
1947.93977 0.01287
1946.65400 0.01334
1945.36823 0.01385
1944.08247 0.01422
1942.79670 0.01436
1941.51093 0.01440
1940.22516 0.01458
1938.93939 0.01501
1937.65362 0.01544
1936.36785 0.01546
1935.08208 0.01491
1933.79632 0.01407
1932.51055 0.01340
1931.22478 0.01327
1929.93901 0.01369
1928.65324 0.01438
1927.36747 0.01496
1926.08170 0.01518
1924.79593 0.01504
1923.51016 0.01484
1922.22440 0.01488
1920.93863 0.01520
1919.65286 0.01556
1918.36709 0.01573
1917.08132 0.01574
1915.79555 0.01572
1914.50978 0.01572
1913.22401 0.01577
1911.93825 0.01589
1910.65248 0.01610
1909.36671 0.01633
1908.08094 0.01644
1906.79517 0.01631
1905.50940 0.01590
1904.22363 0.01534
1902.93786 0.01483
1901.65209 0.01454
1900.36633 0.01455
1899.08056 0.01477
1897.79479 0.01510
1896.50902 0.01548
1895.22325 0.01588
1893.93748 0.01631
1892.65171 0.01667
1891.36594 0.01679
1890.08018 0.01656
1888.79441 0.01608
1887.50864 0.01563
1886.22287 0.01543
1884.93710 0.01550
1883.65133 0.01567
1882.36556 0.01578
1881.07979 0.01578
1879.79402 0.01570
1878.50826 0.01563
1877.22249 0.01562
1875.93672 0.01567
1874.65095 0.01569
1873.36518 0.01571
1872.07941 0.01581
1870.79364 0.01600
1869.50787 0.01618
1868.22211 0.01617
1866.93634 0.01597
1865.65057 0.01570
1864.36480 0.01550
1863.07903 0.01541
1861.79326 0.01539
1860.50749 0.01541
1859.22172 0.01544
1857.93595 0.01546
1856.65019 0.01549
1855.36442 0.01555
1854.07865 0.01566
1852.79288 0.01577
1851.50711 0.01582
1850.22134 0.01582
1848.93557 0.01582
1847.64980 0.01588
1846.36404 0.01600
1845.07827 0.01613
1843.79250 0.01618
1842.50673 0.01610
1841.22096 0.01595
1839.93519 0.01584
1838.64942 0.01586
1837.36365 0.01603
1836.07788 0.01629
1834.79212 0.01652
1833.50635 0.01666
1832.22058 0.01664
1830.93481 0.01650
1829.64904 0.01634
1828.36327 0.01626
1827.07750 0.01634
1825.79173 0.01653
1824.50597 0.01674
1823.22020 0.01688
1821.93443 0.01690
1820.64866 0.01677
1819.36289 0.01653
1818.07712 0.01624
1816.79135 0.01593
1815.50558 0.01565
1814.21981 0.01543
1812.93405 0.01530
1811.64828 0.01526
1810.36251 0.01530
1809.07674 0.01539
1807.79097 0.01553
1806.50520 0.01571
1805.21943 0.01594
1803.93366 0.01620
1802.64790 0.01639
1801.36213 0.01646
1800.07636 0.01643
1798.79059 0.01639
1797.50482 0.01639
1796.21905 0.01645
1794.93328 0.01653
1793.64751 0.01657
1792.36174 0.01657
1791.07598 0.01662
1789.79021 0.01675
1788.50444 0.01692
1787.21867 0.01704
1785.93290 0.01706
1784.64713 0.01706
1783.36136 0.01706
1782.07559 0.01705
1780.78983 0.01697
1779.50406 0.01685
1778.21829 0.01677
1776.93252 0.01679
1775.64675 0.01690
1774.36098 0.01701
1773.07521 0.01706
1771.78944 0.01702
1770.50367 0.01693
1769.21791 0.01682
1767.93214 0.01675
1766.64637 0.01676
1765.36060 0.01687
1764.07483 0.01707
1762.78906 0.01725
1761.50329 0.01733
1760.21752 0.01731
1758.93176 0.01726
1757.64599 0.01725
1756.36022 0.01729
1755.07445 0.01736
1753.78868 0.01740
1752.50291 0.01736
1751.21714 0.01725
1749.93137 0.01712
1748.64560 0.01706
1747.35984 0.01708
1746.07407 0.01717
1744.78830 0.01726
1743.50253 0.01732
1742.21676 0.01735
1740.93099 0.01736
1739.64522 0.01740
1738.35945 0.01752
1737.07369 0.01774
1735.78792 0.01795
1734.50215 0.01801
1733.21638 0.01788
1731.93061 0.01766
1730.64484 0.01750
1729.35907 0.01745
1728.07330 0.01748
1726.78753 0.01756
1725.50177 0.01769
1724.21600 0.01790
1722.93023 0.01822
1721.64446 0.01866
1720.35869 0.01915
1719.07292 0.01956
1717.78715 0.01977
1716.50138 0.01982
1715.21561 0.01984
1713.92985 0.02001
1712.64408 0.02038
1711.35831 0.02092
1710.07254 0.02155
1708.78677 0.02219
1707.50100 0.02278
1706.21523 0.02332
1704.92946 0.02389
1703.64370 0.02460
1702.35793 0.02546
1701.07216 0.02635
1699.78639 0.02715
1698.50062 0.02788
1697.21485 0.02861
1695.92908 0.02935
1694.64331 0.03010
1693.35754 0.03084
1692.07178 0.03161
1690.78601 0.03246
1689.50024 0.03339
1688.21447 0.03443
1686.92870 0.03553
1685.64293 0.03658
1684.35716 0.03746
1683.07139 0.03819
1681.78563 0.03890
1680.49986 0.03968
1679.21409 0.04054
1677.92832 0.04144
1676.64255 0.04234
1675.35678 0.04322
1674.07101 0.04410
1672.78524 0.04501
1671.49947 0.04596
1670.21371 0.04689
1668.92794 0.04772
1667.64217 0.04848
1666.35640 0.04926
1665.07063 0.05014
1663.78486 0.05107
1662.49909 0.05196
1661.21332 0.05274
1659.92756 0.05343
1658.64179 0.05414
1657.35602 0.05495
1656.07025 0.05588
1654.78448 0.05677
1653.49871 0.05742
1652.21294 0.05771
1650.92717 0.05777
1649.64140 0.05780
1648.35564 0.05792
1647.06987 0.05809
1645.78410 0.05824
1644.49833 0.05830
1643.21256 0.05824
1641.92679 0.05809
1640.64102 0.05790
1639.35525 0.05774
1638.06949 0.05762
1636.78372 0.05747
1635.49795 0.05716
1634.21218 0.05662
1632.92641 0.05594
1631.64064 0.05523
1630.35487 0.05458
1629.06910 0.05399
1627.78333 0.05343
1626.49757 0.05286
1625.21180 0.05222
1623.92603 0.05153
1622.64026 0.05081
1621.35449 0.05013
1620.06872 0.04956
1618.78295 0.04906
1617.49718 0.04853
1616.21142 0.04788
1614.92565 0.04716
1613.63988 0.04646
1612.35411 0.04588
1611.06834 0.04543
1609.78257 0.04507
1608.49680 0.04478
1607.21103 0.04453
1605.92526 0.04428
1604.63950 0.04406
1603.35373 0.04388
1602.06796 0.04377
1600.78219 0.04372
1599.49642 0.04367
1598.21065 0.04363
1596.92488 0.04366
1595.63911 0.04381
1594.35335 0.04403
1593.06758 0.04426
1591.78181 0.04443
1590.49604 0.04458
1589.21027 0.04475
1587.92450 0.04497
1586.63873 0.04522
1585.35296 0.04544
1584.06719 0.04563
1582.78143 0.04583
1581.49566 0.04614
1580.20989 0.04662
1578.92412 0.04726
1577.63835 0.04791
1576.35258 0.04845
1575.06681 0.04886
1573.78104 0.04922
1572.49528 0.04964
1571.20951 0.05012
1569.92374 0.05058
1568.63797 0.05098
1567.35220 0.05134
1566.06643 0.05169
1564.78066 0.05208
1563.49489 0.05254
1562.20912 0.05309
1560.92336 0.05365
1559.63759 0.05411
1558.35182 0.05438
1557.06605 0.05452
1555.78028 0.05465
1554.49451 0.05482
1553.20874 0.05500
1551.92297 0.05517
1550.63721 0.05531
1549.35144 0.05545
1548.06567 0.05560
1546.77990 0.05577
1545.49413 0.05591
1544.20836 0.05599
1542.92259 0.05602
1541.63682 0.05599
1540.35105 0.05585
1539.06529 0.05562
1537.77952 0.05535
1536.49375 0.05514
1535.20798 0.05505
1533.92221 0.05505
1532.63644 0.05513
1531.35067 0.05533
1530.06490 0.05564
1528.77914 0.05603
1527.49337 0.05642
1526.20760 0.05677
1524.92183 0.05713
1523.63606 0.05754
1522.35029 0.05799
1521.06452 0.05845
1519.77875 0.05892
1518.49298 0.05941
1517.20722 0.05993
1515.92145 0.06050
1514.63568 0.06116
1513.34991 0.06195
1512.06414 0.06288
1510.77837 0.06392
1509.49260 0.06502
1508.20683 0.06604
1506.92107 0.06687
1505.63530 0.06747
1504.34953 0.06794
1503.06376 0.06847
1501.77799 0.06913
1500.49222 0.06992
1499.20645 0.07073
1497.92068 0.07145
1496.63491 0.07203
1495.34915 0.07251
1494.06338 0.07297
1492.77761 0.07349
1491.49184 0.07407
1490.20607 0.07471
1488.92030 0.07541
1487.63453 0.07616
1486.34876 0.07696
1485.06299 0.07776
1483.77723 0.07860
1482.49146 0.07947
1481.20569 0.08041
1479.91992 0.08142
1478.63415 0.08252
1477.34838 0.08372
1476.06261 0.08495
1474.77684 0.08610
1473.49108 0.08707
1472.20531 0.08783
1470.91954 0.08847
1469.63377 0.08909
1468.34800 0.08975
1467.06223 0.09041
1465.77646 0.09105
1464.49069 0.09168
1463.20492 0.09232
1461.91916 0.09303
1460.63339 0.09386
1459.34762 0.09478
1458.06185 0.09568
1456.77608 0.09641
1455.49031 0.09688
1454.20454 0.09715
1452.91877 0.09738
1451.63301 0.09764
1450.34724 0.09789
1449.06147 0.09804
1447.77570 0.09803
1446.48993 0.09789
1445.20416 0.09771
1443.91839 0.09757
1442.63262 0.09750
1441.34685 0.09751
1440.06109 0.09755
1438.77532 0.09763
1437.48955 0.09774
1436.20378 0.09791
1434.91801 0.09817
1433.63224 0.09860
1432.34647 0.09922
1431.06070 0.10002
1429.77494 0.10095
1428.48917 0.10201
1427.20340 0.10314
1425.91763 0.10436
1424.63186 0.10564
1423.34609 0.10694
1422.06032 0.10819
1420.77455 0.10934
1419.48878 0.11034
1418.20302 0.11119
1416.91725 0.11193
1415.63148 0.11259
1414.34571 0.11318
1413.05994 0.11368
1411.77417 0.11403
1410.48840 0.11416
1409.20263 0.11403
1407.91687 0.11364
1406.63110 0.11306
1405.34533 0.11231
1404.05956 0.11141
1402.77379 0.11037
1401.48802 0.10920
1400.20225 0.10791
1398.91648 0.10650
1397.63071 0.10498
1396.34495 0.10336
1395.05918 0.10163
1393.77341 0.09980
1392.48764 0.09790
1391.20187 0.09598
1389.91610 0.09407
1388.63033 0.09218
1387.34456 0.09027
1386.05880 0.08837
1384.77303 0.08645
1383.48726 0.08451
1382.20149 0.08254
1380.91572 0.08055
1379.62995 0.07857
1378.34418 0.07660
1377.05841 0.07464
1375.77264 0.07265
1374.48688 0.07061
1373.20111 0.06853
1371.91534 0.06648
1370.62957 0.06452
1369.34380 0.06265
1368.05803 0.06084
1366.77226 0.05911
1365.48649 0.05750
1364.20073 0.05601
1362.91496 0.05461
1361.62919 0.05326
1360.34342 0.05196
1359.05765 0.05076
1357.77188 0.04969
1356.48611 0.04871
1355.20034 0.04776
1353.91457 0.04683
1352.62881 0.04597
1351.34304 0.04525
1350.05727 0.04464
1348.77150 0.04408
1347.48573 0.04350
1346.19996 0.04291
1344.91419 0.04235
1343.62842 0.04183
1342.34266 0.04137
1341.05689 0.04093
1339.77112 0.04048
1338.48535 0.04006
1337.19958 0.03968
1335.91381 0.03933
1334.62804 0.03897
1333.34227 0.03858
1332.05650 0.03816
1330.77074 0.03772
1329.48497 0.03728
1328.19920 0.03688
1326.91343 0.03650
1325.62766 0.03615
1324.34189 0.03582
1323.05612 0.03549
1321.77035 0.03514
1320.48459 0.03481
1319.19882 0.03448
1317.91305 0.03416
1316.62728 0.03384
1315.34151 0.03352
1314.05574 0.03321
1312.76997 0.03291
1311.48420 0.03263
1310.19843 0.03237
1308.91267 0.03215
1307.62690 0.03196
1306.34113 0.03177
1305.05536 0.03155
1303.76959 0.03127
1302.48382 0.03095
1301.19805 0.03063
1299.91228 0.03031
1298.62652 0.02999
1297.34075 0.02970
1296.05498 0.02945
1294.76921 0.02923
1293.48344 0.02903
1292.19767 0.02884
1290.91190 0.02870
1289.62613 0.02860
1288.34036 0.02852
1287.05460 0.02843
1285.76883 0.02833
1284.48306 0.02822
1283.19729 0.02812
1281.91152 0.02801
1280.62575 0.02787
1279.33998 0.02772
1278.05421 0.02759
1276.76845 0.02749
1275.48268 0.02737
1274.19691 0.02719
1272.91114 0.02697
1271.62537 0.02677
1270.33960 0.02664
1269.05383 0.02660
1267.76806 0.02664
1266.48229 0.02670
1265.19653 0.02676
1263.91076 0.02678
1262.62499 0.02674
1261.33922 0.02663
1260.05345 0.02649
1258.76768 0.02638
1257.48191 0.02634
1256.19614 0.02636
1254.91037 0.02641
1253.62461 0.02646
1252.33884 0.02648
1251.05307 0.02647
1249.76730 0.02643
1248.48153 0.02635
1247.19576 0.02625
1245.90999 0.02617
1244.62422 0.02613
1243.33846 0.02612
1242.05269 0.02609
1240.76692 0.02602
1239.48115 0.02592
1238.19538 0.02582
1236.90961 0.02572
1235.62384 0.02560
1234.33807 0.02545
1233.05230 0.02527
1231.76654 0.02509
1230.48077 0.02490
1229.19500 0.02471
1227.90923 0.02452
1226.62346 0.02434
1225.33769 0.02419
1224.05192 0.02406
1222.76615 0.02391
1221.48039 0.02372
1220.19462 0.02349
1218.90885 0.02325
1217.62308 0.02303
1216.33731 0.02283
1215.05154 0.02264
1213.76577 0.02247
1212.48000 0.02234
1211.19423 0.02224
1209.90847 0.02216
1208.62270 0.02210
1207.33693 0.02207
1206.05116 0.02207
1204.76539 0.02208
1203.47962 0.02209
1202.19385 0.02201
1200.90808 0.02185
1199.62232 0.02187
1198.33655 0.02178
1197.05078 0.02164
1195.76501 0.02149
1194.47924 0.02136
1193.19347 0.02125
1191.90770 0.02114
1190.62193 0.02102
1189.33616 0.02090
1188.05040 0.02080
1186.76463 0.02071
1185.47886 0.02061
1184.19309 0.02048
1182.90732 0.02037
1181.62155 0.02031
1180.33578 0.02031
1179.05001 0.02034
1177.76425 0.02035
1176.47848 0.02035
1175.19271 0.02040
1173.90694 0.02051
1172.62117 0.02064
1171.33540 0.02075
1170.04963 0.02083
1168.76386 0.02094
1167.47809 0.02108
1166.19233 0.02125
1164.90656 0.02139
1163.62079 0.02149
1162.33502 0.02156
1161.04925 0.02162
1159.76348 0.02167
1158.47771 0.02174
1157.19194 0.02188
1155.90618 0.02209
1154.62041 0.02237
1153.33464 0.02266
1152.04887 0.02294
1150.76310 0.02317
1149.47733 0.02333
1148.19156 0.02350
1146.90579 0.02374
1145.62002 0.02412
1144.33426 0.02462
1143.04849 0.02520
1141.76272 0.02583
1140.47695 0.02654
1139.19118 0.02734
1137.90541 0.02825
1136.61964 0.02929
1135.33387 0.03047
1134.04811 0.03179
1132.76234 0.03320
1131.47657 0.03469
1130.19080 0.03631
1128.90503 0.03812
1127.61926 0.04016
1126.33349 0.04242
1125.04772 0.04488
1123.76195 0.04753
1122.47619 0.05034
1121.19042 0.05321
1119.90465 0.05612
1118.61888 0.05908
1117.33311 0.06210
1116.04734 0.06514
1114.76157 0.06814
1113.47580 0.07105
1112.19004 0.07390
1110.90427 0.07669
1109.61850 0.07941
1108.33273 0.08210
1107.04696 0.08480
1105.76119 0.08752
1104.47542 0.09023
1103.18965 0.09285
1101.90388 0.09532
1100.61812 0.09762
1099.33235 0.09984
1098.04658 0.10203
1096.76081 0.10424
1095.47504 0.10643
1094.18927 0.10852
1092.90350 0.11046
1091.61773 0.11226
1090.33197 0.11396
1089.04620 0.11565
1087.76043 0.11738
1086.47466 0.11916
1085.18889 0.12091
1083.90312 0.12260
1082.61735 0.12428
1081.33158 0.12602
1080.04581 0.12791
1078.76005 0.12998
1077.47428 0.13226
1076.18851 0.13472
1074.90274 0.13728
1073.61697 0.13987
1072.33120 0.14249
1071.04543 0.14516
1069.75966 0.14793
1068.47390 0.15083
1067.18813 0.15384
1065.90236 0.15689
1064.61659 0.15995
1063.33082 0.16303
1062.04505 0.16616
1060.75928 0.16933
1059.47351 0.17249
1058.18774 0.17560
1056.90198 0.17861
1055.61621 0.18153
1054.33044 0.18440
1053.04467 0.18728
1051.75890 0.19023
1050.47313 0.19326
1049.18736 0.19632
1047.90159 0.19935
1046.61583 0.20236
1045.33006 0.20539
1044.04429 0.20843
1042.75852 0.21147
1041.47275 0.21453
1040.18698 0.21768
1038.90121 0.22097
1037.61544 0.22430
1036.32967 0.22759
1035.04391 0.23080
1033.75814 0.23389
1032.47237 0.23684
1031.18660 0.23957
1029.90083 0.24207
1028.61506 0.24437
1027.32929 0.24647
1026.04352 0.24835
1024.75775 0.25000
1023.47199 0.25140
1022.18622 0.25253
1020.90045 0.25331
1019.61468 0.25367
1018.32891 0.25360
1017.04314 0.25312
1015.75737 0.25231
1014.47160 0.25123
1013.18584 0.24987
1011.90007 0.24818
1010.61430 0.24608
1009.32853 0.24353
1008.04276 0.24052
1006.75699 0.23712
1005.47122 0.23339
1004.18545 0.22942
1002.89968 0.22521
1001.61392 0.22075
1000.32815 0.21607
999.04238 0.21123
997.75661 0.20623
996.47084 0.20107
995.18507 0.19573
993.89930 0.19025
992.61353 0.18470
991.32777 0.17912
990.04200 0.17355
988.75623 0.16805
987.47046 0.16271
986.18469 0.15755
984.89892 0.15258
983.61315 0.14776
982.32738 0.14308
981.04161 0.13857
979.75585 0.13425
978.47008 0.13016
977.18431 0.12635
975.89854 0.12283
974.61277 0.11963
973.32700 0.11682
972.04123 0.11450
970.75546 0.11276
969.46970 0.11166
968.18393 0.11119
966.89816 0.11131
965.61239 0.11184
964.32662 0.11251
963.04085 0.11301
961.75508 0.11309
960.46931 0.11264
959.18354 0.11162
957.89778 0.11005
956.61201 0.10804
955.32624 0.10581
954.04047 0.10352
952.75470 0.10126
951.46893 0.09902
950.18316 0.09672
948.89739 0.09437
947.61163 0.09201
946.32586 0.08973
945.04009 0.08755
943.75432 0.08545
942.46855 0.08342
941.18278 0.08145
939.89701 0.07959
938.61124 0.07784
937.32547 0.07619
936.03971 0.07465
934.75394 0.07319
933.46817 0.07183
932.18240 0.07059
930.89663 0.06943
929.61086 0.06828
928.32509 0.06710
927.03932 0.06589
925.75356 0.06475
924.46779 0.06371
923.18202 0.06280
921.89625 0.06198
920.61048 0.06119
919.32471 0.06035
918.03894 0.05946
916.75317 0.05856
915.46740 0.05779
914.18164 0.05718
912.89587 0.05665
911.61010 0.05605
910.32433 0.05529
909.03856 0.05447
907.75279 0.05377
906.46702 0.05327
905.18125 0.05290
903.89549 0.05253
902.60972 0.05203
901.32395 0.05140
900.03818 0.05071
898.75241 0.05009
897.46664 0.04959
896.18087 0.04920
894.89510 0.04885
893.60933 0.04851
892.32357 0.04820
891.03780 0.04797
889.75203 0.04791
888.46626 0.04806
887.18049 0.04849
885.89472 0.04934
884.60895 0.05078
883.32318 0.05292
882.03742 0.05565
880.75165 0.05855
879.46588 0.06116
878.18011 0.06328
876.89434 0.06504
875.60857 0.06676
874.32280 0.06856
873.03703 0.07019
871.75126 0.07125
870.46550 0.07148
869.17973 0.07090
867.89396 0.06967
866.60819 0.06796
865.32242 0.06584
864.03665 0.06343
862.75088 0.06092
861.46511 0.05850
860.17935 0.05630
858.89358 0.05435
857.60781 0.05262
856.32204 0.05111
855.03627 0.04981
853.75050 0.04875
852.46473 0.04792
851.17896 0.04726
849.89319 0.04671
848.60743 0.04619
847.32166 0.04568
846.03589 0.04516
844.75012 0.04465
843.46435 0.04414
842.17858 0.04367
840.89281 0.04330
839.60704 0.04304
838.32128 0.04282
837.03551 0.04257
835.74974 0.04224
834.46397 0.04185
833.17820 0.04149
831.89243 0.04119
830.60666 0.04093
829.32089 0.04074
828.03512 0.04061
826.74936 0.04053
825.46359 0.04042
824.17782 0.04028
822.89205 0.04013
821.60628 0.03999
820.32051 0.03983
819.03474 0.03959
817.74897 0.03927
816.46321 0.03892
815.17744 0.03864
813.89167 0.03851
812.60590 0.03851
811.32013 0.03853
810.03436 0.03847
808.74859 0.03831
807.46282 0.03813
806.17705 0.03801
804.89129 0.03794
803.60552 0.03794
802.31975 0.03802
801.03398 0.03817
799.74821 0.03832
798.46244 0.03837
797.17667 0.03830
795.89090 0.03818
794.60513 0.03809
793.31937 0.03805
792.03360 0.03803
790.74783 0.03800
789.46206 0.03797
788.17629 0.03793
786.89052 0.03790
785.60475 0.03787
784.31898 0.03782
783.03322 0.03775
781.74745 0.03766
780.46168 0.03756
779.17591 0.03747
777.89014 0.03738
776.60437 0.03731
775.31860 0.03726
774.03283 0.03722
772.74706 0.03719
771.46130 0.03716
770.17553 0.03713
768.88976 0.03710
767.60399 0.03702
766.31822 0.03691
765.03245 0.03684
763.74668 0.03688
762.46091 0.03706
761.17515 0.03725
759.88938 0.03735
758.60361 0.03729
757.31784 0.03712
756.03207 0.03691
754.74630 0.03675
753.46053 0.03671
752.17476 0.03675
750.88899 0.03677
749.60323 0.03667
748.31746 0.03650
747.03169 0.03632
745.74592 0.03618
744.46015 0.03608
743.17438 0.03602
741.88861 0.03600
740.60284 0.03598
739.31708 0.03594
738.03131 0.03583
736.74554 0.03569
735.45977 0.03557
734.17400 0.03556
732.88823 0.03565
731.60246 0.03576
730.31669 0.03582
729.03092 0.03583
727.74516 0.03578
726.45939 0.03569
725.17362 0.03560
723.88785 0.03549
722.60208 0.03565
721.31631 0.03619
720.03054 0.03674
718.74477 0.03707
717.45901 0.03715
716.17324 0.03702
714.88747 0.03672
713.60170 0.03634
712.31593 0.03598
711.03016 0.03571
709.74439 0.03556
708.45862 0.03550
707.17285 0.03550
705.88709 0.03551
704.60132 0.03550
703.31555 0.03545
702.02978 0.03539
700.74401 0.03536
699.45824 0.03545
698.17247 0.03566
696.88670 0.03594
695.60094 0.03622
694.31517 0.03642
693.02940 0.03650
691.74363 0.03649
690.45786 0.03640
689.17209 0.03627
687.88632 0.03609
686.60055 0.03590
685.31478 0.03566
684.02902 0.03537
682.74325 0.03505
681.45748 0.03475
680.17171 0.03450
678.88594 0.03432
677.60017 0.03422
676.31440 0.03419
675.02863 0.03423
673.74287 0.03431
672.45710 0.03442
671.17133 0.03459
669.88556 0.03476
668.59979 0.03478
667.31402 0.03470
666.02825 0.03468
664.74248 0.03444
663.45671 0.03418
662.17095 0.03397
660.88518 0.03380
659.59941 0.03368
658.31364 0.03358
657.02787 0.03346
655.74210 0.03330
654.45633 0.03309
653.17056 0.03288
651.88480 0.03268
650.59903 0.03253
649.31326 0.03244
648.02749 0.03241
646.74172 0.03241
645.45595 0.03243
644.17018 0.03241
642.88441 0.03232
641.59864 0.03217
640.31288 0.03199
639.02711 0.03181
637.74134 0.03165
636.45557 0.03159
635.16980 0.03171
633.88403 0.03211
632.59826 0.03260
631.31249 0.03248
630.02673 0.03161
628.74096 0.03267
627.45519 0.03487
626.16942 0.03715
624.88365 0.03940
623.59788 0.04165
622.31211 0.04386
621.02634 0.04584
619.74057 0.04736
618.45481 0.04855
617.16904 0.04998
615.88327 0.05230
614.59750 0.05600
613.31173 0.06135
612.02596 0.06821
610.74019 0.07590
609.45442 0.08349
608.16866 0.09007
606.88289 0.09515
605.59712 0.09885
604.31135 0.10159
603.02558 0.10341
601.73981 0.10374
600.45404 0.10221
599.16827 0.09925
597.88250 0.09570
596.59674 0.09220
595.31097 0.08905
594.02520 0.08637
592.73943 0.08428
591.45366 0.08285
590.16789 0.08205
588.88212 0.08179
587.59635 0.08206
586.31059 0.08287
585.02482 0.08425
583.73905 0.08622
582.45328 0.08872
581.16751 0.09160
579.88174 0.09466
578.59597 0.09762
577.31020 0.10033
576.02443 0.10274
574.73867 0.10494
573.45290 0.10704
572.16713 0.10921
570.88136 0.11158
569.59559 0.11427
568.30982 0.11734
567.02405 0.12074
565.73828 0.12418
564.45251 0.12721
563.16675 0.12936
561.88098 0.13029
560.59521 0.12987
559.30944 0.12809
558.02367 0.12498
556.73790 0.12068
555.45213 0.11550
554.16636 0.10986
552.88060 0.10418
551.59483 0.09874
550.30906 0.09368
549.02329 0.08909
547.73752 0.08506
546.45175 0.08159
545.16598 0.07855
543.88021 0.07574
542.59444 0.07304
541.30868 0.07048
540.02291 0.06815
538.73714 0.06607
537.45137 0.06424
536.16560 0.06263
534.87983 0.06119
533.59406 0.05985
532.30829 0.05853
531.02253 0.05722
529.73676 0.05594
528.45099 0.05471
527.16522 0.05349
525.87945 0.05225
524.59368 0.05109
523.30791 0.05015
522.02214 0.04939
520.73637 0.04865
519.45061 0.04777
518.16484 0.04678
516.87907 0.04579
515.59330 0.04490
514.30753 0.04414
513.02176 0.04347
511.73599 0.04288
510.45022 0.04236
509.16446 0.04190
507.87869 0.04147
506.59292 0.04103
505.30715 0.04057
504.02138 0.04007
502.73561 0.03952
501.44984 0.03893
500.16407 0.03834
498.87830 0.03781
497.59254 0.03735
496.30677 0.03694
495.02100 0.03651
493.73523 0.03609
492.44946 0.03571
491.16369 0.03544
489.87792 0.03525
488.59215 0.03511
487.30639 0.03498
486.02062 0.03486
484.73485 0.03477
483.44908 0.03471
482.16331 0.03470
480.87754 0.03475
479.59177 0.03488
478.30600 0.03509
477.02023 0.03535
475.73447 0.03561
474.44870 0.03585
473.16293 0.03603
471.87716 0.03615
470.59139 0.03618
469.30562 0.03612
468.01985 0.03597
466.73408 0.03572
465.44832 0.03534
464.16255 0.03487
462.87678 0.03436
461.59101 0.03390
460.30524 0.03345
459.01947 0.03295
457.73370 0.03238
456.44793 0.03179
455.16216 0.03125
453.87640 0.03076
452.59063 0.03035
451.30486 0.03004
450.01909 0.02982
448.73332 0.02961
447.44755 0.02936
446.16178 0.02907
444.87601 0.02881
443.59025 0.02861
442.30448 0.02845
441.01871 0.02832
439.73294 0.02821
438.44717 0.02814
437.16140 0.02806
435.87563 0.02798
434.58986 0.02787
433.30409 0.02774
432.01833 0.02761
430.73256 0.02743
429.44679 0.02718
428.16102 0.02685
426.87525 0.02649
425.58948 0.02615
424.30371 0.02588
423.01794 0.02572
421.73218 0.02565
420.44641 0.02563
419.16064 0.02555
417.87487 0.02539
416.58910 0.02516
415.30333 0.02492
414.01756 0.02472
412.73179 0.02456
411.44602 0.02443
410.16026 0.02433
408.87449 0.02428
407.58872 0.02429
406.30295 0.02437
405.01718 0.02450
403.73141 0.02461
402.44564 0.02469
401.15987 0.02475
399.87411 0.02480
