3997.45528	0.03236
3996.16951	0.03353
3994.88374	0.03442
3993.59798	0.03466
3992.31221	0.03412
3991.02644	0.03313
3989.74067	0.03208
3988.45490	0.03120
3987.16913	0.03057
3985.88336	0.03021
3984.59759	0.03013
3983.31183	0.03028
3982.02606	0.03066
3980.74029	0.03135
3979.45452	0.03230
3978.16875	0.03318
3976.88298	0.03364
3975.59721	0.03361
3974.31144	0.03339
3973.02567	0.03334
3971.73991	0.03358
3970.45414	0.03397
3969.16837	0.03422
3967.88260	0.03416
3966.59683	0.03382
3965.31106	0.03343
3964.02529	0.03313
3962.73952	0.03278
3961.45376	0.03216
3960.16799	0.03134
3958.88222	0.03081
3957.59645	0.03105
3956.31068	0.03202
3955.02491	0.03321
3953.73914	0.03409
3952.45337	0.03448
3951.16760	0.03450
3949.88184	0.03432
3948.59607	0.03413
3947.31030	0.03399
3946.02453	0.03391
3944.73876	0.03380
3943.45299	0.03358
3942.16722	0.03321
3940.88145	0.03276
3939.59569	0.03239
3938.30992	0.03221
3937.02415	0.03209
3935.73838	0.03185
3934.45261	0.03145
3933.16684	0.03115
3931.88107	0.03124
3930.59530	0.03176
3929.30953	0.03244
3928.02377	0.03290
3926.73800	0.03294
3925.45223	0.03267
3924.16646	0.03237
3922.88069	0.03223
3921.59492	0.03233
3920.30915	0.03256
3919.02338	0.03274
3917.73762	0.03275
3916.45185	0.03262
3915.16608	0.03246
3913.88031	0.03236
3912.59454	0.03234
3911.30877	0.03238
3910.02300	0.03250
3908.73723	0.03271
3907.45146	0.03298
3906.16570	0.03314
3904.87993	0.03288
3903.59416	0.03206
3902.30839	0.03088
3901.02262	0.02992
3899.73685	0.02969
3898.45108	0.03020
3897.16531	0.03093
3895.87955	0.03143
3894.59378	0.03167
3893.30801	0.03192
3892.02224	0.03225
3890.73647	0.03246
3889.45070	0.03231
3888.16493	0.03181
3886.87916	0.03125
3885.59339	0.03089
3884.30763	0.03065
3883.02186	0.03032
3881.73609	0.02998
3880.45032	0.02995
3879.16455	0.03028
3877.87878	0.03065
3876.59301	0.03072
3875.30724	0.03049
3874.02148	0.03024
3872.73571	0.03018
3871.44994	0.03036
3870.16417	0.03066
3868.87840	0.03088
3867.59263	0.03082
3866.30686	0.03053
3865.02109	0.03030
3863.73532	0.03024
3862.44956	0.03023
3861.16379	0.03024
3859.87802	0.03027
3858.59225	0.03021
3857.30648	0.03000
3856.02071	0.02979
3854.73494	0.02989
3853.44917	0.03033
3852.16341	0.03065
3850.87764	0.03047
3849.59187	0.03005
3848.30610	0.03008
3847.02033	0.03085
3845.73456	0.03195
3844.44879	0.03273
3843.16302	0.03279
3841.87725	0.03214
3840.59149	0.03111
3839.30572	0.03011
3838.01995	0.02955
3836.73418	0.02948
3835.44841	0.02960
3834.16264	0.02962
3832.87687	0.02964
3831.59110	0.02985
3830.30534	0.03013
3829.01957	0.03017
3827.73380	0.02987
3826.44803	0.02960
3825.16226	0.02980
3823.87649	0.03053
3822.59072	0.03145
3821.30495	0.03223
3820.01918	0.03264
3818.73342	0.03261
3817.44765	0.03220
3816.16188	0.03170
3814.87611	0.03125
3813.59034	0.03082
3812.30457	0.03057
3811.01880	0.03076
3809.73303	0.03134
3808.44726	0.03181
3807.16150	0.03189
3805.87573	0.03170
3804.58996	0.03152
3803.30419	0.03147
3802.01842	0.03160
3800.73265	0.03181
3799.44688	0.03183
3798.16111	0.03154
3796.87535	0.03109
3795.58958	0.03066
3794.30381	0.03027
3793.01804	0.02995
3791.73227	0.02990
3790.44650	0.03008
3789.16073	0.03017
3787.87496	0.02985
3786.58919	0.02921
3785.30343	0.02873
3784.01766	0.02882
3782.73189	0.02943
3781.44612	0.03009
3780.16035	0.03031
3778.87458	0.02998
3777.58881	0.02938
3776.30304	0.02892
3775.01728	0.02886
3773.73151	0.02907
3772.44574	0.02922
3771.15997	0.02909
3769.87420	0.02876
3768.58843	0.02848
3767.30266	0.02846
3766.01689	0.02880
3764.73112	0.02935
3763.44536	0.02971
3762.15959	0.02959
3760.87382	0.02910
3759.58805	0.02861
3758.30228	0.02835
3757.01651	0.02829
3755.73074	0.02831
3754.44497	0.02836
3753.15921	0.02852
3751.87344	0.02886
3750.58767	0.02922
3749.30190	0.02946
3748.01613	0.02948
3746.73036	0.02916
3745.44459	0.02861
3744.15882	0.02820
3742.87305	0.02813
3741.58729	0.02818
3740.30152	0.02813
3739.01575	0.02798
3737.72998	0.02782
3736.44421	0.02782
3735.15844	0.02812
3733.87267	0.02850
3732.58690	0.02875
3731.30114	0.02886
3730.01537	0.02886
3728.72960	0.02883
3727.44383	0.02888
3726.15806	0.02918
3724.87229	0.02962
3723.58652	0.02985
3722.30075	0.02961
3721.01498	0.02892
3719.72922	0.02804
3718.44345	0.02748
3717.15768	0.02756
3715.87191	0.02818
3714.58614	0.02888
3713.30037	0.02938
3712.01460	0.02978
3710.72883	0.03016
3709.44307	0.03037
3708.15730	0.03026
3706.87153	0.02982
3705.58576	0.02919
3704.29999	0.02855
3703.01422	0.02814
3701.72845	0.02828
3700.44268	0.02901
3699.15691	0.02990
3697.87115	0.03047
3696.58538	0.03044
3695.29961	0.02973
3694.01384	0.02854
3692.72807	0.02757
3691.44230	0.02734
3690.15653	0.02791
3688.87076	0.02912
3687.58500	0.03039
3686.29923	0.03077
3685.01346	0.02995
3683.72769	0.02851
3682.44192	0.02738
3681.15615	0.02712
3679.87038	0.02757
3678.58461	0.02829
3677.29884	0.02900
3676.01308	0.02952
3674.72731	0.02967
3673.44154	0.02936
3672.15577	0.02885
3670.87000	0.02869
3669.58423	0.02903
3668.29846	0.02949
3667.01269	0.02975
3665.72693	0.02985
3664.44116	0.02986
3663.15539	0.02968
3661.86962	0.02939
3660.58385	0.02930
3659.29808	0.02960
3658.01231	0.03009
3656.72654	0.03045
3655.44077	0.03055
3654.15501	0.03040
3652.86924	0.03010
3651.58347	0.02975
3650.29770	0.02950
3649.01193	0.02940
3647.72616	0.02940
3646.44039	0.02943
3645.15462	0.02949
3643.86886	0.02969
3642.58309	0.03005
3641.29732	0.03055
3640.01155	0.03108
3638.72578	0.03151
3637.44001	0.03172
3636.15424	0.03163
3634.86847	0.03135
3633.58270	0.03106
3632.29694	0.03092
3631.01117	0.03090
3629.72540	0.03107
3628.43963	0.03150
3627.15386	0.03213
3625.86809	0.03276
3624.58232	0.03330
3623.29655	0.03366
3622.01079	0.03379
3620.72502	0.03387
3619.43925	0.03424
3618.15348	0.03494
3616.86771	0.03558
3615.58194	0.03580
3614.29617	0.03564
3613.01040	0.03540
3611.72463	0.03525
3610.43887	0.03524
3609.15310	0.03541
3607.86733	0.03578
3606.58156	0.03618
3605.29579	0.03638
3604.01002	0.03640
3602.72425	0.03646
3601.43848	0.03672
3600.15272	0.03712
3598.86695	0.03741
3597.58118	0.03748
3596.29541	0.03749
3595.00964	0.03762
3593.72387	0.03784
3592.43810	0.03807
3591.15233	0.03819
3589.86656	0.03817
3588.58080	0.03816
3587.29503	0.03831
3586.00926	0.03854
3584.72349	0.03865
3583.43772	0.03873
3582.15195	0.03895
3580.86618	0.03936
3579.58041	0.03984
3578.29464	0.04029
3577.00888	0.04067
3575.72311	0.04103
3574.43734	0.04125
3573.15157	0.04110
3571.86580	0.04063
3570.58003	0.04015
3569.29426	0.04007
3568.00849	0.04050
3566.72273	0.04121
3565.43696	0.04187
3564.15119	0.04223
3562.86542	0.04213
3561.57965	0.04159
3560.29388	0.04079
3559.00811	0.04010
3557.72234	0.03994
3556.43657	0.04043
3555.15081	0.04127
3553.86504	0.04197
3552.57927	0.04230
3551.29350	0.04243
3550.00773	0.04261
3548.72196	0.04296
3547.43619	0.04341
3546.15042	0.04383
3544.86466	0.04415
3543.57889	0.04438
3542.29312	0.04458
3541.00735	0.04481
3539.72158	0.04505
3538.43581	0.04514
3537.15004	0.04495
3535.86427	0.04456
3534.57850	0.04429
3533.29274	0.04444
3532.00697	0.04507
3530.72120	0.04587
3529.43543	0.04647
3528.14966	0.04667
3526.86389	0.04661
3525.57812	0.04654
3524.29235	0.04657
3523.00659	0.04667
3521.72082	0.04682
3520.43505	0.04698
3519.14928	0.04718
3517.86351	0.04751
3516.57774	0.04804
3515.29197	0.04859
3514.00620	0.04886
3512.72043	0.04866
3511.43467	0.04815
3510.14890	0.04770
3508.86313	0.04762
3507.57736	0.04798
3506.29159	0.04853
3505.00582	0.04897
3503.72005	0.04912
3502.43428	0.04905
3501.14852	0.04896
3499.86275	0.04899
3498.57698	0.04907
3497.29121	0.04908
3496.00544	0.04894
3494.71967	0.04877
3493.43390	0.04874
3492.14813	0.04889
3490.86236	0.04913
3489.57660	0.04937
3488.29083	0.04955
3487.00506	0.04963
3485.71929	0.04968
3484.43352	0.04980
3483.14775	0.05010
3481.86198	0.05060
3480.57621	0.05120
3479.29045	0.05180
3478.00468	0.05230
3476.71891	0.05265
3475.43314	0.05280
3474.14737	0.05285
3472.86160	0.05291
3471.57583	0.05305
3470.29006	0.05321
3469.00429	0.05338
3467.71853	0.05355
3466.43276	0.05371
3465.14699	0.05390
3463.86122	0.05412
3462.57545	0.05438
3461.28968	0.05451
3460.00391	0.05439
3458.71814	0.05409
3457.43238	0.05385
3456.14661	0.05384
3454.86084	0.05401
3453.57507	0.05424
3452.28930	0.05456
3451.00353	0.05504
3449.71776	0.05557
3448.43199	0.05591
3447.14622	0.05595
3445.86046	0.05583
3444.57469	0.05564
3443.28892	0.05539
3442.00315	0.05508
3440.71738	0.05480
3439.43161	0.05471
3438.14584	0.05495
3436.86007	0.05549
3435.57431	0.05613
3434.28854	0.05650
3433.00277	0.05636
3431.71700	0.05589
3430.43123	0.05555
3429.14546	0.05571
3427.85969	0.05630
3426.57392	0.05693
3425.28815	0.05725
3424.00239	0.05725
3422.71662	0.05715
3421.43085	0.05714
3420.14508	0.05723
3418.85931	0.05739
3417.57354	0.05763
3416.28777	0.05796
3415.00200	0.05826
3413.71624	0.05833
3412.43047	0.05807
3411.14470	0.05767
3409.85893	0.05750
3408.57316	0.05781
3407.28739	0.05854
3406.00162	0.05943
3404.71585	0.06021
3403.43008	0.06067
3402.14432	0.06071
3400.85855	0.06039
3399.57278	0.06000
3398.28701	0.05954
3397.00124	0.05886
3395.71547	0.05813
3394.42970	0.05773
3393.14393	0.05781
3391.85817	0.05820
3390.57240	0.05851
3389.28663	0.05856
3388.00086	0.05849
3386.71509	0.05848
3385.42932	0.05850
3384.14355	0.05843
3382.85778	0.05829
3381.57201	0.05832
3380.28625	0.05871
3379.00048	0.05942
3377.71471	0.06022
3376.42894	0.06077
3375.14317	0.06079
3373.85740	0.06026
3372.57163	0.05950
3371.28586	0.05899
3370.00010	0.05908
3368.71433	0.05973
3367.42856	0.06058
3366.14279	0.06115
3364.85702	0.06116
3363.57125	0.06064
3362.28548	0.05997
3360.99971	0.05952
3359.71394	0.05937
3358.42818	0.05932
3357.14241	0.05928
3355.85664	0.05935
3354.57087	0.05964
3353.28510	0.06006
3351.99933	0.06041
3350.71356	0.06062
3349.42779	0.06066
3348.14202	0.06052
3346.85626	0.06019
3345.57049	0.05980
3344.28472	0.05956
3342.99895	0.05958
3341.71318	0.05974
3340.42741	0.05978
3339.14164	0.05951
3337.85587	0.05900
3336.57011	0.05854
3335.28434	0.05845
3333.99857	0.05872
3332.71280	0.05910
3331.42703	0.05937
3330.14126	0.05951
3328.85549	0.05956
3327.56972	0.05954
3326.28395	0.05941
3324.99819	0.05921
3323.71242	0.05905
3322.42665	0.05900
3321.14088	0.05902
3319.85511	0.05901
3318.56934	0.05886
3317.28357	0.05861
3315.99780	0.05844
3314.71204	0.05857
3313.42627	0.05898
3312.14050	0.05941
3310.85473	0.05952
3309.56896	0.05922
3308.28319	0.05876
3306.99742	0.05842
3305.71165	0.05831
3304.42588	0.05837
3303.14012	0.05853
3301.85435	0.05877
3300.56858	0.05909
3299.28281	0.05931
3297.99704	0.05915
3296.71127	0.05856
3295.42550	0.05792
3294.13973	0.05773
3292.85397	0.05816
3291.56820	0.05883
3290.28243	0.05927
3288.99666	0.05930
3287.71089	0.05908
3286.42512	0.05880
3285.13935	0.05858
3283.85358	0.05854
3282.56781	0.05875
3281.28205	0.05915
3279.99628	0.05947
3278.71051	0.05945
3277.42474	0.05902
3276.13897	0.05838
3274.85320	0.05784
3273.56743	0.05766
3272.28166	0.05792
3270.99590	0.05846
3269.71013	0.05893
3268.42436	0.05905
3267.13859	0.05875
3265.85282	0.05833
3264.56705	0.05820
3263.28128	0.05857
3261.99551	0.05924
3260.70974	0.05970
3259.42398	0.05961
3258.13821	0.05901
3256.85244	0.05835
3255.56667	0.05802
3254.28090	0.05810
3252.99513	0.05832
3251.70936	0.05841
3250.42359	0.05830
3249.13783	0.05813
3247.85206	0.05807
3246.56629	0.05810
3245.28052	0.05810
3243.99475	0.05804
3242.70898	0.05802
3241.42321	0.05816
3240.13744	0.05834
3238.85167	0.05832
3237.56591	0.05800
3236.28014	0.05761
3234.99437	0.05743
3233.70860	0.05750
3232.42283	0.05765
3231.13706	0.05775
3229.85129	0.05778
3228.56552	0.05776
3227.27976	0.05771
3225.99399	0.05764
3224.70822	0.05753
3223.42245	0.05739
3222.13668	0.05729
3220.85091	0.05730
3219.56514	0.05736
3218.27937	0.05728
3216.99360	0.05698
3215.70784	0.05661
3214.42207	0.05644
3213.13630	0.05661
3211.85053	0.05693
3210.56476	0.05711
3209.27899	0.05704
3207.99322	0.05684
3206.70745	0.05663
3205.42169	0.05637
3204.13592	0.05598
3202.85015	0.05556
3201.56438	0.05533
3200.27861	0.05534
3198.99284	0.05546
3197.70707	0.05551
3196.42130	0.05554
3195.13553	0.05569
3193.84977	0.05603
3192.56400	0.05648
3191.27823	0.05681
3189.99246	0.05684
3188.70669	0.05655
3187.42092	0.05615
3186.13515	0.05580
3184.84938	0.05542
3183.56362	0.05488
3182.27785	0.05429
3180.99208	0.05388
3179.70631	0.05380
3178.42054	0.05394
3177.13477	0.05413
3175.84900	0.05430
3174.56323	0.05442
3173.27746	0.05441
3171.99170	0.05424
3170.70593	0.05399
3169.42016	0.05377
3168.13439	0.05361
3166.84862	0.05345
3165.56285	0.05329
3164.27708	0.05326
3162.99131	0.05346
3161.70555	0.05376
3160.41978	0.05396
3159.13401	0.05400
3157.84824	0.05400
3156.56247	0.05404
3155.27670	0.05403
3153.99093	0.05379
3152.70516	0.05328
3151.41939	0.05268
3150.13363	0.05229
3148.84786	0.05231
3147.56209	0.05271
3146.27632	0.05324
3144.99055	0.05363
3143.70478	0.05377
3142.41901	0.05366
3141.13324	0.05336
3139.84748	0.05292
3138.56171	0.05239
3137.27594	0.05187
3135.99017	0.05148
3134.70440	0.05130
3133.41863	0.05130
3132.13286	0.05143
3130.84709	0.05158
3129.56132	0.05166
3128.27556	0.05161
3126.98979	0.05142
3125.70402	0.05117
3124.41825	0.05091
3123.13248	0.05069
3121.84671	0.05050
3120.56094	0.05033
3119.27517	0.05017
3117.98940	0.04995
3116.70364	0.04969
3115.41787	0.04950
3114.13210	0.04949
3112.84633	0.04970
3111.56056	0.05004
3110.27479	0.05036
3108.98902	0.05052
3107.70325	0.05045
3106.41749	0.05013
3105.13172	0.04972
3103.84595	0.04948
3102.56018	0.04954
3101.27441	0.04980
3099.98864	0.04998
3098.70287	0.04994
3097.41710	0.04976
3096.13133	0.04962
3094.84557	0.04958
3093.55980	0.04960
3092.27403	0.04957
3090.98826	0.04941
3089.70249	0.04919
3088.41672	0.04905
3087.13095	0.04915
3085.84518	0.04943
3084.55942	0.04971
3083.27365	0.04985
3081.98788	0.04980
3080.70211	0.04960
3079.41634	0.04933
3078.13057	0.04906
3076.84480	0.04889
3075.55903	0.04884
3074.27326	0.04883
3072.98750	0.04879
3071.70173	0.04868
3070.41596	0.04849
3069.13019	0.04824
3067.84442	0.04803
3066.55865	0.04797
3065.27288	0.04809
3063.98711	0.04826
3062.70135	0.04826
3061.41558	0.04797
3060.12981	0.04751
3058.84404	0.04711
3057.55827	0.04698
3056.27250	0.04712
3054.98673	0.04733
3053.70096	0.04742
3052.41519	0.04728
3051.12943	0.04689
3049.84366	0.04633
3048.55789	0.04578
3047.27212	0.04550
3045.98635	0.04559
3044.70058	0.04591
3043.41481	0.04621
3042.12904	0.04632
3040.84328	0.04626
3039.55751	0.04621
3038.27174	0.04631
3036.98597	0.04651
3035.70020	0.04663
3034.41443	0.04653
3033.12866	0.04625
3031.84289	0.04590
3030.55712	0.04563
3029.27136	0.04554
3027.98559	0.04559
3026.69982	0.04567
3025.41405	0.04569
3024.12828	0.04566
3022.84251	0.04559
3021.55674	0.04549
3020.27097	0.04530
3018.98521	0.04501
3017.69944	0.04467
3016.41367	0.04436
3015.12790	0.04412
3013.84213	0.04397
3012.55636	0.04392
3011.27059	0.04398
3009.98482	0.04409
3008.69905	0.04414
3007.41329	0.04408
3006.12752	0.04394
3004.84175	0.04379
3003.55598	0.04368
3002.27021	0.04357
3000.98444	0.04350
2999.69867	0.04355
2998.41290	0.04341
2997.12714	0.04328
2995.84137	0.04331
2994.55560	0.04351
2993.26983	0.04371
2991.98406	0.04374
2990.69829	0.04363
2989.41252	0.04347
2988.12675	0.04336
2986.84098	0.04327
2985.55522	0.04316
2984.26945	0.04299
2982.98368	0.04274
2981.69791	0.04249
2980.41214	0.04239
2979.12637	0.04250
2977.84060	0.04268
2976.55483	0.04276
2975.26907	0.04267
2973.98330	0.04255
2972.69753	0.04250
2971.41176	0.04260
2970.12599	0.04282
2968.84022	0.04315
2967.55445	0.04353
2966.26868	0.04391
2964.98291	0.04420
2963.69715	0.04430
2962.41138	0.04421
2961.12561	0.04407
2959.83984	0.04397
2958.55407	0.04389
2957.26830	0.04376
2955.98253	0.04370
2954.69676	0.04387
2953.41100	0.04425
2952.12523	0.04459
2950.83946	0.04471
2949.55369	0.04462
2948.26792	0.04441
2946.98215	0.04413
2945.69638	0.04384
2944.41061	0.04365
2943.12484	0.04365
2941.83908	0.04370
2940.55331	0.04360
2939.26754	0.04327
2937.98177	0.04288
2936.69600	0.04260
2935.41023	0.04243
2934.12446	0.04221
2932.83869	0.04182
2931.55293	0.04125
2930.26716	0.04055
2928.98139	0.03982
2927.69562	0.03909
2926.40985	0.03827
2925.12408	0.03730
2923.83831	0.03620
2922.55254	0.03508
2921.26677	0.03403
2919.98101	0.03309
2918.69524	0.03235
2917.40947	0.03199
2916.12370	0.03215
2914.83793	0.03281
2913.55216	0.03380
2912.26639	0.03494
2910.98062	0.03614
2909.69486	0.03732
2908.40909	0.03840
2907.12332	0.03932
2905.83755	0.04000
2904.55178	0.04038
2903.26601	0.04046
2901.98024	0.04037
2900.69447	0.04031
2899.40870	0.04040
2898.12294	0.04055
2896.83717	0.04061
2895.55140	0.04056
2894.26563	0.04049
2892.97986	0.04047
2891.69409	0.04046
2890.40832	0.04040
2889.12255	0.04025
2887.83678	0.04010
2886.55102	0.04002
2885.26525	0.04005
2883.97948	0.04014
2882.69371	0.04027
2881.40794	0.04037
2880.12217	0.04041
2878.83640	0.04045
2877.55063	0.04058
2876.26487	0.04075
2874.97910	0.04088
2873.69333	0.04094
2872.40756	0.04098
2871.12179	0.04097
2869.83602	0.04085
2868.55025	0.04061
2867.26448	0.04033
2865.97871	0.04008
2864.69295	0.03985
2863.40718	0.03964
2862.12141	0.03946
2860.83564	0.03930
2859.54987	0.03898
2858.26410	0.03830
2856.97833	0.03721
2855.69256	0.03580
2854.40680	0.03431
2853.12103	0.03289
2851.83526	0.03171
2850.54949	0.03092
2849.26372	0.03073
2847.97795	0.03124
2846.69218	0.03239
2845.40641	0.03389
2844.12064	0.03535
2842.83488	0.03644
2841.54911	0.03709
2840.26334	0.03735
2838.97757	0.03734
2837.69180	0.03718
2836.40603	0.03698
2835.12026	0.03683
2833.83449	0.03674
2832.54873	0.03666
2831.26296	0.03653
2829.97719	0.03637
2828.69142	0.03629
2827.40565	0.03630
2826.11988	0.03635
2824.83411	0.03636
2823.54834	0.03628
2822.26257	0.03606
2820.97681	0.03573
2819.69104	0.03542
2818.40527	0.03522
2817.11950	0.03512
2815.83373	0.03508
2814.54796	0.03509
2813.26219	0.03516
2811.97642	0.03525
2810.69066	0.03523
2809.40489	0.03509
2808.11912	0.03491
2806.83335	0.03482
2805.54758	0.03490
2804.26181	0.03501
2802.97604	0.03499
2801.69027	0.03481
2800.40450	0.03459
2799.11874	0.03445
2797.83297	0.03432
2796.54720	0.03415
2795.26143	0.03400
2793.97566	0.03400
2792.68989	0.03414
2791.40412	0.03431
2790.11835	0.03443
2788.83259	0.03448
2787.54682	0.03439
2786.26105	0.03410
2784.97528	0.03362
2783.68951	0.03314
2782.40374	0.03284
2781.11797	0.03281
2779.83220	0.03302
2778.54643	0.03345
2777.26067	0.03397
2775.97490	0.03438
2774.68913	0.03447
2773.40336	0.03423
2772.11759	0.03382
2770.83182	0.03345
2769.54605	0.03320
2768.26028	0.03308
2766.97452	0.03309
2765.68875	0.03327
2764.40298	0.03354
2763.11721	0.03375
2761.83144	0.03377
2760.54567	0.03358
2759.25990	0.03323
2757.97413	0.03280
2756.68836	0.03243
2755.40260	0.03231
2754.11683	0.03247
2752.83106	0.03273
2751.54529	0.03279
2750.25952	0.03259
2748.97375	0.03228
2747.68798	0.03209
2746.40221	0.03208
2745.11645	0.03212
2743.83068	0.03206
2742.54491	0.03186
2741.25914	0.03160
2739.97337	0.03140
2738.68760	0.03127
2737.40183	0.03122
2736.11606	0.03125
2734.83029	0.03138
2733.54453	0.03159
2732.25876	0.03181
2730.97299	0.03197
2729.68722	0.03199
2728.40145	0.03190
2727.11568	0.03179
2725.82991	0.03175
2724.54414	0.03176
2723.25838	0.03171
2721.97261	0.03150
2720.68684	0.03122
2719.40107	0.03100
2718.11530	0.03094
2716.82953	0.03104
2715.54376	0.03117
2714.25799	0.03127
2712.97222	0.03133
2711.68646	0.03137
2710.40069	0.03139
2709.11492	0.03135
2707.82915	0.03120
2706.54338	0.03101
2705.25761	0.03091
2703.97184	0.03095
2702.68607	0.03103
2701.40031	0.03104
2700.11454	0.03089
2698.82877	0.03061
2697.54300	0.03031
2696.25723	0.03007
2694.97146	0.02994
2693.68569	0.02991
2692.39992	0.03001
2691.11415	0.03020
2689.82839	0.03041
2688.54262	0.03053
2687.25685	0.03048
2685.97108	0.03029
2684.68531	0.03006
2683.39954	0.02988
2682.11377	0.02977
2680.82800	0.02970
2679.54224	0.02961
2678.25647	0.02951
2676.97070	0.02946
2675.68493	0.02955
2674.39916	0.02973
2673.11339	0.02982
2671.82762	0.02968
2670.54185	0.02939
2669.25608	0.02924
2667.97032	0.02939
2666.68455	0.02970
2665.39878	0.02989
2664.11301	0.02982
2662.82724	0.02957
2661.54147	0.02928
2660.25570	0.02903
2658.96993	0.02882
2657.68417	0.02865
2656.39840	0.02855
2655.11263	0.02851
2653.82686	0.02850
2652.54109	0.02839
2651.25532	0.02817
2649.96955	0.02792
2648.68378	0.02774
2647.39801	0.02761
2646.11225	0.02748
2644.82648	0.02740
2643.54071	0.02741
2642.25494	0.02746
2640.96917	0.02739
2639.68340	0.02716
2638.39763	0.02690
2637.11186	0.02674
2635.82609	0.02674
2634.54033	0.02677
2633.25456	0.02667
2631.96879	0.02640
2630.68302	0.02604
2629.39725	0.02571
2628.11148	0.02543
2626.82571	0.02518
2625.53994	0.02503
2624.25418	0.02508
2622.96841	0.02536
2621.68264	0.02571
2620.39687	0.02594
2619.11110	0.02595
2617.82533	0.02576
2616.53956	0.02546
2615.25379	0.02515
2613.96802	0.02487
2612.68226	0.02467
2611.39649	0.02458
2610.11072	0.02456
2608.82495	0.02453
2607.53918	0.02445
2606.25341	0.02436
2604.96764	0.02431
2603.68187	0.02429
2602.39611	0.02421
2601.11034	0.02404
2599.82457	0.02381
2598.53880	0.02366
2597.25303	0.02370
2595.96726	0.02394
2594.68149	0.02424
2593.39572	0.02447
2592.10995	0.02459
2590.82419	0.02467
2589.53842	0.02471
2588.25265	0.02468
2586.96688	0.02460
2585.68111	0.02459
2584.39534	0.02475
2583.10957	0.02497
2581.82380	0.02499
2580.53804	0.02461
2579.25227	0.02396
2577.96650	0.02345
2576.68073	0.02341
2575.39496	0.02371
2574.10919	0.02396
2572.82342	0.02391
2571.53765	0.02372
2570.25188	0.02361
2568.96612	0.02360
2567.68035	0.02355
2566.39458	0.02335
2565.10881	0.02307
2563.82304	0.02285
2562.53727	0.02279
2561.25150	0.02287
2559.96573	0.02299
2558.67997	0.02306
2557.39420	0.02310
2556.10843	0.02315
2554.82266	0.02312
2553.53689	0.02289
2552.25112	0.02247
2550.96535	0.02204
2549.67958	0.02182
2548.39381	0.02187
2547.10805	0.02218
2545.82228	0.02262
2544.53651	0.02301
2543.25074	0.02310
2541.96497	0.02288
2540.67920	0.02261
2539.39343	0.02257
2538.10766	0.02274
2536.82190	0.02279
2535.53613	0.02252
2534.25036	0.02204
2532.96459	0.02164
2531.67882	0.02151
2530.39305	0.02174
2529.10728	0.02227
2527.82151	0.02294
2526.53574	0.02346
2525.24998	0.02355
2523.96421	0.02314
2522.67844	0.02244
2521.39267	0.02188
2520.10690	0.02176
2518.82113	0.02205
2517.53536	0.02251
2516.24959	0.02297
2514.96383	0.02341
2513.67806	0.02377
2512.39229	0.02390
2511.10652	0.02368
2509.82075	0.02322
2508.53498	0.02275
2507.24921	0.02245
2505.96344	0.02230
2504.67767	0.02217
2503.39191	0.02196
2502.10614	0.02173
2500.82037	0.02160
2499.53460	0.02158
2498.24883	0.02161
2496.96306	0.02159
2495.67729	0.02160
2494.39152	0.02175
2493.10576	0.02212
2491.81999	0.02261
2490.53422	0.02305
2489.24845	0.02328
2487.96268	0.02322
2486.67691	0.02296
2485.39114	0.02263
2484.10537	0.02234
2482.81960	0.02208
2481.53384	0.02181
2480.24807	0.02151
2478.96230	0.02118
2477.67653	0.02084
2476.39076	0.02058
2475.10499	0.02042
2473.81922	0.02033
2472.53345	0.02026
2471.24769	0.02027
2469.96192	0.02041
2468.67615	0.02067
2467.39038	0.02102
2466.10461	0.02130
2464.81884	0.02133
2463.53307	0.02108
2462.24730	0.02079
2460.96153	0.02078
2459.67577	0.02110
2458.39000	0.02151
2457.10423	0.02180
2455.81846	0.02199
2454.53269	0.02215
2453.24692	0.02225
2451.96115	0.02224
2450.67538	0.02215
2449.38962	0.02202
2448.10385	0.02184
2446.81808	0.02159
2445.53231	0.02136
2444.24654	0.02131
2442.96077	0.02146
2441.67500	0.02161
2440.38923	0.02154
2439.10346	0.02125
2437.81770	0.02094
2436.53193	0.02076
2435.24616	0.02066
2433.96039	0.02050
2432.67462	0.02022
2431.38885	0.01995
2430.10308	0.01991
2428.81731	0.02016
2427.53155	0.02049
2426.24578	0.02074
2424.96001	0.02089
2423.67424	0.02109
2422.38847	0.02137
2421.10270	0.02165
2419.81693	0.02175
2418.53116	0.02164
2417.24539	0.02138
2415.95963	0.02112
2414.67386	0.02090
2413.38809	0.02070
2412.10232	0.02055
2410.81655	0.02052
2409.53078	0.02063
2408.24501	0.02077
2406.95924	0.02085
2405.67347	0.02085
2404.38771	0.02081
2403.10194	0.02072
2401.81617	0.02056
2400.53040	0.02042
2399.24463	0.02026
2397.95886	0.02066
2396.67309	0.02104
2395.38732	0.02110
2394.10156	0.02091
2392.81579	0.02068
2391.53002	0.02060
2390.24425	0.02070
2388.95848	0.02088
2387.67271	0.02101
2386.38694	0.02104
2385.10117	0.02091
2383.81540	0.02063
2382.52964	0.02026
2381.24387	0.01995
2379.95810	0.01974
2378.67233	0.01954
2377.38656	0.01924
2376.10079	0.01873
2374.81502	0.01805
2373.52925	0.01754
2372.24349	0.01721
2370.95772	0.01731
2369.67195	0.01728
2368.38618	0.01713
2367.10041	0.01710
2365.81464	0.01733
2364.52887	0.01713
2363.24310	0.01686
2361.95733	0.01688
2360.67157	0.01737
2359.38580	0.01742
2358.10003	0.01748
2356.81426	0.01776
2355.52849	0.01820
2354.24272	0.01875
2352.95695	0.01895
2351.67118	0.01919
2350.38542	0.01973
2349.09965	0.01971
2347.81388	0.01855
2346.52811	0.01759
2345.24234	0.01738
2343.95657	0.01739
2342.67080	0.01683
2341.38503	0.01683
2340.09926	0.01776
2338.81350	0.01808
2337.52773	0.01751
2336.24196	0.01733
2334.95619	0.01771
2333.67042	0.01763
2332.38465	0.01669
2331.09888	0.01742
2329.81311	0.01846
2328.52735	0.01740
2327.24158	0.01796
2325.95581	0.01936
2324.67004	0.01869
2323.38427	0.01865
2322.09850	0.01967
2320.81273	0.01881
2319.52696	0.01896
2318.24119	0.01967
2316.95543	0.01894
2315.66966	0.01885
2314.38389	0.01889
2313.09812	0.01832
2311.81235	0.01843
2310.52658	0.01812
2309.24081	0.01782
2307.95504	0.01796
2306.66928	0.01779
2305.38351	0.01797
2304.09774	0.01816
2302.81197	0.01821
2301.52620	0.01833
2300.24043	0.01816
2298.95466	0.01797
2297.66889	0.01779
2296.38312	0.01775
2295.09736	0.01790
2293.81159	0.01804
2292.52582	0.01824
2291.24005	0.01842
2289.95428	0.01856
2288.66851	0.01844
2287.38274	0.01797
2286.09697	0.01736
2284.81121	0.01691
2283.52544	0.01678
2282.23967	0.01679
2280.95390	0.01678
2279.66813	0.01667
2278.38236	0.01650
2277.09659	0.01623
2275.81082	0.01588
2274.52505	0.01563
2273.23929	0.01565
2271.95352	0.01591
2270.66775	0.01615
2269.38198	0.01618
2268.09621	0.01605
2266.81044	0.01592
2265.52467	0.01583
2264.23890	0.01571
2262.95314	0.01554
2261.66737	0.01539
2260.38160	0.01526
2259.09583	0.01524
2257.81006	0.01540
2256.52429	0.01565
2255.23852	0.01571
2253.95275	0.01542
2252.66698	0.01488
2251.38122	0.01453
2250.09545	0.01466
2248.80968	0.01479
2247.52391	0.01511
2246.23814	0.01511
2244.95237	0.01488
2243.66660	0.01463
2242.38083	0.01435
2241.09507	0.01381
2239.80930	0.01299
2238.52353	0.01224
2237.23776	0.01194
2235.95199	0.01217
2234.66622	0.01263
2233.38045	0.01295
2232.09468	0.01289
2230.80891	0.01234
2229.52315	0.01143
2228.23738	0.01050
2226.95161	0.00997
2225.66584	0.00995
2224.38007	0.01008
2223.09430	0.00996
2221.80853	0.00954
2220.52276	0.00906
2219.23700	0.00882
2217.95123	0.00899
2216.66546	0.00963
2215.37969	0.01061
2214.09392	0.01146
2212.80815	0.01170
2211.52238	0.01135
2210.23661	0.01096
2208.95084	0.01096
2207.66508	0.01110
2206.37931	0.01075
2205.09354	0.00991
2203.80777	0.00939
2202.52200	0.00986
2201.23623	0.01103
2199.95046	0.01199
2198.66469	0.01229
2197.37893	0.01206
2196.09316	0.01158
2194.80739	0.01092
2193.52162	0.01027
2192.23585	0.00995
2190.95008	0.00998
2189.66431	0.00984
2188.37854	0.00904
2187.09277	0.00782
2185.80701	0.00701
2184.52124	0.00713
2183.23547	0.00772
2181.94970	0.00788
2180.66393	0.00730
2179.37816	0.00653
2178.09239	0.00629
2176.80662	0.00674
2175.52085	0.00748
2174.23509	0.00801
2172.94932	0.00811
2171.66355	0.00788
2170.37778	0.00757
2169.09201	0.00727
2167.80624	0.00685
2166.52047	0.00617
2165.23470	0.00535
2163.94894	0.00456
2162.66317	0.00384
2161.37740	0.00330
2160.09163	0.00337
2158.80586	0.00442
2157.52009	0.00595
2156.23432	0.00682
2154.94855	0.00644
2153.66278	0.00543
2152.37702	0.00491
2151.09125	0.00539
2149.80548	0.00643
2148.51971	0.00731
2147.23394	0.00776
2145.94817	0.00799
2144.66240	0.00820
2143.37663	0.00832
2142.09087	0.00821
2140.80510	0.00791
2139.51933	0.00764
2138.23356	0.00761
2136.94779	0.00783
2135.66202	0.00813
2134.37625	0.00840
2133.09048	0.00869
2131.80471	0.00913
2130.51895	0.00967
2129.23318	0.01005
2127.94741	0.00999
2126.66164	0.00954
2125.37587	0.00897
2124.09010	0.00860
2122.80433	0.00858
2121.51856	0.00891
2120.23280	0.00938
2118.94703	0.00975
2117.66126	0.00989
2116.37549	0.00984
2115.08972	0.00977
2113.80395	0.00974
2112.51818	0.00976
2111.23241	0.00981
2109.94664	0.00989
2108.66088	0.00993
2107.37511	0.00987
2106.08934	0.00968
2104.80357	0.00943
2103.51780	0.00927
2102.23203	0.00917
2100.94626	0.00902
2099.66049	0.00951
2098.37473	0.00941
2097.08896	0.00905
2095.80319	0.00875
2094.51742	0.00846
2093.23165	0.00819
2091.94588	0.00798
2090.66011	0.00788
2089.37434	0.00786
2088.08857	0.00796
2086.80281	0.00825
2085.51704	0.00865
2084.23127	0.00893
2082.94550	0.00885
2081.65973	0.00843
2080.37396	0.00801
2079.08819	0.00791
2077.80242	0.00816
2076.51666	0.00856
2075.23089	0.00889
2073.94512	0.00907
2072.65935	0.00902
2071.37358	0.00874
2070.08781	0.00834
2068.80204	0.00812
2067.51627	0.00827
2066.23050	0.00867
2064.94474	0.00901
2063.65897	0.00906
2062.37320	0.00881
2061.08743	0.00834
2059.80166	0.00768
2058.51589	0.00681
2057.23012	0.00575
2055.94435	0.00467
2054.65859	0.00382
2053.37282	0.00337
2052.08705	0.00328
2050.80128	0.00334
2049.51551	0.00322
2048.22974	0.00277
2046.94397	0.00218
2045.65820	0.00189
2044.37243	0.00215
2043.08667	0.00264
2041.80090	0.00265
2040.51513	0.00187
2039.22936	0.00085
2037.94359	0.00053
2036.65782	0.00134
2035.37205	0.00282
2034.08628	0.00412
2032.80052	0.00465
2031.51475	0.00442
2030.22898	0.00386
2028.94321	0.00349
2027.65744	0.00354
2026.37167	0.00385
2025.08590	0.00409
2023.80013	0.00422
2022.51436	0.00444
2021.22860	0.00480
2019.94283	0.00506
2018.65706	0.00502
2017.37129	0.00484
2016.08552	0.00480
2014.79975	0.00498
2013.51398	0.00527
2012.22821	0.00568
2010.94245	0.00612
2009.65668	0.00624
2008.37091	0.00562
2007.08514	0.00443
2005.79937	0.00346
2004.51360	0.00337
2003.22783	0.00405
2001.94206	0.00487
2000.65629	0.00534
1999.37053	0.00542
1998.08476	0.00530
1996.79899	0.00517
1995.51322	0.00524
1994.22745	0.00572
1992.94168	0.00658
1991.65591	0.00747
1990.37014	0.00802
1989.08438	0.00814
1987.79861	0.00794
1986.51284	0.00756
1985.22707	0.00712
1983.94130	0.00686
1982.65553	0.00698
1981.36976	0.00751
1980.08399	0.00823
1978.79822	0.00885
1977.51246	0.00928
1976.22669	0.00964
1974.94092	0.01013
1973.65515	0.01077
1972.36938	0.01126
1971.08361	0.01135
1969.79784	0.01106
1968.51207	0.01066
1967.22631	0.01036
1965.94054	0.01015
1964.65477	0.00990
1963.36900	0.00943
1962.08323	0.00861
1960.79746	0.00760
1959.51169	0.00684
1958.22592	0.00678
1956.94015	0.00748
1955.65439	0.00849
1954.36862	0.00919
1953.08285	0.00919
1951.79708	0.00865
1950.51131	0.00809
1949.22554	0.00798
1947.93977	0.00835
1946.65400	0.00889
1945.36823	0.00917
1944.08247	0.00913
1942.79670	0.00901
1941.51093	0.00916
1940.22516	0.00968
1938.93939	0.01045
1937.65362	0.01125
1936.36785	0.01192
1935.08208	0.01222
1933.79632	0.01205
1932.51055	0.01152
1931.22478	0.01097
1929.93901	0.01072
1928.65324	0.01083
1927.36747	0.01112
1926.08170	0.01131
1924.79593	0.01131
1923.51016	0.01122
1922.22440	0.01121
1920.93863	0.01123
1919.65286	0.01115
1918.36709	0.01100
1917.08132	0.01102
1915.79555	0.01136
1914.50978	0.01191
1913.22401	0.01238
1911.93825	0.01258
1910.65248	0.01250
1909.36671	0.01230
1908.08094	0.01208
1906.79517	0.01188
1905.50940	0.01171
1904.22363	0.01163
1902.93786	0.01162
1901.65209	0.01162
1900.36633	0.01161
1899.08056	0.01164
1897.79479	0.01176
1896.50902	0.01195
1895.22325	0.01219
1893.93748	0.01244
1892.65171	0.01261
1891.36594	0.01259
1890.08018	0.01237
1888.79441	0.01207
1887.50864	0.01178
1886.22287	0.01151
1884.93710	0.01122
1883.65133	0.01095
1882.36556	0.01079
1881.07979	0.01078
1879.79402	0.01089
1878.50826	0.01097
1877.22249	0.01093
1875.93672	0.01083
1874.65095	0.01088
1873.36518	0.01116
1872.07941	0.01158
1870.79364	0.01195
1869.50787	0.01214
1868.22211	0.01216
1866.93634	0.01213
1865.65057	0.01216
1864.36480	0.01229
1863.07903	0.01244
1861.79326	0.01249
1860.50749	0.01238
1859.22172	0.01218
1857.93595	0.01197
1856.65019	0.01179
1855.36442	0.01170
1854.07865	0.01173
1852.79288	0.01188
1851.50711	0.01206
1850.22134	0.01220
1848.93557	0.01226
1847.64980	0.01226
1846.36404	0.01225
1845.07827	0.01234
1843.79250	0.01257
1842.50673	0.01285
1841.22096	0.01301
1839.93519	0.01296
1838.64942	0.01271
1837.36365	0.01241
1836.07788	0.01218
1834.79212	0.01207
1833.50635	0.01206
1832.22058	0.01207
1830.93481	0.01206
1829.64904	0.01205
1828.36327	0.01206
1827.07750	0.01211
1825.79173	0.01219
1824.50597	0.01232
1823.22020	0.01248
1821.93443	0.01265
1820.64866	0.01283
1819.36289	0.01299
1818.07712	0.01307
1816.79135	0.01303
1815.50558	0.01290
1814.21981	0.01276
1812.93405	0.01263
1811.64828	0.01253
1810.36251	0.01245
1809.07674	0.01240
1807.79097	0.01240
1806.50520	0.01245
1805.21943	0.01255
1803.93366	0.01270
1802.64790	0.01283
1801.36213	0.01288
1800.07636	0.01277
1798.79059	0.01253
1797.50482	0.01228
1796.21905	0.01215
1794.93328	0.01221
1793.64751	0.01242
1792.36174	0.01267
1791.07598	0.01286
1789.79021	0.01291
1788.50444	0.01285
1787.21867	0.01277
1785.93290	0.01274
1784.64713	0.01278
1783.36136	0.01287
1782.07559	0.01294
1780.78983	0.01295
1779.50406	0.01293
1778.21829	0.01295
1776.93252	0.01306
1775.64675	0.01325
1774.36098	0.01340
1773.07521	0.01346
1771.78944	0.01348
1770.50367	0.01349
1769.21791	0.01349
1767.93214	0.01344
1766.64637	0.01337
1765.36060	0.01327
1764.07483	0.01318
1762.78906	0.01315
1761.50329	0.01319
1760.21752	0.01322
1758.93176	0.01313
1757.64599	0.01295
1756.36022	0.01277
1755.07445	0.01266
1753.78868	0.01256
1752.50291	0.01244
1751.21714	0.01231
1749.93137	0.01216
1748.64560	0.01194
1747.35984	0.01161
1746.07407	0.01121
1744.78830	0.01085
1743.50253	0.01060
1742.21676	0.01048
1740.93099	0.01048
1739.64522	0.01057
1738.35945	0.01075
1737.07369	0.01101
1735.78792	0.01129
1734.50215	0.01164
1733.21638	0.01205
1731.93061	0.01241
1730.64484	0.01257
1729.35907	0.01258
1728.07330	0.01259
1726.78753	0.01270
1725.50177	0.01298
1724.21600	0.01339
1722.93023	0.01387
1721.64446	0.01432
1720.35869	0.01468
1719.07292	0.01496
1717.78715	0.01523
1716.50138	0.01557
1715.21561	0.01592
1713.92985	0.01623
1712.64408	0.01649
1711.35831	0.01674
1710.07254	0.01703
1708.78677	0.01737
1707.50100	0.01773
1706.21523	0.01806
1704.92946	0.01836
1703.64370	0.01867
1702.35793	0.01897
1701.07216	0.01933
1699.78639	0.01979
1698.50062	0.02026
1697.21485	0.02059
1695.92908	0.02084
1694.64331	0.02111
1693.35754	0.02137
1692.07178	0.02155
1690.78601	0.02171
1689.50024	0.02195
1688.21447	0.02230
1686.92870	0.02268
1685.64293	0.02310
1684.35716	0.02360
1683.07139	0.02411
1681.78563	0.02447
1680.49986	0.02466
1679.21409	0.02485
1677.92832	0.02513
1676.64255	0.02548
1675.35678	0.02581
1674.07101	0.02609
1672.78524	0.02633
1671.49947	0.02654
1670.21371	0.02678
1668.92794	0.02708
1667.64217	0.02739
1666.35640	0.02768
1665.07063	0.02794
1663.78486	0.02819
1662.49909	0.02842
1661.21332	0.02862
1659.92756	0.02883
1658.64179	0.02908
1657.35602	0.02944
1656.07025	0.02986
1654.78448	0.03023
1653.49871	0.03053
1652.21294	0.03082
1650.92717	0.03102
1649.64140	0.03104
1648.35564	0.03098
1647.06987	0.03102
1645.78410	0.03119
1644.49833	0.03139
1643.21256	0.03154
1641.92679	0.03162
1640.64102	0.03171
1639.35525	0.03183
1638.06949	0.03198
1636.78372	0.03212
1635.49795	0.03227
1634.21218	0.03241
1632.92641	0.03251
1631.64064	0.03257
1630.35487	0.03265
1629.06910	0.03277
1627.78333	0.03291
1626.49757	0.03304
1625.21180	0.03316
1623.92603	0.03332
1622.64026	0.03353
1621.35449	0.03377
1620.06872	0.03400
1618.78295	0.03417
1617.49718	0.03433
1616.21142	0.03453
1614.92565	0.03470
1613.63988	0.03478
1612.35411	0.03478
1611.06834	0.03483
1609.78257	0.03500
1608.49680	0.03523
1607.21103	0.03548
1605.92526	0.03568
1604.63950	0.03582
1603.35373	0.03592
1602.06796	0.03603
1600.78219	0.03619
1599.49642	0.03640
1598.21065	0.03664
1596.92488	0.03689
1595.63911	0.03712
1594.35335	0.03736
1593.06758	0.03762
1591.78181	0.03787
1590.49604	0.03807
1589.21027	0.03821
1587.92450	0.03830
1586.63873	0.03838
1585.35296	0.03849
1584.06719	0.03864
1582.78143	0.03884
1581.49566	0.03909
1580.20989	0.03940
1578.92412	0.03970
1577.63835	0.03995
1576.35258	0.04018
1575.06681	0.04043
1573.78104	0.04067
1572.49528	0.04082
1571.20951	0.04092
1569.92374	0.04102
1568.63797	0.04112
1567.35220	0.04118
1566.06643	0.04123
1564.78066	0.04132
1563.49489	0.04153
1562.20912	0.04180
1560.92336	0.04206
1559.63759	0.04231
1558.35182	0.04256
1557.06605	0.04272
1555.78028	0.04270
1554.49451	0.04259
1553.20874	0.04254
1551.92297	0.04257
1550.63721	0.04262
1549.35144	0.04269
1548.06567	0.04277
1546.77990	0.04284
1545.49413	0.04286
1544.20836	0.04283
1542.92259	0.04274
1541.63682	0.04261
1540.35105	0.04249
1539.06529	0.04239
1537.77952	0.04232
1536.49375	0.04224
1535.20798	0.04218
1533.92221	0.04223
1532.63644	0.04240
1531.35067	0.04261
1530.06490	0.04278
1528.77914	0.04299
1527.49337	0.04330
1526.20760	0.04378
1524.92183	0.04441
1523.63606	0.04513
1522.35029	0.04587
1521.06452	0.04665
1519.77875	0.04745
1518.49298	0.04824
1517.20722	0.04904
1515.92145	0.04989
1514.63568	0.05081
1513.34991	0.05177
1512.06414	0.05281
1510.77837	0.05398
1509.49260	0.05526
1508.20683	0.05661
1506.92107	0.05799
1505.63530	0.05933
1504.34953	0.06052
1503.06376	0.06144
1501.77799	0.06219
1500.49222	0.06292
1499.20645	0.06372
1497.92068	0.06453
1496.63491	0.06533
1495.34915	0.06609
1494.06338	0.06684
1492.77761	0.06756
1491.49184	0.06828
1490.20607	0.06903
1488.92030	0.06980
1487.63453	0.07058
1486.34876	0.07138
1485.06299	0.07223
1483.77723	0.07314
1482.49146	0.07412
1481.20569	0.07514
1479.91992	0.07618
1478.63415	0.07720
1477.34838	0.07818
1476.06261	0.07910
1474.77684	0.07991
1473.49108	0.08061
1472.20531	0.08120
1470.91954	0.08168
1469.63377	0.08207
1468.34800	0.08237
1467.06223	0.08265
1465.77646	0.08294
1464.49069	0.08326
1463.20492	0.08363
1461.91916	0.08406
1460.63339	0.08460
1459.34762	0.08523
1458.06185	0.08587
1456.77608	0.08647
1455.49031	0.08697
1454.20454	0.08735
1452.91877	0.08761
1451.63301	0.08782
1450.34724	0.08797
1449.06147	0.08803
1447.77570	0.08799
1446.48993	0.08790
1445.20416	0.08777
1443.91839	0.08760
1442.63262	0.08742
1441.34685	0.08726
1440.06109	0.08717
1438.77532	0.08720
1437.48955	0.08734
1436.20378	0.08760
1434.91801	0.08798
1433.63224	0.08849
1432.34647	0.08917
1431.06070	0.09009
1429.77494	0.09124
1428.48917	0.09255
1427.20340	0.09394
1425.91763	0.09532
1424.63186	0.09668
1423.34609	0.09800
1422.06032	0.09928
1420.77455	0.10048
1419.48878	0.10159
1418.20302	0.10255
1416.91725	0.10328
1415.63148	0.10376
1414.34571	0.10405
1413.05994	0.10416
1411.77417	0.10404
1410.48840	0.10365
1409.20263	0.10299
1407.91687	0.10214
1406.63110	0.10112
1405.34533	0.09994
1404.05956	0.09859
1402.77379	0.09706
1401.48802	0.09538
1400.20225	0.09357
1398.91648	0.09163
1397.63071	0.08960
1396.34495	0.08746
1395.05918	0.08525
1393.77341	0.08301
1392.48764	0.08079
1391.20187	0.07862
1389.91610	0.07651
1388.63033	0.07446
1387.34456	0.07246
1386.05880	0.07049
1384.77303	0.06850
1383.48726	0.06648
1382.20149	0.06445
1380.91572	0.06245
1379.62995	0.06049
1378.34418	0.05856
1377.05841	0.05663
1375.77264	0.05469
1374.48688	0.05278
1373.20111	0.05095
1371.91534	0.04920
1370.62957	0.04752
1369.34380	0.04591
1368.05803	0.04440
1366.77226	0.04301
1365.48649	0.04172
1364.20073	0.04048
1362.91496	0.03924
1361.62919	0.03802
1360.34342	0.03685
1359.05765	0.03578
1357.77188	0.03482
1356.48611	0.03394
1355.20034	0.03313
1353.91457	0.03235
1352.62881	0.03161
1351.34304	0.03095
1350.05727	0.03036
1348.77150	0.02981
1347.48573	0.02924
1346.19996	0.02866
1344.91419	0.02809
1343.62842	0.02756
1342.34266	0.02709
1341.05689	0.02665
1339.77112	0.02622
1338.48535	0.02581
1337.19958	0.02544
1335.91381	0.02511
1334.62804	0.02484
1333.34227	0.02458
1332.05650	0.02433
1330.77074	0.02406
1329.48497	0.02376
1328.19920	0.02344
1326.91343	0.02314
1325.62766	0.02289
1324.34189	0.02270
1323.05612	0.02253
1321.77035	0.02238
1320.48459	0.02222
1319.19882	0.02205
1317.91305	0.02185
1316.62728	0.02164
1315.34151	0.02145
1314.05574	0.02128
1312.76997	0.02111
1311.48420	0.02091
1310.19843	0.02070
1308.91267	0.02050
1307.62690	0.02035
1306.34113	0.02025
1305.05536	0.02016
1303.76959	0.02002
1302.48382	0.01982
1301.19805	0.01960
1299.91228	0.01940
1298.62652	0.01927
1297.34075	0.01919
1296.05498	0.01912
1294.76921	0.01904
1293.48344	0.01896
1292.19767	0.01887
1290.91190	0.01876
1289.62613	0.01864
1288.34036	0.01851
1287.05460	0.01840
1285.76883	0.01832
1284.48306	0.01827
1283.19729	0.01823
1281.91152	0.01815
1280.62575	0.01799
1279.33998	0.01777
1278.05421	0.01754
1276.76845	0.01738
1275.48268	0.01728
1274.19691	0.01722
1272.91114	0.01718
1271.62537	0.01716
1270.33960	0.01713
1269.05383	0.01707
1267.76806	0.01696
1266.48229	0.01682
1265.19653	0.01668
1263.91076	0.01654
1262.62499	0.01639
1261.33922	0.01625
1260.05345	0.01614
1258.76768	0.01608
1257.48191	0.01606
1256.19614	0.01606
1254.91037	0.01603
1253.62461	0.01596
1252.33884	0.01588
1251.05307	0.01581
1249.76730	0.01576
1248.48153	0.01574
1247.19576	0.01574
1245.90999	0.01573
1244.62422	0.01569
1243.33846	0.01565
1242.05269	0.01560
1240.76692	0.01556
1239.48115	0.01552
1238.19538	0.01550
1236.90961	0.01547
1235.62384	0.01544
1234.33807	0.01537
1233.05230	0.01530
1231.76654	0.01523
1230.48077	0.01520
1229.19500	0.01519
1227.90923	0.01517
1226.62346	0.01510
1225.33769	0.01501
1224.05192	0.01494
1222.76615	0.01492
1221.48039	0.01494
1220.19462	0.01499
1218.90885	0.01502
1217.62308	0.01502
1216.33731	0.01498
1215.05154	0.01492
1213.76577	0.01488
1212.48000	0.01486
1211.19423	0.01486
1209.90847	0.01486
1208.62270	0.01485
1207.33693	0.01483
1206.05116	0.01482
1204.76539	0.01483
1203.47962	0.01486
1202.19385	0.01490
1200.90808	0.01486
1199.62232	0.01466
1198.33655	0.01465
1197.05078	0.01469
1195.76501	0.01472
1194.47924	0.01475
1193.19347	0.01481
1191.90770	0.01492
1190.62193	0.01504
1189.33616	0.01506
1188.05040	0.01496
1186.76463	0.01480
1185.47886	0.01469
1184.19309	0.01468
1182.90732	0.01472
1181.62155	0.01474
1180.33578	0.01470
1179.05001	0.01467
1177.76425	0.01471
1176.47848	0.01486
1175.19271	0.01506
1173.90694	0.01523
1172.62117	0.01535
1171.33540	0.01542
1170.04963	0.01555
1168.76386	0.01578
1167.47809	0.01613
1166.19233	0.01652
1164.90656	0.01684
1163.62079	0.01707
1162.33502	0.01725
1161.04925	0.01745
1159.76348	0.01771
1158.47771	0.01803
1157.19194	0.01842
1155.90618	0.01887
1154.62041	0.01936
1153.33464	0.01988
1152.04887	0.02039
1150.76310	0.02089
1149.47733	0.02141
1148.19156	0.02200
1146.90579	0.02269
1145.62002	0.02350
1144.33426	0.02442
1143.04849	0.02543
1141.76272	0.02650
1140.47695	0.02762
1139.19118	0.02883
1137.90541	0.03016
1136.61964	0.03162
1135.33387	0.03321
1134.04811	0.03496
1132.76234	0.03688
1131.47657	0.03896
1130.19080	0.04122
1128.90503	0.04369
1127.61926	0.04642
1126.33349	0.04937
1125.04772	0.05252
1123.76195	0.05582
1122.47619	0.05922
1121.19042	0.06272
1119.90465	0.06634
1118.61888	0.07010
1117.33311	0.07397
1116.04734	0.07786
1114.76157	0.08167
1113.47580	0.08541
1112.19004	0.08912
1110.90427	0.09283
1109.61850	0.09650
1108.33273	0.10006
1107.04696	0.10352
1105.76119	0.10691
1104.47542	0.11030
1103.18965	0.11368
1101.90388	0.11703
1100.61812	0.12032
1099.33235	0.12351
1098.04658	0.12655
1096.76081	0.12942
1095.47504	0.13212
1094.18927	0.13470
1092.90350	0.13720
1091.61773	0.13966
1090.33197	0.14205
1089.04620	0.14435
1087.76043	0.14658
1086.47466	0.14881
1085.18889	0.15112
1083.90312	0.15351
1082.61735	0.15599
1081.33158	0.15856
1080.04581	0.16122
1078.76005	0.16402
1077.47428	0.16704
1076.18851	0.17033
1074.90274	0.17386
1073.61697	0.17752
1072.33120	0.18124
1071.04543	0.18498
1069.75966	0.18878
1068.47390	0.19267
1067.18813	0.19662
1065.90236	0.20061
1064.61659	0.20465
1063.33082	0.20875
1062.04505	0.21288
1060.75928	0.21698
1059.47351	0.22105
1058.18774	0.22512
1056.90198	0.22919
1055.61621	0.23324
1054.33044	0.23726
1053.04467	0.24127
1051.75890	0.24533
1050.47313	0.24948
1049.18736	0.25376
1047.90159	0.25816
1046.61583	0.26264
1045.33006	0.26720
1044.04429	0.27184
1042.75852	0.27658
1041.47275	0.28138
1040.18698	0.28620
1038.90121	0.29104
1037.61544	0.29589
1036.32967	0.30073
1035.04391	0.30547
1033.75814	0.31000
1032.47237	0.31425
1031.18660	0.31815
1029.90083	0.32164
1028.61506	0.32466
1027.32929	0.32719
1026.04352	0.32926
1024.75775	0.33084
1023.47199	0.33191
1022.18622	0.33243
1020.90045	0.33233
1019.61468	0.33154
1018.32891	0.32999
1017.04314	0.32763
1015.75737	0.32451
1014.47160	0.32072
1013.18584	0.31632
1011.90007	0.31128
1010.61430	0.30553
1009.32853	0.29899
1008.04276	0.29168
1006.75699	0.28370
1005.47122	0.27519
1004.18545	0.26623
1002.89968	0.25690
1001.61392	0.24725
1000.32815	0.23738
999.04238	0.22738
997.75661	0.21732
996.47084	0.20727
995.18507	0.19733
993.89930	0.18759
992.61353	0.17811
991.32777	0.16897
990.04200	0.16027
988.75623	0.15209
987.47046	0.14441
986.18469	0.13716
984.89892	0.13028
983.61315	0.12380
982.32738	0.11778
981.04161	0.11223
979.75585	0.10720
978.47008	0.10269
977.18431	0.09872
975.89854	0.09529
974.61277	0.09239
973.32700	0.09006
972.04123	0.08833
970.75546	0.08723
969.46970	0.08681
968.18393	0.08704
966.89816	0.08782
965.61239	0.08894
964.32662	0.09016
963.04085	0.09120
961.75508	0.09185
960.46931	0.09191
959.18354	0.09121
957.89778	0.08973
956.61201	0.08758
955.32624	0.08501
954.04047	0.08225
952.75470	0.07947
951.46893	0.07674
950.18316	0.07409
948.89739	0.07152
947.61163	0.06904
946.32586	0.06664
945.04009	0.06435
943.75432	0.06217
942.46855	0.06012
941.18278	0.05821
939.89701	0.05644
938.61124	0.05479
937.32547	0.05328
936.03971	0.05189
934.75394	0.05062
933.46817	0.04944
932.18240	0.04831
930.89663	0.04726
929.61086	0.04628
928.32509	0.04538
927.03932	0.04455
925.75356	0.04380
924.46779	0.04312
923.18202	0.04250
921.89625	0.04192
920.61048	0.04140
919.32471	0.04096
918.03894	0.04059
916.75317	0.04026
915.46740	0.03989
914.18164	0.03947
912.89587	0.03901
911.61010	0.03862
910.32433	0.03834
909.03856	0.03815
907.75279	0.03798
906.46702	0.03777
905.18125	0.03751
903.89549	0.03724
902.60972	0.03698
901.32395	0.03673
900.03818	0.03649
898.75241	0.03627
897.46664	0.03607
896.18087	0.03589
894.89510	0.03575
893.60933	0.03569
892.32357	0.03575
891.03780	0.03595
889.75203	0.03630
888.46626	0.03687
887.18049	0.03777
885.89472	0.03914
884.60895	0.04109
883.32318	0.04364
882.03742	0.04663
880.75165	0.04960
879.46588	0.05208
878.18011	0.05393
876.89434	0.05546
875.60857	0.05707
874.32280	0.05876
873.03703	0.06011
871.75126	0.06067
870.46550	0.06024
869.17973	0.05891
867.89396	0.05689
866.60819	0.05444
865.32242	0.05187
864.03665	0.04941
862.75088	0.04715
861.46511	0.04509
860.17935	0.04326
858.89358	0.04171
857.60781	0.04043
856.32204	0.03937
855.03627	0.03849
853.75050	0.03773
852.46473	0.03708
851.17896	0.03656
849.89319	0.03618
848.60743	0.03587
847.32166	0.03555
846.03589	0.03521
844.75012	0.03490
843.46435	0.03464
842.17858	0.03442
840.89281	0.03418
839.60704	0.03394
838.32128	0.03371
837.03551	0.03349
835.74974	0.03328
834.46397	0.03306
833.17820	0.03284
831.89243	0.03260
830.60666	0.03236
829.32089	0.03220
828.03512	0.03214
826.74936	0.03214
825.46359	0.03213
824.17782	0.03205
822.89205	0.03191
821.60628	0.03172
820.32051	0.03154
819.03474	0.03147
817.74897	0.03155
816.46321	0.03171
815.17744	0.03184
813.89167	0.03184
812.60590	0.03174
811.32013	0.03161
810.03436	0.03152
808.74859	0.03153
807.46282	0.03157
806.17705	0.03156
804.89129	0.03145
803.60552	0.03129
802.31975	0.03117
801.03398	0.03110
799.74821	0.03102
798.46244	0.03092
797.17667	0.03085
795.89090	0.03086
794.60513	0.03097
793.31937	0.03109
792.03360	0.03114
790.74783	0.03111
789.46206	0.03103
788.17629	0.03097
786.89052	0.03096
785.60475	0.03097
784.31898	0.03094
783.03322	0.03086
781.74745	0.03076
780.46168	0.03068
779.17591	0.03066
777.89014	0.03069
776.60437	0.03077
775.31860	0.03088
774.03283	0.03096
772.74706	0.03098
771.46130	0.03101
770.17553	0.03109
768.88976	0.03120
767.60399	0.03125
766.31822	0.03120
765.03245	0.03107
763.74668	0.03094
762.46091	0.03088
761.17515	0.03092
759.88938	0.03109
758.60361	0.03133
757.31784	0.03155
756.03207	0.03165
754.74630	0.03163
753.46053	0.03153
752.17476	0.03148
750.88899	0.03153
749.60323	0.03163
748.31746	0.03169
747.03169	0.03161
745.74592	0.03141
744.46015	0.03118
743.17438	0.03100
741.88861	0.03090
740.60284	0.03085
739.31708	0.03082
738.03131	0.03079
736.74554	0.03084
735.45977	0.03103
734.17400	0.03135
732.88823	0.03166
731.60246	0.03182
730.31669	0.03180
729.03092	0.03169
727.74516	0.03158
726.45939	0.03156
725.17362	0.03164
723.88785	0.03168
722.60208	0.03187
721.31631	0.03196
720.03054	0.03191
718.74477	0.03184
717.45901	0.03180
716.17324	0.03184
714.88747	0.03191
713.60170	0.03195
712.31593	0.03192
711.03016	0.03185
709.74439	0.03178
708.45862	0.03173
707.17285	0.03168
705.88709	0.03160
704.60132	0.03151
703.31555	0.03145
702.02978	0.03145
700.74401	0.03149
699.45824	0.03153
698.17247	0.03155
696.88670	0.03157
695.60094	0.03162
694.31517	0.03170
693.02940	0.03176
691.74363	0.03179
690.45786	0.03182
689.17209	0.03187
687.88632	0.03195
686.60055	0.03202
685.31478	0.03200
684.02902	0.03191
682.74325	0.03176
681.45748	0.03161
680.17171	0.03149
678.88594	0.03138
677.60017	0.03129
676.31440	0.03121
675.02863	0.03118
673.74287	0.03122
672.45710	0.03139
671.17133	0.03185
669.88556	0.03226
668.59979	0.03165
667.31402	0.03162
666.02825	0.03262
664.74248	0.03226
663.45671	0.03178
662.17095	0.03157
660.88518	0.03143
659.59941	0.03128
658.31364	0.03114
657.02787	0.03105
655.74210	0.03103
654.45633	0.03108
653.17056	0.03113
651.88480	0.03117
650.59903	0.03118
649.31326	0.03117
648.02749	0.03115
646.74172	0.03114
645.45595	0.03119
644.17018	0.03136
642.88441	0.03161
641.59864	0.03190
640.31288	0.03221
639.02711	0.03255
637.74134	0.03292
636.45557	0.03332
635.16980	0.03371
633.88403	0.03408
632.59826	0.03443
631.31249	0.03509
630.02673	0.03659
628.74096	0.03786
627.45519	0.03706
626.16942	0.03812
624.88365	0.04063
623.59788	0.04355
622.31211	0.04678
621.02634	0.05025
619.74057	0.05374
618.45481	0.05714
617.16904	0.06038
615.88327	0.06329
614.59750	0.06586
613.31173	0.06867
612.02596	0.07303
610.74019	0.08011
609.45442	0.08957
608.16866	0.09922
606.88289	0.10695
605.59712	0.11231
604.31135	0.11581
603.02558	0.11759
601.73981	0.11734
600.45404	0.11511
599.16827	0.11162
597.88250	0.10768
596.59674	0.10379
595.31097	0.10017
594.02520	0.09695
592.73943	0.09428
591.45366	0.09237
590.16789	0.09133
588.88212	0.09120
587.59635	0.09189
586.31059	0.09328
585.02482	0.09523
583.73905	0.09764
582.45328	0.10041
581.16751	0.10345
579.88174	0.10670
578.59597	0.11005
577.31020	0.11339
576.02443	0.11666
574.73867	0.11983
573.45290	0.12292
572.16713	0.12607
570.88136	0.12949
569.59559	0.13335
568.30982	0.13773
567.02405	0.14248
565.73828	0.14719
564.45251	0.15121
563.16675	0.15377
561.88098	0.15429
560.59521	0.15253
559.30944	0.14863
558.02367	0.14294
556.73790	0.13587
555.45213	0.12786
554.16636	0.11941
552.88060	0.11104
551.59483	0.10324
550.30906	0.09630
549.02329	0.09026
547.73752	0.08497
546.45175	0.08025
545.16598	0.07599
543.88021	0.07218
542.59444	0.06877
541.30868	0.06572
540.02291	0.06302
538.73714	0.06069
537.45137	0.05868
536.16560	0.05688
534.87983	0.05512
533.59406	0.05333
532.30829	0.05156
531.02253	0.04992
529.73676	0.04845
528.45099	0.04712
527.16522	0.04584
525.87945	0.04457
524.59368	0.04341
523.30791	0.04242
522.02214	0.04156
520.73637	0.04072
519.45061	0.03986
518.16484	0.03904
516.87907	0.03829
515.59330	0.03760
514.30753	0.03691
513.02176	0.03618
511.73599	0.03544
510.45022	0.03471
509.16446	0.03405
507.87869	0.03350
506.59292	0.03308
505.30715	0.03275
504.02138	0.03243
502.73561	0.03206
501.44984	0.03166
500.16407	0.03126
498.87830	0.03089
497.59254	0.03060
496.30677	0.03039
495.02100	0.03023
493.73523	0.03004
492.44946	0.02976
491.16369	0.02944
489.87792	0.02919
488.59215	0.02908
487.30639	0.02907
486.02062	0.02910
484.73485	0.02910
483.44908	0.02913
482.16331	0.02924
480.87754	0.02947
479.59177	0.02980
478.30600	0.03016
477.02023	0.03050
475.73447	0.03079
474.44870	0.03100
473.16293	0.03115
471.87716	0.03124
470.59139	0.03127
469.30562	0.03121
468.01985	0.03106
466.73408	0.03084
465.44832	0.03056
464.16255	0.03026
462.87678	0.03002
461.59101	0.02983
460.30524	0.02966
459.01947	0.02943
457.73370	0.02911
456.44793	0.02875
455.16216	0.02837
453.87640	0.02798
452.59063	0.02761
451.30486	0.02729
450.01909	0.02707
448.73332	0.02694
447.44755	0.02686
446.16178	0.02679
444.87601	0.02673
443.59025	0.02668
442.30448	0.02661
441.01871	0.02651
439.73294	0.02637
438.44717	0.02618
437.16140	0.02599
435.87563	0.02583
434.58986	0.02574
433.30409	0.02573
432.01833	0.02574
430.73256	0.02573
429.44679	0.02566
428.16102	0.02554
426.87525	0.02542
425.58948	0.02535
424.30371	0.02533
423.01794	0.02534
421.73218	0.02532
420.44641	0.02526
419.16064	0.02520
417.87487	0.02515
416.58910	0.02510
415.30333	0.02501
414.01756	0.02491
412.73179	0.02482
411.44602	0.02479
410.16026	0.02484
408.87449	0.02497
407.58872	0.02516
406.30295	0.02539
405.01718	0.02562
403.73141	0.02582
402.44564	0.02596
401.15987	0.02607
399.87411	0.02619
