3997.45528 0.04297
3996.16951 0.04432
3994.88374 0.04510
3993.59798 0.04497
3992.31221 0.04422
3991.02644 0.04346
3989.74067 0.04302
3988.45490 0.04282
3987.16913 0.04274
3985.88336 0.04273
3984.59759 0.04265
3983.31183 0.04224
3982.02606 0.04152
3980.74029 0.04086
3979.45452 0.04063
3978.16875 0.04080
3976.88298 0.04107
3975.59721 0.04120
3974.31144 0.04124
3973.02567 0.04127
3971.73991 0.04132
3970.45414 0.04143
3969.16837 0.04168
3967.88260 0.04212
3966.59683 0.04269
3965.31106 0.04333
3964.02529 0.04389
3962.73952 0.04411
3961.45376 0.04390
3960.16799 0.04358
3958.88222 0.04359
3957.59645 0.04399
3956.31068 0.04436
3955.02491 0.04427
3953.73914 0.04380
3952.45337 0.04341
3951.16760 0.04343
3949.88184 0.04369
3948.59607 0.04371
3947.31030 0.04324
3946.02453 0.04250
3944.73876 0.04200
3943.45299 0.04220
3942.16722 0.04323
3940.88145 0.04466
3939.59569 0.04574
3938.30992 0.04588
3937.02415 0.04510
3935.73838 0.04388
3934.45261 0.04276
3933.16684 0.04204
3931.88107 0.04184
3930.59530 0.04202
3929.30953 0.04228
3928.02377 0.04238
3926.73800 0.04236
3925.45223 0.04250
3924.16646 0.04292
3922.88069 0.04326
3921.59492 0.04315
3920.30915 0.04257
3919.02338 0.04181
3917.73762 0.04111
3916.45185 0.04059
3915.16608 0.04038
3913.88031 0.04050
3912.59454 0.04085
3911.30877 0.04123
3910.02300 0.04159
3908.73723 0.04194
3907.45146 0.04212
3906.16570 0.04194
3904.87993 0.04153
3903.59416 0.04126
3902.30839 0.04135
3901.02262 0.04168
3899.73685 0.04200
3898.45108 0.04220
3897.16531 0.04226
3895.87955 0.04235
3894.59378 0.04268
3893.30801 0.04328
3892.02224 0.04396
3890.73647 0.04441
3889.45070 0.04425
3888.16493 0.04330
3886.87916 0.04188
3885.59339 0.04079
3884.30763 0.04051
3883.02186 0.04085
3881.73609 0.04136
3880.45032 0.04178
3879.16455 0.04201
3877.87878 0.04181
3876.59301 0.04107
3875.30724 0.04008
3874.02148 0.03945
3872.73571 0.03959
3871.44994 0.04038
3870.16417 0.04134
3868.87840 0.04187
3867.59263 0.04154
3866.30686 0.04062
3865.02109 0.03990
3863.73532 0.03988
3862.44956 0.04031
3861.16379 0.04075
3859.87802 0.04105
3858.59225 0.04133
3857.30648 0.04176
3856.02071 0.04234
3854.73494 0.04286
3853.44917 0.04307
3852.16341 0.04286
3850.87764 0.04242
3849.59187 0.04223
3848.30610 0.04254
3847.02033 0.04314
3845.73456 0.04359
3844.44879 0.04367
3843.16302 0.04341
3841.87725 0.04286
3840.59149 0.04203
3839.30572 0.04101
3838.01995 0.04013
3836.73418 0.03965
3835.44841 0.03948
3834.16264 0.03945
3832.87687 0.03948
3831.59110 0.03949
3830.30534 0.03936
3829.01957 0.03912
3827.73380 0.03900
3826.44803 0.03914
3825.16226 0.03931
3823.87649 0.03910
3822.59072 0.03849
3821.30495 0.03802
3820.01918 0.03821
3818.73342 0.03898
3817.44765 0.03983
3816.16188 0.04044
3814.87611 0.04069
3813.59034 0.04052
3812.30457 0.04012
3811.01880 0.04001
3809.73303 0.04047
3808.44726 0.04126
3807.16150 0.04184
3805.87573 0.04176
3804.58996 0.04100
3803.30419 0.04007
3802.01842 0.03959
3800.73265 0.03963
3799.44688 0.03976
3798.16111 0.03982
3796.87535 0.04010
3795.58958 0.04059
3794.30381 0.04068
3793.01804 0.03993
3791.73227 0.03863
3790.44650 0.03731
3789.16073 0.03626
3787.87496 0.03556
3786.58919 0.03546
3785.30343 0.03618
3784.01766 0.03751
3782.73189 0.03867
3781.44612 0.03901
3780.16035 0.03862
3778.87458 0.03805
3777.58881 0.03761
3776.30304 0.03719
3775.01728 0.03663
3773.73151 0.03602
3772.44574 0.03568
3771.15997 0.03605
3769.87420 0.03737
3768.58843 0.03931
3767.30266 0.04100
3766.01689 0.04181
3764.73112 0.04174
3763.44536 0.04116
3762.15959 0.04035
3760.87382 0.03953
3759.58805 0.03883
3758.30228 0.03838
3757.01651 0.03829
3755.73074 0.03845
3754.44497 0.03853
3753.15921 0.03838
3751.87344 0.03820
3750.58767 0.03813
3749.30190 0.03813
3748.01613 0.03806
3746.73036 0.03770
3745.44459 0.03697
3744.15882 0.03620
3742.87305 0.03569
3741.58729 0.03568
3740.30152 0.03642
3739.01575 0.03770
3737.72998 0.03880
3736.44421 0.03933
3735.15844 0.03957
3733.87267 0.03961
3732.58690 0.03918
3731.30114 0.03811
3730.01537 0.03660
3728.72960 0.03508
3727.44383 0.03396
3726.15806 0.03352
3724.87229 0.03382
3723.58652 0.03466
3722.30075 0.03570
3721.01498 0.03658
3719.72922 0.03719
3718.44345 0.03762
3717.15768 0.03781
3715.87191 0.03754
3714.58614 0.03682
3713.30037 0.03622
3712.01460 0.03625
3710.72883 0.03683
3709.44307 0.03738
3708.15730 0.03757
3706.87153 0.03752
3705.58576 0.03742
3704.29999 0.03725
3703.01422 0.03690
3701.72845 0.03647
3700.44268 0.03615
3699.15691 0.03602
3697.87115 0.03605
3696.58538 0.03619
3695.29961 0.03650
3694.01384 0.03702
3692.72807 0.03780
3691.44230 0.03866
3690.15653 0.03911
3688.87076 0.03871
3687.58500 0.03757
3686.29923 0.03621
3685.01346 0.03524
3683.72769 0.03491
3682.44192 0.03495
3681.15615 0.03496
3679.87038 0.03489
3678.58461 0.03499
3677.29884 0.03546
3676.01308 0.03633
3674.72731 0.03742
3673.44154 0.03836
3672.15577 0.03902
3670.87000 0.03971
3669.58423 0.04073
3668.29846 0.04171
3667.01269 0.04200
3665.72693 0.04130
3664.44116 0.03981
3663.15539 0.03816
3661.86962 0.03715
3660.58385 0.03720
3659.29808 0.03806
3658.01231 0.03919
3656.72654 0.04028
3655.44077 0.04116
3654.15501 0.04157
3652.86924 0.04129
3651.58347 0.04044
3650.29770 0.03944
3649.01193 0.03847
3647.72616 0.03750
3646.44039 0.03655
3645.15462 0.03585
3643.86886 0.03573
3642.58309 0.03627
3641.29732 0.03718
3640.01155 0.03800
3638.72578 0.03853
3637.44001 0.03877
3636.15424 0.03876
3634.86847 0.03856
3633.58270 0.03842
3632.29694 0.03864
3631.01117 0.03933
3629.72540 0.04036
3628.43963 0.04146
3627.15386 0.04209
3625.86809 0.04181
3624.58232 0.04077
3623.29655 0.03959
3622.01079 0.03879
3620.72502 0.03856
3619.43925 0.03882
3618.15348 0.03932
3616.86771 0.03979
3615.58194 0.04016
3614.29617 0.04063
3613.01040 0.04130
3611.72463 0.04197
3610.43887 0.04234
3609.15310 0.04251
3607.86733 0.04275
3606.58156 0.04306
3605.29579 0.04323
3604.01002 0.04315
3602.72425 0.04291
3601.43848 0.04263
3600.15272 0.04241
3598.86695 0.04243
3597.58118 0.04280
3596.29541 0.04333
3595.00964 0.04363
3593.72387 0.04346
3592.43810 0.04300
3591.15233 0.04260
3589.86656 0.04245
3588.58080 0.04253
3587.29503 0.04277
3586.00926 0.04315
3584.72349 0.04364
3583.43772 0.04408
3582.15195 0.04421
3580.86618 0.04389
3579.58041 0.04333
3578.29464 0.04301
3577.00888 0.04341
3575.72311 0.04454
3574.43734 0.04582
3573.15157 0.04645
3571.86580 0.04615
3570.58003 0.04536
3569.29426 0.04477
3568.00849 0.04473
3566.72273 0.04508
3565.43696 0.04554
3564.15119 0.04602
3562.86542 0.04661
3561.57965 0.04729
3560.29388 0.04780
3559.00811 0.04801
3557.72234 0.04806
3556.43657 0.04822
3555.15081 0.04844
3553.86504 0.04847
3552.57927 0.04825
3551.29350 0.04801
3550.00773 0.04789
3548.72196 0.04775
3547.43619 0.04741
3546.15042 0.04697
3544.86466 0.04661
3543.57889 0.04647
3542.29312 0.04661
3541.00735 0.04715
3539.72158 0.04807
3538.43581 0.04911
3537.15004 0.04979
3535.86427 0.04979
3534.57850 0.04920
3533.29274 0.04857
3532.00697 0.04851
3530.72120 0.04907
3529.43543 0.04971
3528.14966 0.04988
3526.86389 0.04954
3525.57812 0.04907
3524.29235 0.04876
3523.00659 0.04864
3521.72082 0.04870
3520.43505 0.04888
3519.14928 0.04905
3517.86351 0.04909
3516.57774 0.04907
3515.29197 0.04928
3514.00620 0.04989
3512.72043 0.05070
3511.43467 0.05122
3510.14890 0.05121
3508.86313 0.05086
3507.57736 0.05061
3506.29159 0.05068
3505.00582 0.05102
3503.72005 0.05142
3502.43428 0.05169
3501.14852 0.05172
3499.86275 0.05157
3498.57698 0.05133
3497.29121 0.05108
3496.00544 0.05088
3494.71967 0.05084
3493.43390 0.05108
3492.14813 0.05159
3490.86236 0.05210
3489.57660 0.05232
3488.29083 0.05213
3487.00506 0.05183
3485.71929 0.05196
3484.43352 0.05271
3483.14775 0.05372
3481.86198 0.05441
3480.57621 0.05458
3479.29045 0.05456
3478.00468 0.05477
3476.71891 0.05527
3475.43314 0.05582
3474.14737 0.05629
3472.86160 0.05673
3471.57583 0.05707
3470.29006 0.05704
3469.00429 0.05646
3467.71853 0.05544
3466.43276 0.05443
3465.14699 0.05383
3463.86122 0.05376
3462.57545 0.05403
3461.28968 0.05429
3460.00391 0.05429
3458.71814 0.05404
3457.43238 0.05371
3456.14661 0.05357
3454.86084 0.05380
3453.57507 0.05429
3452.28930 0.05470
3451.00353 0.05469
3449.71776 0.05433
3448.43199 0.05392
3447.14622 0.05368
3445.86046 0.05360
3444.57469 0.05368
3443.28892 0.05393
3442.00315 0.05440
3440.71738 0.05500
3439.43161 0.05556
3438.14584 0.05587
3436.86007 0.05585
3435.57431 0.05558
3434.28854 0.05530
3433.00277 0.05522
3431.71700 0.05546
3430.43123 0.05591
3429.14546 0.05625
3427.85969 0.05615
3426.57392 0.05557
3425.28815 0.05490
3424.00239 0.05453
3422.71662 0.05448
3421.43085 0.05455
3420.14508 0.05466
3418.85931 0.05493
3417.57354 0.05548
3416.28777 0.05620
3415.00200 0.05689
3413.71624 0.05742
3412.43047 0.05768
3411.14470 0.05758
3409.85893 0.05715
3408.57316 0.05660
3407.28739 0.05619
3406.00162 0.05602
3404.71585 0.05605
3403.43008 0.05630
3402.14432 0.05688
3400.85855 0.05796
3399.57278 0.05935
3398.28701 0.06036
3397.00124 0.06059
3395.71547 0.06007
3394.42970 0.05932
3393.14393 0.05892
3391.85817 0.05901
3390.57240 0.05926
3389.28663 0.05940
3388.00086 0.05942
3386.71509 0.05937
3385.42932 0.05929
3384.14355 0.05921
3382.85778 0.05918
3381.57201 0.05922
3380.28625 0.05922
3379.00048 0.05909
3377.71471 0.05880
3376.42894 0.05831
3375.14317 0.05762
3373.85740 0.05701
3372.57163 0.05697
3371.28586 0.05783
3370.00010 0.05933
3368.71433 0.06069
3367.42856 0.06123
3366.14279 0.06080
3364.85702 0.05988
3363.57125 0.05910
3362.28548 0.05879
3360.99971 0.05885
3359.71394 0.05901
3358.42818 0.05922
3357.14241 0.05964
3355.85664 0.06031
3354.57087 0.06094
3353.28510 0.06106
3351.99933 0.06043
3350.71356 0.05932
3349.42779 0.05828
3348.14202 0.05774
3346.85626 0.05765
3345.57049 0.05768
3344.28472 0.05760
3342.99895 0.05737
3341.71318 0.05708
3340.42741 0.05683
3339.14164 0.05675
3337.85587 0.05700
3336.57011 0.05760
3335.28434 0.05827
3333.99857 0.05853
3332.71280 0.05809
3331.42703 0.05719
3330.14126 0.05651
3328.85549 0.05655
3327.56972 0.05716
3326.28395 0.05784
3324.99819 0.05823
3323.71242 0.05842
3322.42665 0.05856
3321.14088 0.05865
3319.85511 0.05855
3318.56934 0.05820
3317.28357 0.05772
3315.99780 0.05732
3314.71204 0.05720
3313.42627 0.05750
3312.14050 0.05812
3310.85473 0.05877
3309.56896 0.05908
3308.28319 0.05895
3306.99742 0.05857
3305.71165 0.05821
3304.42588 0.05801
3303.14012 0.05793
3301.85435 0.05783
3300.56858 0.05765
3299.28281 0.05751
3297.99704 0.05754
3296.71127 0.05769
3295.42550 0.05775
3294.13973 0.05766
3292.85397 0.05766
3291.56820 0.05798
3290.28243 0.05850
3288.99666 0.05879
3287.71089 0.05852
3286.42512 0.05789
3285.13935 0.05738
3283.85358 0.05716
3282.56781 0.05708
3281.28205 0.05711
3279.99628 0.05743
3278.71051 0.05805
3277.42474 0.05861
3276.13897 0.05875
3274.85320 0.05853
3273.56743 0.05830
3272.28166 0.05838
3270.99590 0.05889
3269.71013 0.05967
3268.42436 0.06025
3267.13859 0.06023
3265.85282 0.05970
3264.56705 0.05908
3263.28128 0.05864
3261.99551 0.05833
3260.70974 0.05801
3259.42398 0.05772
3258.13821 0.05751
3256.85244 0.05730
3255.56667 0.05693
3254.28090 0.05634
3252.99513 0.05574
3251.70936 0.05541
3250.42359 0.05541
3249.13783 0.05557
3247.85206 0.05568
3246.56629 0.05565
3245.28052 0.05552
3243.99475 0.05540
3242.70898 0.05553
3241.42321 0.05602
3240.13744 0.05675
3238.85167 0.05734
3237.56591 0.05749
3236.28014 0.05725
3234.99437 0.05698
3233.70860 0.05699
3232.42283 0.05723
3231.13706 0.05745
3229.85129 0.05746
3228.56552 0.05733
3227.27976 0.05723
3225.99399 0.05726
3224.70822 0.05742
3223.42245 0.05759
3222.13668 0.05759
3220.85091 0.05732
3219.56514 0.05684
3218.27937 0.05633
3216.99360 0.05596
3215.70784 0.05596
3214.42207 0.05638
3213.13630 0.05696
3211.85053 0.05724
3210.56476 0.05704
3209.27899 0.05666
3207.99322 0.05646
3206.70745 0.05642
3205.42169 0.05630
3204.13592 0.05602
3202.85015 0.05580
3201.56438 0.05577
3200.27861 0.05583
3198.99284 0.05575
3197.70707 0.05552
3196.42130 0.05531
3195.13553 0.05527
3193.84977 0.05541
3192.56400 0.05561
3191.27823 0.05573
3189.99246 0.05557
3188.70669 0.05513
3187.42092 0.05466
3186.13515 0.05443
3184.84938 0.05452
3183.56362 0.05467
3182.27785 0.05464
3180.99208 0.05442
3179.70631 0.05414
3178.42054 0.05393
3177.13477 0.05382
3175.84900 0.05375
3174.56323 0.05365
3173.27746 0.05352
3171.99170 0.05336
3170.70593 0.05323
3169.42016 0.05317
3168.13439 0.05319
3166.84862 0.05332
3165.56285 0.05357
3164.27708 0.05383
3162.99131 0.05391
3161.70555 0.05372
3160.41978 0.05344
3159.13401 0.05335
3157.84824 0.05354
3156.56247 0.05376
3155.27670 0.05374
3153.99093 0.05346
3152.70516 0.05309
3151.41939 0.05276
3150.13363 0.05253
3148.84786 0.05242
3147.56209 0.05250
3146.27632 0.05275
3144.99055 0.05304
3143.70478 0.05324
3142.41901 0.05334
3141.13324 0.05347
3139.84748 0.05366
3138.56171 0.05383
3137.27594 0.05383
3135.99017 0.05359
3134.70440 0.05322
3133.41863 0.05284
3132.13286 0.05251
3130.84709 0.05230
3129.56132 0.05229
3128.27556 0.05250
3126.98979 0.05276
3125.70402 0.05291
3124.41825 0.05293
3123.13248 0.05289
3121.84671 0.05276
3120.56094 0.05250
3119.27517 0.05214
3117.98940 0.05178
3116.70364 0.05149
3115.41787 0.05120
3114.13210 0.05092
3112.84633 0.05081
3111.56056 0.05103
3110.27479 0.05150
3108.98902 0.05191
3107.70325 0.05200
3106.41749 0.05180
3105.13172 0.05150
3103.84595 0.05124
3102.56018 0.05106
3101.27441 0.05100
3099.98864 0.05106
3098.70287 0.05120
3097.41710 0.05129
3096.13133 0.05121
3094.84557 0.05093
3093.55980 0.05053
3092.27403 0.05019
3090.98826 0.05000
3089.70249 0.04992
3088.41672 0.04978
3087.13095 0.04951
3085.84518 0.04919
3084.55942 0.04894
3083.27365 0.04886
3081.98788 0.04893
3080.70211 0.04911
3079.41634 0.04928
3078.13057 0.04931
3076.84480 0.04920
3075.55903 0.04911
3074.27326 0.04927
3072.98750 0.04969
3071.70173 0.05014
3070.41596 0.05035
3069.13019 0.05029
3067.84442 0.05017
3066.55865 0.05010
3065.27288 0.05002
3063.98711 0.04981
3062.70135 0.04945
3061.41558 0.04911
3060.12981 0.04907
3058.84404 0.04942
3057.55827 0.04993
3056.27250 0.05017
3054.98673 0.04990
3053.70096 0.04925
3052.41519 0.04858
3051.12943 0.04817
3049.84366 0.04807
3048.55789 0.04820
3047.27212 0.04838
3045.98635 0.04843
3044.70058 0.04829
3043.41481 0.04810
3042.12904 0.04808
3040.84328 0.04836
3039.55751 0.04878
3038.27174 0.04910
3036.98597 0.04914
3035.70020 0.04893
3034.41443 0.04860
3033.12866 0.04823
3031.84289 0.04790
3030.55712 0.04772
3029.27136 0.04775
3027.98559 0.04790
3026.69982 0.04799
3025.41405 0.04783
3024.12828 0.04745
3022.84251 0.04705
3021.55674 0.04686
3020.27097 0.04698
3018.98521 0.04735
3017.69944 0.04780
3016.41367 0.04816
3015.12790 0.04833
3013.84213 0.04830
3012.55636 0.04809
3011.27059 0.04770
3009.98482 0.04715
3008.69905 0.04655
3007.41329 0.04604
3006.12752 0.04570
3004.84175 0.04553
3003.55598 0.04555
3002.27021 0.04575
3000.98444 0.04609
2999.69867 0.04640
2998.41290 0.04647
2997.12714 0.04624
2995.84137 0.04579
2994.55560 0.04532
2993.26983 0.04498
2991.98406 0.04484
2990.69829 0.04491
2989.41252 0.04514
2988.12675 0.04547
2986.84098 0.04580
2985.55522 0.04613
2984.26945 0.04656
2982.98368 0.04710
2981.69791 0.04766
2980.41214 0.04809
2979.12637 0.04831
2977.84060 0.04844
2976.55483 0.04872
2975.26907 0.04927
2973.98330 0.05000
2972.69753 0.05073
2971.41176 0.05129
2970.12599 0.05170
2968.84022 0.05215
2967.55445 0.05294
2966.26868 0.05421
2964.98291 0.05581
2963.69715 0.05740
2962.41138 0.05875
2961.12561 0.05976
2959.83984 0.06050
2958.55407 0.06112
2957.26830 0.06178
2955.98253 0.06257
2954.69676 0.06335
2953.41100 0.06379
2952.12523 0.06372
2950.83946 0.06327
2949.55369 0.06277
2948.26792 0.06250
2946.98215 0.06262
2945.69638 0.06310
2944.41061 0.06364
2943.12484 0.06391
2941.83908 0.06383
2940.55331 0.06373
2939.26754 0.06394
2937.98177 0.06450
2936.69600 0.06518
2935.41023 0.06583
2934.12446 0.06649
2932.83869 0.06720
2931.55293 0.06795
2930.26716 0.06868
2928.98139 0.06943
2927.69562 0.07023
2926.40985 0.07105
2925.12408 0.07175
2923.83831 0.07213
2922.55254 0.07202
2921.26677 0.07136
2919.98101 0.07030
2918.69524 0.06922
2917.40947 0.06848
2916.12370 0.06813
2914.83793 0.06792
2913.55216 0.06760
2912.26639 0.06716
2910.98062 0.06674
2909.69486 0.06637
2908.40909 0.06590
2907.12332 0.06519
2905.83755 0.06441
2904.55178 0.06375
2903.26601 0.06320
2901.98024 0.06255
2900.69447 0.06177
2899.40870 0.06103
2898.12294 0.06053
2896.83717 0.06032
2895.55140 0.06023
2894.26563 0.06008
2892.97986 0.05976
2891.69409 0.05927
2890.40832 0.05865
2889.12255 0.05793
2887.83678 0.05724
2886.55102 0.05674
2885.26525 0.05643
2883.97948 0.05615
2882.69371 0.05583
2881.40794 0.05557
2880.12217 0.05546
2878.83640 0.05543
2877.55063 0.05542
2876.26487 0.05544
2874.97910 0.05558
2873.69333 0.05590
2872.40756 0.05640
2871.12179 0.05696
2869.83602 0.05737
2868.55025 0.05756
2867.26448 0.05770
2865.97871 0.05796
2864.69295 0.05832
2863.40718 0.05857
2862.12141 0.05854
2860.83564 0.05831
2859.54987 0.05813
2858.26410 0.05817
2856.97833 0.05835
2855.69256 0.05846
2854.40680 0.05833
2853.12103 0.05796
2851.83526 0.05742
2850.54949 0.05683
2849.26372 0.05630
2847.97795 0.05581
2846.69218 0.05530
2845.40641 0.05476
2844.12064 0.05425
2842.83488 0.05377
2841.54911 0.05316
2840.26334 0.05232
2838.97757 0.05137
2837.69180 0.05049
2836.40603 0.04978
2835.12026 0.04916
2833.83449 0.04858
2832.54873 0.04804
2831.26296 0.04758
2829.97719 0.04719
2828.69142 0.04676
2827.40565 0.04618
2826.11988 0.04543
2824.83411 0.04466
2823.54834 0.04406
2822.26257 0.04375
2820.97681 0.04377
2819.69104 0.04402
2818.40527 0.04432
2817.11950 0.04444
2815.83373 0.04428
2814.54796 0.04391
2813.26219 0.04345
2811.97642 0.04295
2810.69066 0.04241
2809.40489 0.04187
2808.11912 0.04146
2806.83335 0.04126
2805.54758 0.04122
2804.26181 0.04129
2802.97604 0.04144
2801.69027 0.04160
2800.40450 0.04162
2799.11874 0.04141
2797.83297 0.04110
2796.54720 0.04090
2795.26143 0.04093
2793.97566 0.04113
2792.68989 0.04130
2791.40412 0.04124
2790.11835 0.04086
2788.83259 0.04025
2787.54682 0.03963
2786.26105 0.03926
2784.97528 0.03920
2783.68951 0.03932
2782.40374 0.03943
2781.11797 0.03944
2779.83220 0.03936
2778.54643 0.03929
2777.26067 0.03929
2775.97490 0.03933
2774.68913 0.03928
2773.40336 0.03909
2772.11759 0.03884
2770.83182 0.03874
2769.54605 0.03885
2768.26028 0.03895
2766.97452 0.03879
2765.68875 0.03840
2764.40298 0.03802
2763.11721 0.03785
2761.83144 0.03788
2760.54567 0.03800
2759.25990 0.03815
2757.97413 0.03829
2756.68836 0.03832
2755.40260 0.03814
2754.11683 0.03775
2752.83106 0.03736
2751.54529 0.03724
2750.25952 0.03749
2748.97375 0.03795
2747.68798 0.03831
2746.40221 0.03833
2745.11645 0.03803
2743.83068 0.03761
2742.54491 0.03734
2741.25914 0.03732
2739.97337 0.03744
2738.68760 0.03749
2737.40183 0.03733
2736.11606 0.03706
2734.83029 0.03691
2733.54453 0.03701
2732.25876 0.03727
2730.97299 0.03748
2729.68722 0.03746
2728.40145 0.03722
2727.11568 0.03689
2725.82991 0.03660
2724.54414 0.03639
2723.25838 0.03625
2721.97261 0.03622
2720.68684 0.03631
2719.40107 0.03646
2718.11530 0.03656
2716.82953 0.03659
2715.54376 0.03655
2714.25799 0.03647
2712.97222 0.03635
2711.68646 0.03623
2710.40069 0.03611
2709.11492 0.03598
2707.82915 0.03587
2706.54338 0.03580
2705.25761 0.03576
2703.97184 0.03571
2702.68607 0.03567
2701.40031 0.03573
2700.11454 0.03584
2698.82877 0.03584
2697.54300 0.03565
2696.25723 0.03534
2694.97146 0.03512
2693.68569 0.03512
2692.39992 0.03528
2691.11415 0.03544
2689.82839 0.03548
2688.54262 0.03541
2687.25685 0.03530
2685.97108 0.03521
2684.68531 0.03518
2683.39954 0.03517
2682.11377 0.03507
2680.82800 0.03478
2679.54224 0.03442
2678.25647 0.03423
2676.97070 0.03437
2675.68493 0.03474
2674.39916 0.03510
2673.11339 0.03529
2671.82762 0.03526
2670.54185 0.03507
2669.25608 0.03482
2667.97032 0.03464
2666.68455 0.03459
2665.39878 0.03462
2664.11301 0.03458
2662.82724 0.03441
2661.54147 0.03412
2660.25570 0.03374
2658.96993 0.03332
2657.68417 0.03295
2656.39840 0.03272
2655.11263 0.03262
2653.82686 0.03258
2652.54109 0.03253
2651.25532 0.03248
2649.96955 0.03245
2648.68378 0.03245
2647.39801 0.03243
2646.11225 0.03236
2644.82648 0.03221
2643.54071 0.03203
2642.25494 0.03191
2640.96917 0.03187
2639.68340 0.03186
2638.39763 0.03172
2637.11186 0.03140
2635.82609 0.03097
2634.54033 0.03061
2633.25456 0.03041
2631.96879 0.03035
2630.68302 0.03043
2629.39725 0.03056
2628.11148 0.03059
2626.82571 0.03041
2625.53994 0.03008
2624.25418 0.02976
2622.96841 0.02958
2621.68264 0.02953
2620.39687 0.02956
2619.11110 0.02959
2617.82533 0.02949
2616.53956 0.02924
2615.25379 0.02897
2613.96802 0.02887
2612.68226 0.02900
2611.39649 0.02918
2610.11072 0.02922
2608.82495 0.02912
2607.53918 0.02903
2606.25341 0.02905
2604.96764 0.02904
2603.68187 0.02886
2602.39611 0.02856
2601.11034 0.02838
2599.82457 0.02847
2598.53880 0.02873
2597.25303 0.02895
2595.96726 0.02896
2594.68149 0.02875
2593.39572 0.02846
2592.10995 0.02826
2590.82419 0.02823
2589.53842 0.02830
2588.25265 0.02837
2586.96688 0.02834
2585.68111 0.02818
2584.39534 0.02792
2583.10957 0.02764
2581.82380 0.02746
2580.53804 0.02742
2579.25227 0.02743
2577.96650 0.02735
2576.68073 0.02715
2575.39496 0.02687
2574.10919 0.02658
2572.82342 0.02635
2571.53765 0.02621
2570.25188 0.02613
2568.96612 0.02601
2567.68035 0.02585
2566.39458 0.02584
2565.10881 0.02609
2563.82304 0.02643
2562.53727 0.02667
2561.25150 0.02679
2559.96573 0.02691
2558.67997 0.02703
2557.39420 0.02702
2556.10843 0.02689
2554.82266 0.02685
2553.53689 0.02698
2552.25112 0.02714
2550.96535 0.02707
2549.67958 0.02672
2548.39381 0.02626
2547.10805 0.02589
2545.82228 0.02576
2544.53651 0.02579
2543.25074 0.02576
2541.96497 0.02553
2540.67920 0.02519
2539.39343 0.02503
2538.10766 0.02521
2536.82190 0.02563
2535.53613 0.02605
2534.25036 0.02630
2532.96459 0.02639
2531.67882 0.02638
2530.39305 0.02637
2529.10728 0.02632
2527.82151 0.02610
2526.53574 0.02564
2525.24998 0.02515
2523.96421 0.02494
2522.67844 0.02509
2521.39267 0.02537
2520.10690 0.02549
2518.82113 0.02540
2517.53536 0.02524
2516.24959 0.02509
2514.96383 0.02488
2513.67806 0.02456
2512.39229 0.02424
2511.10652 0.02412
2509.82075 0.02429
2508.53498 0.02467
2507.24921 0.02515
2505.96344 0.02563
2504.67767 0.02601
2503.39191 0.02609
2502.10614 0.02573
2500.82037 0.02512
2499.53460 0.02467
2498.24883 0.02470
2496.96306 0.02503
2495.67729 0.02525
2494.39152 0.02518
2493.10576 0.02501
2491.81999 0.02497
2490.53422 0.02521
2489.24845 0.02569
2487.96268 0.02621
2486.67691 0.02653
2485.39114 0.02654
2484.10537 0.02633
2482.81960 0.02605
2481.53384 0.02563
2480.24807 0.02499
2478.96230 0.02430
2477.67653 0.02386
2476.39076 0.02382
2475.10499 0.02398
2473.81922 0.02407
2472.53345 0.02395
2471.24769 0.02376
2469.96192 0.02370
2468.67615 0.02393
2467.39038 0.02447
2466.10461 0.02511
2464.81884 0.02555
2463.53307 0.02567
2462.24730 0.02559
2460.96153 0.02547
2459.67577 0.02535
2458.39000 0.02516
2457.10423 0.02489
2455.81846 0.02461
2454.53269 0.02446
2453.24692 0.02444
2451.96115 0.02447
2450.67538 0.02444
2449.38962 0.02444
2448.10385 0.02461
2446.81808 0.02488
2445.53231 0.02498
2444.24654 0.02474
2442.96077 0.02440
2441.67500 0.02436
2440.38923 0.02468
2439.10346 0.02490
2437.81770 0.02465
2436.53193 0.02404
2435.24616 0.02359
2433.96039 0.02358
2432.67462 0.02381
2431.38885 0.02391
2430.10308 0.02375
2428.81731 0.02348
2427.53155 0.02330
2426.24578 0.02332
2424.96001 0.02350
2423.67424 0.02376
2422.38847 0.02396
2421.10270 0.02397
2419.81693 0.02380
2418.53116 0.02361
2417.24539 0.02351
2415.95963 0.02336
2414.67386 0.02306
2413.38809 0.02273
2412.10232 0.02261
2410.81655 0.02272
2409.53078 0.02294
2408.24501 0.02318
2406.95924 0.02346
2405.67347 0.02369
2404.38771 0.02373
2403.10194 0.02364
2401.81617 0.02361
2400.53040 0.02374
2399.24463 0.02391
2397.95886 0.02383
2396.67309 0.02358
2395.38732 0.02330
2394.10156 0.02317
2392.81579 0.02326
2391.53002 0.02352
2390.24425 0.02379
2388.95848 0.02394
2387.67271 0.02394
2386.38694 0.02385
2385.10117 0.02373
2383.81540 0.02368
2382.52964 0.02384
2381.24387 0.02423
2379.95810 0.02471
2378.67233 0.02503
2377.38656 0.02506
2376.10079 0.02482
2374.81502 0.02444
2373.52925 0.02406
2372.24349 0.02375
2370.95772 0.02361
2369.67195 0.02355
2368.38618 0.02359
2367.10041 0.02378
2365.81464 0.02409
2364.52887 0.02431
2363.24310 0.02437
2361.95733 0.02426
2360.67157 0.02404
2359.38580 0.02374
2358.10003 0.02358
2356.81426 0.02366
2355.52849 0.02390
2354.24272 0.02410
2352.95695 0.02401
2351.67118 0.02370
2350.38542 0.02342
2349.09965 0.02333
2347.81388 0.02336
2346.52811 0.02348
2345.24234 0.02359
2343.95657 0.02369
2342.67080 0.02374
2341.38503 0.02384
2340.09926 0.02395
2338.81350 0.02396
2337.52773 0.02395
2336.24196 0.02394
2334.95619 0.02397
2333.67042 0.02411
2332.38465 0.02409
2331.09888 0.02396
2329.81311 0.02378
2328.52735 0.02342
2327.24158 0.02315
2325.95581 0.02297
2324.67004 0.02275
2323.38427 0.02263
2322.09850 0.02257
2320.81273 0.02231
2319.52696 0.02209
2318.24119 0.02199
2316.95543 0.02199
2315.66966 0.02219
2314.38389 0.02239
2313.09812 0.02243
2311.81235 0.02233
2310.52658 0.02204
2309.24081 0.02172
2307.95504 0.02147
2306.66928 0.02126
2305.38351 0.02106
2304.09774 0.02081
2302.81197 0.02056
2301.52620 0.02042
2300.24043 0.02042
2298.95466 0.02049
2297.66889 0.02049
2296.38312 0.02033
2295.09736 0.02000
2293.81159 0.01962
2292.52582 0.01931
2291.24005 0.01911
2289.95428 0.01896
2288.66851 0.01873
2287.38274 0.01844
2286.09697 0.01825
2284.81121 0.01832
2283.52544 0.01862
2282.23967 0.01906
2280.95390 0.01951
2279.66813 0.01985
2278.38236 0.01986
2277.09659 0.01945
2275.81082 0.01869
2274.52505 0.01786
2273.23929 0.01725
2271.95352 0.01696
2270.66775 0.01689
2269.38198 0.01681
2268.09621 0.01653
2266.81044 0.01607
2265.52467 0.01568
2264.23890 0.01563
2262.95314 0.01601
2261.66737 0.01672
2260.38160 0.01750
2259.09583 0.01810
2257.81006 0.01832
2256.52429 0.01806
2255.23852 0.01743
2253.95275 0.01665
2252.66698 0.01593
2251.38122 0.01542
2250.09545 0.01522
2248.80968 0.01540
2247.52391 0.01572
2246.23814 0.01592
2244.95237 0.01585
2243.66660 0.01569
2242.38083 0.01577
2241.09507 0.01630
2239.80930 0.01703
2238.52353 0.01750
2237.23776 0.01741
2235.95199 0.01691
2234.66622 0.01632
2233.38045 0.01585
2232.09468 0.01547
2230.80891 0.01515
2229.52315 0.01500
2228.23738 0.01518
2226.95161 0.01564
2225.66584 0.01594
2224.38007 0.01570
2223.09430 0.01499
2221.80853 0.01416
2220.52276 0.01334
2219.23700 0.01242
2217.95123 0.01150
2216.66546 0.01099
2215.37969 0.01117
2214.09392 0.01178
2212.80815 0.01229
2211.52238 0.01242
2210.23661 0.01235
2208.95084 0.01241
2207.66508 0.01276
2206.37931 0.01318
2205.09354 0.01339
2203.80777 0.01338
2202.52200 0.01347
2201.23623 0.01393
2199.95046 0.01458
2198.66469 0.01491
2197.37893 0.01467
2196.09316 0.01405
2194.80739 0.01321
2193.52162 0.01202
2192.23585 0.01047
2190.95008 0.00918
2189.66431 0.00918
2188.37854 0.01082
2187.09277 0.01313
2185.80701 0.01446
2184.52124 0.01396
2183.23547 0.01220
2181.94970 0.01043
2180.66393 0.00948
2179.37816 0.00937
2178.09239 0.00977
2176.80662 0.01019
2175.52085 0.01017
2174.23509 0.00958
2172.94932 0.00879
2171.66355 0.00836
2170.37778 0.00843
2169.09201 0.00857
2167.80624 0.00810
2166.52047 0.00673
2165.23470 0.00489
2163.94894 0.00359
2162.66317 0.00359
2161.37740 0.00483
2160.09163 0.00657
2158.80586 0.00825
2157.52009 0.00987
2156.23432 0.01136
2154.94855 0.01209
2153.66278 0.01150
2152.37702 0.00986
2151.09125 0.00834
2149.80548 0.00796
2148.51971 0.00876
2147.23394 0.01000
2145.94817 0.01093
2144.66240 0.01137
2143.37663 0.01150
2142.09087 0.01143
2140.80510 0.01109
2139.51933 0.01059
2138.23356 0.01032
2136.94779 0.01055
2135.66202 0.01110
2134.37625 0.01156
2133.09048 0.01180
2131.80471 0.01217
2130.51895 0.01296
2129.23318 0.01397
2127.94741 0.01470
2126.66164 0.01485
2125.37587 0.01452
2124.09010 0.01404
2122.80433 0.01368
2121.51856 0.01356
2120.23280 0.01365
2118.94703 0.01379
2117.66126 0.01384
2116.37549 0.01380
2115.08972 0.01380
2113.80395 0.01380
2112.51818 0.01362
2111.23241 0.01317
2109.94664 0.01259
2108.66088 0.01213
2107.37511 0.01197
2106.08934 0.01211
2104.80357 0.01237
2103.51780 0.01246
2102.23203 0.01218
2100.94626 0.01176
2099.66049 0.01381
2098.37473 0.01502
2097.08896 0.01527
2095.80319 0.01510
2094.51742 0.01447
2093.23165 0.01348
2091.94588 0.01250
2090.66011 0.01185
2089.37434 0.01168
2088.08857 0.01185
2086.80281 0.01212
2085.51704 0.01226
2084.23127 0.01225
2082.94550 0.01216
2081.65973 0.01209
2080.37396 0.01215
2079.08819 0.01241
2077.80242 0.01281
2076.51666 0.01320
2075.23089 0.01346
2073.94512 0.01362
2072.65935 0.01369
2071.37358 0.01349
2070.08781 0.01294
2068.80204 0.01225
2067.51627 0.01182
2066.23050 0.01184
2064.94474 0.01210
2063.65897 0.01215
2062.37320 0.01172
2061.08743 0.01083
2059.80166 0.00972
2058.51589 0.00873
2057.23012 0.00802
2055.94435 0.00759
2054.65859 0.00739
2053.37282 0.00753
2052.08705 0.00812
2050.80128 0.00902
2049.51551 0.00988
2048.22974 0.01047
2046.94397 0.01068
2045.65820 0.01048
2044.37243 0.00982
2043.08667 0.00877
2041.80090 0.00748
2040.51513 0.00623
2039.22936 0.00549
2037.94359 0.00571
2036.65782 0.00695
2035.37205 0.00852
2034.08628 0.00955
2032.80052 0.00974
2031.51475 0.00961
2030.22898 0.00983
2028.94321 0.01056
2027.65744 0.01127
2026.37167 0.01134
2025.08590 0.01060
2023.80013 0.00938
2022.51436 0.00813
2021.22860 0.00715
2019.94283 0.00654
2018.65706 0.00622
2017.37129 0.00595
2016.08552 0.00556
2014.79975 0.00533
2013.51398 0.00586
2012.22821 0.00748
2010.94245 0.00996
2009.65668 0.01257
2008.37091 0.01440
2007.08514 0.01494
2005.79937 0.01432
2004.51360 0.01324
2003.22783 0.01231
2001.94206 0.01163
2000.65629 0.01101
1999.37053 0.01042
1998.08476 0.00999
1996.79899 0.00972
1995.51322 0.00936
1994.22745 0.00862
1992.94168 0.00750
1991.65591 0.00639
1990.37014 0.00577
1989.08438 0.00578
1987.79861 0.00618
1986.51284 0.00676
1985.22707 0.00749
1983.94130 0.00840
1982.65553 0.00945
1981.36976 0.01067
1980.08399 0.01216
1978.79822 0.01387
1977.51246 0.01533
1976.22669 0.01595
1974.94092 0.01563
1973.65515 0.01481
1972.36938 0.01410
1971.08361 0.01376
1969.79784 0.01368
1968.51207 0.01365
1967.22631 0.01356
1965.94054 0.01334
1964.65477 0.01289
1963.36900 0.01219
1962.08323 0.01147
1960.79746 0.01116
1959.51169 0.01142
1958.22592 0.01194
1956.94015 0.01217
1955.65439 0.01195
1954.36862 0.01175
1953.08285 0.01216
1951.79708 0.01322
1950.51131 0.01441
1949.22554 0.01523
1947.93977 0.01568
1946.65400 0.01598
1945.36823 0.01620
1944.08247 0.01620
1942.79670 0.01587
1941.51093 0.01535
1940.22516 0.01490
1938.93939 0.01469
1937.65362 0.01473
1936.36785 0.01492
1935.08208 0.01506
1933.79632 0.01503
1932.51055 0.01480
1931.22478 0.01456
1929.93901 0.01450
1928.65324 0.01470
1927.36747 0.01500
1926.08170 0.01518
1924.79593 0.01510
1923.51016 0.01483
1922.22440 0.01453
1920.93863 0.01431
1919.65286 0.01410
1918.36709 0.01388
1917.08132 0.01382
1915.79555 0.01418
1914.50978 0.01492
1913.22401 0.01565
1911.93825 0.01594
1910.65248 0.01566
1909.36671 0.01507
1908.08094 0.01455
1906.79517 0.01431
1905.50940 0.01430
1904.22363 0.01439
1902.93786 0.01451
1901.65209 0.01459
1900.36633 0.01455
1899.08056 0.01435
1897.79479 0.01405
1896.50902 0.01381
1895.22325 0.01375
1893.93748 0.01396
1892.65171 0.01441
1891.36594 0.01494
1890.08018 0.01527
1888.79441 0.01525
1887.50864 0.01491
1886.22287 0.01450
1884.93710 0.01424
1883.65133 0.01425
1882.36556 0.01446
1881.07979 0.01474
1879.79402 0.01499
1878.50826 0.01515
1877.22249 0.01517
1875.93672 0.01509
1874.65095 0.01501
1873.36518 0.01503
1872.07941 0.01516
1870.79364 0.01531
1869.50787 0.01538
1868.22211 0.01534
1866.93634 0.01517
1865.65057 0.01488
1864.36480 0.01457
1863.07903 0.01441
1861.79326 0.01452
1860.50749 0.01483
1859.22172 0.01509
1857.93595 0.01512
1856.65019 0.01489
1855.36442 0.01453
1854.07865 0.01425
1852.79288 0.01414
1851.50711 0.01422
1850.22134 0.01443
1848.93557 0.01464
1847.64980 0.01477
1846.36404 0.01479
1845.07827 0.01475
1843.79250 0.01472
1842.50673 0.01467
1841.22096 0.01451
1839.93519 0.01424
1838.64942 0.01400
1837.36365 0.01390
1836.07788 0.01398
1834.79212 0.01420
1833.50635 0.01448
1832.22058 0.01472
1830.93481 0.01488
1829.64904 0.01501
1828.36327 0.01517
1827.07750 0.01539
1825.79173 0.01567
1824.50597 0.01598
1823.22020 0.01626
1821.93443 0.01649
1820.64866 0.01670
1819.36289 0.01684
1818.07712 0.01673
1816.79135 0.01624
1815.50558 0.01549
1814.21981 0.01475
1812.93405 0.01424
1811.64828 0.01399
1810.36251 0.01390
1809.07674 0.01391
1807.79097 0.01396
1806.50520 0.01406
1805.21943 0.01417
1803.93366 0.01427
1802.64790 0.01434
1801.36213 0.01443
1800.07636 0.01455
1798.79059 0.01465
1797.50482 0.01470
1796.21905 0.01472
1794.93328 0.01477
1793.64751 0.01492
1792.36174 0.01516
1791.07598 0.01539
1789.79021 0.01555
1788.50444 0.01562
1787.21867 0.01566
1785.93290 0.01570
1784.64713 0.01573
1783.36136 0.01578
1782.07559 0.01579
1780.78983 0.01574
1779.50406 0.01562
1778.21829 0.01546
1776.93252 0.01531
1775.64675 0.01525
1774.36098 0.01529
1773.07521 0.01543
1771.78944 0.01562
1770.50367 0.01570
1769.21791 0.01558
1767.93214 0.01539
1766.64637 0.01528
1765.36060 0.01527
1764.07483 0.01532
1762.78906 0.01540
1761.50329 0.01553
1760.21752 0.01567
1758.93176 0.01570
1757.64599 0.01562
1756.36022 0.01555
1755.07445 0.01556
1753.78868 0.01562
1752.50291 0.01567
1751.21714 0.01572
1749.93137 0.01576
1748.64560 0.01576
1747.35984 0.01572
1746.07407 0.01570
1744.78830 0.01573
1743.50253 0.01579
1742.21676 0.01584
1740.93099 0.01584
1739.64522 0.01584
1738.35945 0.01594
1737.07369 0.01612
1735.78792 0.01630
1734.50215 0.01647
1733.21638 0.01658
1731.93061 0.01655
1730.64484 0.01635
1729.35907 0.01614
1728.07330 0.01609
1726.78753 0.01617
1725.50177 0.01628
1724.21600 0.01636
1722.93023 0.01647
1721.64446 0.01669
1720.35869 0.01699
1719.07292 0.01731
1717.78715 0.01763
1716.50138 0.01792
1715.21561 0.01808
1713.92985 0.01807
1712.64408 0.01801
1711.35831 0.01803
1710.07254 0.01819
1708.78677 0.01844
1707.50100 0.01871
1706.21523 0.01895
1704.92946 0.01927
1703.64370 0.01972
1702.35793 0.02020
1701.07216 0.02066
1699.78639 0.02110
1698.50062 0.02140
1697.21485 0.02141
1695.92908 0.02127
1694.64331 0.02120
1693.35754 0.02114
1692.07178 0.02100
1690.78601 0.02091
1689.50024 0.02106
1688.21447 0.02142
1686.92870 0.02184
1685.64293 0.02220
1684.35716 0.02249
1683.07139 0.02267
1681.78563 0.02262
1680.49986 0.02243
1679.21409 0.02235
1677.92832 0.02249
1676.64255 0.02275
1675.35678 0.02304
1674.07101 0.02332
1672.78524 0.02353
1671.49947 0.02364
1670.21371 0.02369
1668.92794 0.02373
1667.64217 0.02380
1666.35640 0.02391
1665.07063 0.02409
1663.78486 0.02433
1662.49909 0.02459
1661.21332 0.02477
1659.92756 0.02483
1658.64179 0.02488
1657.35602 0.02510
1656.07025 0.02553
1654.78448 0.02603
1653.49871 0.02650
1652.21294 0.02686
1650.92717 0.02696
1649.64140 0.02671
1648.35564 0.02633
1647.06987 0.02608
1645.78410 0.02601
1644.49833 0.02600
1643.21256 0.02596
1641.92679 0.02597
1640.64102 0.02611
1639.35525 0.02639
1638.06949 0.02669
1636.78372 0.02689
1635.49795 0.02697
1634.21218 0.02695
1632.92641 0.02684
1631.64064 0.02672
1630.35487 0.02675
1629.06910 0.02698
1627.78333 0.02732
1626.49757 0.02764
1625.21180 0.02782
1623.92603 0.02786
1622.64026 0.02783
1621.35449 0.02786
1620.06872 0.02803
1618.78295 0.02832
1617.49718 0.02868
1616.21142 0.02903
1614.92565 0.02926
1613.63988 0.02933
1612.35411 0.02935
1611.06834 0.02947
1609.78257 0.02968
1608.49680 0.02988
1607.21103 0.03005
1605.92526 0.03023
1604.63950 0.03047
1603.35373 0.03075
1602.06796 0.03102
1600.78219 0.03127
1599.49642 0.03150
1598.21065 0.03173
1596.92488 0.03196
1595.63911 0.03221
1594.35335 0.03247
1593.06758 0.03274
1591.78181 0.03300
1590.49604 0.03320
1589.21027 0.03334
1587.92450 0.03347
1586.63873 0.03366
1585.35296 0.03395
1584.06719 0.03431
1582.78143 0.03467
1581.49566 0.03504
1580.20989 0.03546
1578.92412 0.03594
1577.63835 0.03639
1576.35258 0.03680
1575.06681 0.03718
1573.78104 0.03747
1572.49528 0.03766
1571.20951 0.03783
1569.92374 0.03808
1568.63797 0.03839
1567.35220 0.03866
1566.06643 0.03886
1564.78066 0.03910
1563.49489 0.03949
1562.20912 0.04002
1560.92336 0.04059
1559.63759 0.04112
1558.35182 0.04152
1557.06605 0.04165
1555.78028 0.04146
1554.49451 0.04114
1553.20874 0.04092
1551.92297 0.04081
1550.63721 0.04070
1549.35144 0.04058
1548.06567 0.04048
1546.77990 0.04039
1545.49413 0.04036
1544.20836 0.04041
1542.92259 0.04054
1541.63682 0.04062
1540.35105 0.04054
1539.06529 0.04026
1537.77952 0.03981
1536.49375 0.03924
1535.20798 0.03868
1533.92221 0.03827
1532.63644 0.03806
1531.35067 0.03797
1530.06490 0.03794
1528.77914 0.03799
1527.49337 0.03817
1526.20760 0.03848
1524.92183 0.03889
1523.63606 0.03933
1522.35029 0.03975
1521.06452 0.04018
1519.77875 0.04065
1518.49298 0.04109
1517.20722 0.04155
1515.92145 0.04207
1514.63568 0.04265
1513.34991 0.04328
1512.06414 0.04399
1510.77837 0.04486
1509.49260 0.04584
1508.20683 0.04681
1506.92107 0.04769
1505.63530 0.04848
1504.34953 0.04912
1503.06376 0.04961
1501.77799 0.05008
1500.49222 0.05067
1499.20645 0.05138
1497.92068 0.05208
1496.63491 0.05267
1495.34915 0.05312
1494.06338 0.05344
1492.77761 0.05369
1491.49184 0.05400
1490.20607 0.05445
1488.92030 0.05500
1487.63453 0.05559
1486.34876 0.05617
1485.06299 0.05679
1483.77723 0.05743
1482.49146 0.05811
1481.20569 0.05885
1479.91992 0.05967
1478.63415 0.06056
1477.34838 0.06150
1476.06261 0.06245
1474.77684 0.06334
1473.49108 0.06407
1472.20531 0.06465
1470.91954 0.06514
1469.63377 0.06563
1468.34800 0.06616
1467.06223 0.06675
1465.77646 0.06735
1464.49069 0.06792
1463.20492 0.06847
1461.91916 0.06904
1460.63339 0.06971
1459.34762 0.07049
1458.06185 0.07132
1456.77608 0.07213
1455.49031 0.07281
1454.20454 0.07326
1452.91877 0.07351
1451.63301 0.07372
1450.34724 0.07396
1449.06147 0.07419
1447.77570 0.07436
1446.48993 0.07447
1445.20416 0.07449
1443.91839 0.07439
1442.63262 0.07421
1441.34685 0.07400
1440.06109 0.07380
1438.77532 0.07362
1437.48955 0.07344
1436.20378 0.07331
1434.91801 0.07325
1433.63224 0.07326
1432.34647 0.07341
1431.06070 0.07378
1429.77494 0.07436
1428.48917 0.07508
1427.20340 0.07587
1425.91763 0.07671
1424.63186 0.07761
1423.34609 0.07858
1422.06032 0.07959
1420.77455 0.08057
1419.48878 0.08149
1418.20302 0.08231
1416.91725 0.08297
1415.63148 0.08342
1414.34571 0.08373
1413.05994 0.08394
1411.77417 0.08404
1410.48840 0.08399
1409.20263 0.08377
1407.91687 0.08335
1406.63110 0.08275
1405.34533 0.08199
1404.05956 0.08111
1402.77379 0.08011
1401.48802 0.07900
1400.20225 0.07778
1398.91648 0.07649
1397.63071 0.07512
1396.34495 0.07365
1395.05918 0.07208
1393.77341 0.07050
1392.48764 0.06899
1391.20187 0.06755
1389.91610 0.06617
1388.63033 0.06483
1387.34456 0.06353
1386.05880 0.06229
1384.77303 0.06108
1383.48726 0.05989
1382.20149 0.05873
1380.91572 0.05760
1379.62995 0.05650
1378.34418 0.05537
1377.05841 0.05415
1375.77264 0.05281
1374.48688 0.05136
1373.20111 0.04984
1371.91534 0.04832
1370.62957 0.04684
1369.34380 0.04541
1368.05803 0.04409
1366.77226 0.04290
1365.48649 0.04182
1364.20073 0.04078
1362.91496 0.03974
1361.62919 0.03869
1360.34342 0.03767
1359.05765 0.03671
1357.77188 0.03585
1356.48611 0.03507
1355.20034 0.03435
1353.91457 0.03370
1352.62881 0.03308
1351.34304 0.03248
1350.05727 0.03191
1348.77150 0.03134
1347.48573 0.03080
1346.19996 0.03029
1344.91419 0.02985
1343.62842 0.02947
1342.34266 0.02913
1341.05689 0.02881
1339.77112 0.02848
1338.48535 0.02814
1337.19958 0.02778
1335.91381 0.02739
1334.62804 0.02699
1333.34227 0.02660
1332.05650 0.02621
1330.77074 0.02584
1329.48497 0.02551
1328.19920 0.02525
1326.91343 0.02507
1325.62766 0.02493
1324.34189 0.02479
1323.05612 0.02462
1321.77035 0.02439
1320.48459 0.02414
1319.19882 0.02391
1317.91305 0.02370
1316.62728 0.02350
1315.34151 0.02330
1314.05574 0.02309
1312.76997 0.02287
1311.48420 0.02267
1310.19843 0.02253
1308.91267 0.02243
1307.62690 0.02238
1306.34113 0.02233
1305.05536 0.02226
1303.76959 0.02216
1302.48382 0.02204
1301.19805 0.02192
1299.91228 0.02179
1298.62652 0.02164
1297.34075 0.02148
1296.05498 0.02131
1294.76921 0.02112
1293.48344 0.02092
1292.19767 0.02072
1290.91190 0.02052
1289.62613 0.02034
1288.34036 0.02016
1287.05460 0.01996
1285.76883 0.01977
1284.48306 0.01962
1283.19729 0.01950
1281.91152 0.01939
1280.62575 0.01928
1279.33998 0.01917
1278.05421 0.01908
1276.76845 0.01898
1275.48268 0.01888
1274.19691 0.01878
1272.91114 0.01869
1271.62537 0.01860
1270.33960 0.01850
1269.05383 0.01837
1267.76806 0.01822
1266.48229 0.01808
1265.19653 0.01795
1263.91076 0.01784
1262.62499 0.01773
1261.33922 0.01762
1260.05345 0.01751
1258.76768 0.01742
1257.48191 0.01734
1256.19614 0.01729
1254.91037 0.01727
1253.62461 0.01725
1252.33884 0.01721
1251.05307 0.01714
1249.76730 0.01705
1248.48153 0.01699
1247.19576 0.01693
1245.90999 0.01688
1244.62422 0.01682
1243.33846 0.01672
1242.05269 0.01661
1240.76692 0.01649
1239.48115 0.01641
1238.19538 0.01637
1236.90961 0.01636
1235.62384 0.01632
1234.33807 0.01625
1233.05230 0.01614
1231.76654 0.01600
1230.48077 0.01586
1229.19500 0.01574
1227.90923 0.01567
1226.62346 0.01568
1225.33769 0.01573
1224.05192 0.01576
1222.76615 0.01574
1221.48039 0.01567
1220.19462 0.01559
1218.90885 0.01554
1217.62308 0.01553
1216.33731 0.01551
1215.05154 0.01545
1213.76577 0.01535
1212.48000 0.01524
1211.19423 0.01517
1209.90847 0.01517
1208.62270 0.01520
1207.33693 0.01523
1206.05116 0.01523
1204.76539 0.01521
1203.47962 0.01521
1202.19385 0.01523
1200.90808 0.01513
1199.62232 0.01485
1198.33655 0.01487
1197.05078 0.01489
1195.76501 0.01488
1194.47924 0.01487
1193.19347 0.01488
1191.90770 0.01490
1190.62193 0.01491
1189.33616 0.01488
1188.05040 0.01482
1186.76463 0.01477
1185.47886 0.01478
1184.19309 0.01483
1182.90732 0.01490
1181.62155 0.01496
1180.33578 0.01497
1179.05001 0.01494
1177.76425 0.01488
1176.47848 0.01482
1175.19271 0.01479
1173.90694 0.01484
1172.62117 0.01499
1171.33540 0.01523
1170.04963 0.01548
1168.76386 0.01568
1167.47809 0.01581
1166.19233 0.01588
1164.90656 0.01593
1163.62079 0.01598
1162.33502 0.01606
1161.04925 0.01619
1159.76348 0.01637
1158.47771 0.01661
1157.19194 0.01688
1155.90618 0.01715
1154.62041 0.01739
1153.33464 0.01762
1152.04887 0.01784
1150.76310 0.01808
1149.47733 0.01835
1148.19156 0.01866
1146.90579 0.01905
1145.62002 0.01951
1144.33426 0.02002
1143.04849 0.02059
1141.76272 0.02123
1140.47695 0.02195
1139.19118 0.02268
1137.90541 0.02338
1136.61964 0.02409
1135.33387 0.02495
1134.04811 0.02606
1132.76234 0.02741
1131.47657 0.02893
1130.19080 0.03055
1128.90503 0.03228
1127.61926 0.03412
1126.33349 0.03608
1125.04772 0.03816
1123.76195 0.04038
1122.47619 0.04273
1121.19042 0.04516
1119.90465 0.04765
1118.61888 0.05019
1117.33311 0.05278
1116.04734 0.05537
1114.76157 0.05789
1113.47580 0.06030
1112.19004 0.06259
1110.90427 0.06483
1109.61850 0.06708
1108.33273 0.06936
1107.04696 0.07157
1105.76119 0.07365
1104.47542 0.07556
1103.18965 0.07733
1101.90388 0.07902
1100.61812 0.08067
1099.33235 0.08231
1098.04658 0.08395
1096.76081 0.08556
1095.47504 0.08707
1094.18927 0.08844
1092.90350 0.08967
1091.61773 0.09078
1090.33197 0.09182
1089.04620 0.09284
1087.76043 0.09390
1086.47466 0.09503
1085.18889 0.09620
1083.90312 0.09736
1082.61735 0.09846
1081.33158 0.09957
1080.04581 0.10081
1078.76005 0.10225
1077.47428 0.10387
1076.18851 0.10556
1074.90274 0.10725
1073.61697 0.10898
1072.33120 0.11080
1071.04543 0.11272
1069.75966 0.11473
1068.47390 0.11676
1067.18813 0.11882
1065.90236 0.12091
1064.61659 0.12304
1063.33082 0.12519
1062.04505 0.12737
1060.75928 0.12961
1059.47351 0.13190
1058.18774 0.13417
1056.90198 0.13637
1055.61621 0.13848
1054.33044 0.14049
1053.04467 0.14242
1051.75890 0.14431
1050.47313 0.14625
1049.18736 0.14831
1047.90159 0.15053
1046.61583 0.15289
1045.33006 0.15533
1044.04429 0.15776
1042.75852 0.16012
1041.47275 0.16241
1040.18698 0.16471
1038.90121 0.16706
1037.61544 0.16946
1036.32967 0.17184
1035.04391 0.17415
1033.75814 0.17634
1032.47237 0.17839
1031.18660 0.18030
1029.90083 0.18204
1028.61506 0.18359
1027.32929 0.18493
1026.04352 0.18603
1024.75775 0.18694
1023.47199 0.18765
1022.18622 0.18814
1020.90045 0.18837
1019.61468 0.18833
1018.32891 0.18804
1017.04314 0.18754
1015.75737 0.18685
1014.47160 0.18592
1013.18584 0.18469
1011.90007 0.18312
1010.61430 0.18123
1009.32853 0.17908
1008.04276 0.17675
1006.75699 0.17421
1005.47122 0.17140
1004.18545 0.16831
1002.89968 0.16500
1001.61392 0.16153
1000.32815 0.15794
999.04238 0.15420
997.75661 0.15036
996.47084 0.14645
995.18507 0.14251
993.89930 0.13854
992.61353 0.13456
991.32777 0.13061
990.04200 0.12674
988.75623 0.12294
987.47046 0.11919
986.18469 0.11552
984.89892 0.11197
983.61315 0.10858
982.32738 0.10532
981.04161 0.10217
979.75585 0.09917
978.47008 0.09641
977.18431 0.09391
975.89854 0.09167
974.61277 0.08965
973.32700 0.08786
972.04123 0.08636
970.75546 0.08519
969.46970 0.08441
968.18393 0.08403
966.89816 0.08404
965.61239 0.08436
964.32662 0.08489
963.04085 0.08548
961.75508 0.08596
960.46931 0.08618
959.18354 0.08602
957.89778 0.08538
956.61201 0.08428
955.32624 0.08283
954.04047 0.08119
952.75470 0.07942
951.46893 0.07761
950.18316 0.07582
948.89739 0.07412
947.61163 0.07252
946.32586 0.07098
945.04009 0.06947
943.75432 0.06797
942.46855 0.06651
941.18278 0.06510
939.89701 0.06374
938.61124 0.06242
937.32547 0.06112
936.03971 0.05988
934.75394 0.05874
933.46817 0.05775
932.18240 0.05689
930.89663 0.05607
929.61086 0.05522
928.32509 0.05431
927.03932 0.05339
925.75356 0.05248
924.46779 0.05164
923.18202 0.05090
921.89625 0.05025
920.61048 0.04966
919.32471 0.04906
918.03894 0.04842
916.75317 0.04780
915.46740 0.04725
914.18164 0.04678
912.89587 0.04636
911.61010 0.04591
910.32433 0.04540
909.03856 0.04482
907.75279 0.04428
906.46702 0.04386
905.18125 0.04355
903.89549 0.04324
902.60972 0.04284
901.32395 0.04238
900.03818 0.04197
898.75241 0.04166
897.46664 0.04145
896.18087 0.04125
894.89510 0.04104
893.60933 0.04085
892.32357 0.04068
891.03780 0.04055
889.75203 0.04052
888.46626 0.04064
887.18049 0.04099
885.89472 0.04165
884.60895 0.04273
883.32318 0.04430
882.03742 0.04629
880.75165 0.04846
879.46588 0.05042
878.18011 0.05192
876.89434 0.05298
875.60857 0.05390
874.32280 0.05488
873.03703 0.05580
871.75126 0.05634
870.46550 0.05629
869.17973 0.05568
867.89396 0.05465
866.60819 0.05331
865.32242 0.05176
864.03665 0.05010
862.75088 0.04844
861.46511 0.04682
860.17935 0.04527
858.89358 0.04383
857.60781 0.04257
856.32204 0.04154
855.03627 0.04074
853.75050 0.04012
852.46473 0.03958
851.17896 0.03903
849.89319 0.03848
848.60743 0.03801
847.32166 0.03766
846.03589 0.03738
844.75012 0.03707
843.46435 0.03672
842.17858 0.03634
840.89281 0.03597
839.60704 0.03562
838.32128 0.03531
837.03551 0.03502
835.74974 0.03478
834.46397 0.03455
833.17820 0.03432
831.89243 0.03405
830.60666 0.03373
829.32089 0.03339
828.03512 0.03312
826.74936 0.03299
825.46359 0.03300
824.17782 0.03306
822.89205 0.03306
821.60628 0.03296
820.32051 0.03279
819.03474 0.03259
817.74897 0.03243
816.46321 0.03236
815.17744 0.03237
813.89167 0.03234
812.60590 0.03222
811.32013 0.03201
810.03436 0.03179
808.74859 0.03161
807.46282 0.03152
806.17705 0.03153
804.89129 0.03162
803.60552 0.03170
802.31975 0.03164
801.03398 0.03145
799.74821 0.03124
798.46244 0.03113
797.17667 0.03116
795.89090 0.03126
794.60513 0.03132
793.31937 0.03130
792.03360 0.03121
790.74783 0.03111
789.46206 0.03101
788.17629 0.03089
786.89052 0.03075
785.60475 0.03064
784.31898 0.03059
783.03322 0.03056
781.74745 0.03046
780.46168 0.03030
779.17591 0.03020
777.89014 0.03027
776.60437 0.03045
775.31860 0.03062
774.03283 0.03066
772.74706 0.03058
771.46130 0.03044
770.17553 0.03029
768.88976 0.03017
767.60399 0.03009
766.31822 0.03003
765.03245 0.02997
763.74668 0.02992
762.46091 0.02989
761.17515 0.02991
759.88938 0.03000
758.60361 0.03016
757.31784 0.03029
756.03207 0.03030
754.74630 0.03018
753.46053 0.03001
752.17476 0.02985
750.88899 0.02969
749.60323 0.02953
748.31746 0.02938
747.03169 0.02925
745.74592 0.02913
744.46015 0.02904
743.17438 0.02904
741.88861 0.02917
740.60284 0.02939
739.31708 0.02953
738.03131 0.02951
736.74554 0.02932
735.45977 0.02904
734.17400 0.02874
732.88823 0.02844
731.60246 0.02823
730.31669 0.02818
729.03092 0.02827
727.74516 0.02842
726.45939 0.02852
725.17362 0.02851
723.88785 0.02842
722.60208 0.02829
721.31631 0.02823
720.03054 0.02828
718.74477 0.02836
717.45901 0.02837
716.17324 0.02828
714.88747 0.02813
713.60170 0.02798
712.31593 0.02786
711.03016 0.02776
709.74439 0.02767
708.45862 0.02758
707.17285 0.02750
705.88709 0.02745
704.60132 0.02741
703.31555 0.02734
702.02978 0.02722
700.74401 0.02708
699.45824 0.02697
698.17247 0.02692
696.88670 0.02692
695.60094 0.02695
694.31517 0.02696
693.02940 0.02692
691.74363 0.02685
690.45786 0.02678
689.17209 0.02673
687.88632 0.02667
686.60055 0.02659
685.31478 0.02647
684.02902 0.02634
682.74325 0.02622
681.45748 0.02611
680.17171 0.02603
678.88594 0.02598
677.60017 0.02596
676.31440 0.02596
675.02863 0.02601
673.74287 0.02614
672.45710 0.02635
671.17133 0.02661
669.88556 0.02681
668.59979 0.02676
667.31402 0.02673
666.02825 0.02679
664.74248 0.02654
663.45671 0.02624
662.17095 0.02599
660.88518 0.02581
659.59941 0.02568
658.31364 0.02558
657.02787 0.02551
655.74210 0.02547
654.45633 0.02544
653.17056 0.02543
651.88480 0.02539
650.59903 0.02529
649.31326 0.02516
648.02749 0.02506
646.74172 0.02503
645.45595 0.02503
644.17018 0.02504
642.88441 0.02505
641.59864 0.02509
640.31288 0.02516
639.02711 0.02521
637.74134 0.02520
636.45557 0.02517
635.16980 0.02522
633.88403 0.02534
632.59826 0.02540
631.31249 0.02557
630.02673 0.02707
628.74096 0.02948
627.45519 0.02783
626.16942 0.03119
624.88365 0.03832
623.59788 0.04586
622.31211 0.05217
621.02634 0.05602
619.74057 0.05658
618.45481 0.05413
617.16904 0.05019
615.88327 0.04689
614.59750 0.04607
613.31173 0.04852
612.02596 0.05347
610.74019 0.05905
609.45442 0.06368
608.16866 0.06741
606.88289 0.07133
605.59712 0.07585
604.31135 0.08019
603.02558 0.08305
601.73981 0.08366
600.45404 0.08217
599.16827 0.07934
597.88250 0.07604
596.59674 0.07287
595.31097 0.07010
594.02520 0.06784
592.73943 0.06606
591.45366 0.06471
590.16789 0.06377
588.88212 0.06325
587.59635 0.06319
586.31059 0.06358
585.02482 0.06438
583.73905 0.06552
582.45328 0.06690
581.16751 0.06844
579.88174 0.07008
578.59597 0.07177
577.31020 0.07347
576.02443 0.07513
574.73867 0.07672
573.45290 0.07831
572.16713 0.08009
570.88136 0.08226
569.59559 0.08489
568.30982 0.08778
567.02405 0.09062
565.73828 0.09315
564.45251 0.09528
563.16675 0.09694
561.88098 0.09795
560.59521 0.09800
559.30944 0.09682
558.02367 0.09439
556.73790 0.09098
555.45213 0.08703
554.16636 0.08289
552.88060 0.07874
551.59483 0.07470
550.30906 0.07090
549.02329 0.06747
547.73752 0.06446
546.45175 0.06179
545.16598 0.05935
543.88021 0.05705
542.59444 0.05490
541.30868 0.05294
540.02291 0.05120
538.73714 0.04970
537.45137 0.04840
536.16560 0.04723
534.87983 0.04611
533.59406 0.04499
532.30829 0.04391
531.02253 0.04294
529.73676 0.04210
528.45099 0.04130
527.16522 0.04040
525.87945 0.03940
524.59368 0.03842
523.30791 0.03759
522.02214 0.03689
520.73637 0.03621
519.45061 0.03546
518.16484 0.03464
516.87907 0.03384
515.59330 0.03313
514.30753 0.03254
513.02176 0.03209
511.73599 0.03177
510.45022 0.03149
509.16446 0.03114
507.87869 0.03066
506.59292 0.03010
505.30715 0.02954
504.02138 0.02903
502.73561 0.02858
501.44984 0.02820
500.16407 0.02789
498.87830 0.02768
497.59254 0.02752
496.30677 0.02735
495.02100 0.02715
493.73523 0.02693
492.44946 0.02673
491.16369 0.02655
489.87792 0.02636
488.59215 0.02618
487.30639 0.02602
486.02062 0.02593
484.73485 0.02595
483.44908 0.02607
482.16331 0.02622
480.87754 0.02636
479.59177 0.02645
478.30600 0.02657
477.02023 0.02676
475.73447 0.02699
474.44870 0.02719
473.16293 0.02731
471.87716 0.02740
470.59139 0.02749
469.30562 0.02758
468.01985 0.02762
466.73408 0.02760
465.44832 0.02750
464.16255 0.02733
462.87678 0.02713
461.59101 0.02693
460.30524 0.02671
459.01947 0.02645
457.73370 0.02616
456.44793 0.02585
455.16216 0.02556
453.87640 0.02530
452.59063 0.02509
451.30486 0.02490
450.01909 0.02471
448.73332 0.02450
447.44755 0.02431
446.16178 0.02415
444.87601 0.02404
443.59025 0.02393
442.30448 0.02376
441.01871 0.02353
439.73294 0.02331
438.44717 0.02320
437.16140 0.02322
435.87563 0.02330
434.58986 0.02334
433.30409 0.02330
432.01833 0.02319
430.73256 0.02307
429.44679 0.02297
428.16102 0.02290
426.87525 0.02287
425.58948 0.02286
424.30371 0.02284
423.01794 0.02275
421.73218 0.02256
420.44641 0.02231
419.16064 0.02208
417.87487 0.02189
416.58910 0.02175
415.30333 0.02166
414.01756 0.02164
412.73179 0.02165
411.44602 0.02161
410.16026 0.02147
408.87449 0.02131
407.58872 0.02120
406.30295 0.02120
405.01718 0.02128
403.73141 0.02141
402.44564 0.02153
401.15987 0.02164
399.87411 0.02177
