3997.45528	0.05546
3996.16951	0.05585
3994.88374	0.05562
3993.59798	0.05478
3992.31221	0.05368
3991.02644	0.05278
3989.74067	0.05252
3988.45490	0.05289
3987.16913	0.05337
3985.88336	0.05341
3984.59759	0.05305
3983.31183	0.05281
3982.02606	0.05311
3980.74029	0.05385
3979.45452	0.05453
3978.16875	0.05472
3976.88298	0.05441
3975.59721	0.05393
3974.31144	0.05361
3973.02567	0.05356
3971.73991	0.05359
3970.45414	0.05340
3969.16837	0.05281
3967.88260	0.05202
3966.59683	0.05159
3965.31106	0.05187
3964.02529	0.05266
3962.73952	0.05339
3961.45376	0.05371
3960.16799	0.05368
3958.88222	0.05347
3957.59645	0.05321
3956.31068	0.05298
3955.02491	0.05294
3953.73914	0.05320
3952.45337	0.05369
3951.16760	0.05418
3949.88184	0.05444
3948.59607	0.05446
3947.31030	0.05440
3946.02453	0.05437
3944.73876	0.05442
3943.45299	0.05467
3942.16722	0.05524
3940.88145	0.05600
3939.59569	0.05654
3938.30992	0.05641
3937.02415	0.05544
3935.73838	0.05381
3934.45261	0.05205
3933.16684	0.05079
3931.88107	0.05039
3930.59530	0.05069
3929.30953	0.05130
3928.02377	0.05196
3926.73800	0.05266
3925.45223	0.05342
3924.16646	0.05421
3922.88069	0.05494
3921.59492	0.05550
3920.30915	0.05571
3919.02338	0.05539
3917.73762	0.05451
3916.45185	0.05343
3915.16608	0.05259
3913.88031	0.05221
3912.59454	0.05219
3911.30877	0.05233
3910.02300	0.05239
3908.73723	0.05221
3907.45146	0.05186
3906.16570	0.05155
3904.87993	0.05135
3903.59416	0.05109
3902.30839	0.05053
3901.02262	0.04976
3899.73685	0.04923
3898.45108	0.04931
3897.16531	0.04983
3895.87955	0.05030
3894.59378	0.05040
3893.30801	0.05034
3892.02224	0.05064
3890.73647	0.05159
3889.45070	0.05272
3888.16493	0.05325
3886.87916	0.05294
3885.59339	0.05224
3884.30763	0.05157
3883.02186	0.05097
3881.73609	0.05048
3880.45032	0.05036
3879.16455	0.05076
3877.87878	0.05148
3876.59301	0.05217
3875.30724	0.05262
3874.02148	0.05271
3872.73571	0.05239
3871.44994	0.05191
3870.16417	0.05177
3868.87840	0.05210
3867.59263	0.05226
3866.30686	0.05176
3865.02109	0.05097
3863.73532	0.05045
3862.44956	0.05022
3861.16379	0.05002
3859.87802	0.04978
3858.59225	0.04962
3857.30648	0.04952
3856.02071	0.04943
3854.73494	0.04954
3853.44917	0.05008
3852.16341	0.05069
3850.87764	0.05070
3849.59187	0.05001
3848.30610	0.04918
3847.02033	0.04873
3845.73456	0.04880
3844.44879	0.04925
3843.16302	0.04979
3841.87725	0.05011
3840.59149	0.05005
3839.30572	0.04979
3838.01995	0.04963
3836.73418	0.04964
3835.44841	0.04960
3834.16264	0.04950
3832.87687	0.04961
3831.59110	0.05009
3830.30534	0.05070
3829.01957	0.05110
3827.73380	0.05107
3826.44803	0.05067
3825.16226	0.05004
3823.87649	0.04924
3822.59072	0.04837
3821.30495	0.04763
3820.01918	0.04715
3818.73342	0.04681
3817.44765	0.04665
3816.16188	0.04706
3814.87611	0.04816
3813.59034	0.04934
3812.30457	0.04992
3811.01880	0.04975
3809.73303	0.04896
3808.44726	0.04795
3807.16150	0.04733
3805.87573	0.04746
3804.58996	0.04801
3803.30419	0.04840
3802.01842	0.04856
3800.73265	0.04872
3799.44688	0.04876
3798.16111	0.04846
3796.87535	0.04801
3795.58958	0.04778
3794.30381	0.04782
3793.01804	0.04799
3791.73227	0.04822
3790.44650	0.04843
3789.16073	0.04856
3787.87496	0.04852
3786.58919	0.04821
3785.30343	0.04763
3784.01766	0.04707
3782.73189	0.04692
3781.44612	0.04722
3780.16035	0.04763
3778.87458	0.04771
3777.58881	0.04729
3776.30304	0.04665
3775.01728	0.04631
3773.73151	0.04660
3772.44574	0.04740
3771.15997	0.04832
3769.87420	0.04896
3768.58843	0.04911
3767.30266	0.04884
3766.01689	0.04851
3764.73112	0.04834
3763.44536	0.04802
3762.15959	0.04710
3760.87382	0.04566
3759.58805	0.04432
3758.30228	0.04370
3757.01651	0.04399
3755.73074	0.04488
3754.44497	0.04586
3753.15921	0.04669
3751.87344	0.04736
3750.58767	0.04768
3749.30190	0.04749
3748.01613	0.04699
3746.73036	0.04656
3745.44459	0.04662
3744.15882	0.04737
3742.87305	0.04814
3741.58729	0.04797
3740.30152	0.04685
3739.01575	0.04561
3737.72998	0.04495
3736.44421	0.04519
3735.15844	0.04610
3733.87267	0.04676
3732.58690	0.04629
3731.30114	0.04467
3730.01537	0.04272
3728.72960	0.04145
3727.44383	0.04157
3726.15806	0.04307
3724.87229	0.04524
3723.58652	0.04714
3722.30075	0.04829
3721.01498	0.04870
3719.72922	0.04864
3718.44345	0.04844
3717.15768	0.04823
3715.87191	0.04800
3714.58614	0.04765
3713.30037	0.04727
3712.01460	0.04700
3710.72883	0.04673
3709.44307	0.04614
3708.15730	0.04516
3706.87153	0.04403
3705.58576	0.04304
3704.29999	0.04243
3703.01422	0.04235
3701.72845	0.04286
3700.44268	0.04372
3699.15691	0.04445
3697.87115	0.04477
3696.58538	0.04490
3695.29961	0.04528
3694.01384	0.04603
3692.72807	0.04691
3691.44230	0.04757
3690.15653	0.04789
3688.87076	0.04819
3687.58500	0.04876
3686.29923	0.04930
3685.01346	0.04927
3683.72769	0.04858
3682.44192	0.04774
3681.15615	0.04719
3679.87038	0.04692
3678.58461	0.04647
3677.29884	0.04555
3676.01308	0.04466
3674.72731	0.04465
3673.44154	0.04567
3672.15577	0.04707
3670.87000	0.04822
3669.58423	0.04869
3668.29846	0.04821
3667.01269	0.04708
3665.72693	0.04626
3664.44116	0.04643
3663.15539	0.04739
3661.86962	0.04837
3660.58385	0.04877
3659.29808	0.04852
3658.01231	0.04790
3656.72654	0.04733
3655.44077	0.04714
3654.15501	0.04726
3652.86924	0.04740
3651.58347	0.04752
3650.29770	0.04795
3649.01193	0.04898
3647.72616	0.05040
3646.44039	0.05151
3645.15462	0.05179
3643.86886	0.05137
3642.58309	0.05083
3641.29732	0.05064
3640.01155	0.05086
3638.72578	0.05144
3637.44001	0.05241
3636.15424	0.05357
3634.86847	0.05446
3633.58270	0.05472
3632.29694	0.05436
3631.01117	0.05369
3629.72540	0.05315
3628.43963	0.05302
3627.15386	0.05326
3625.86809	0.05372
3624.58232	0.05441
3623.29655	0.05532
3622.01079	0.05614
3620.72502	0.05666
3619.43925	0.05708
3618.15348	0.05767
3616.86771	0.05833
3615.58194	0.05879
3614.29617	0.05895
3613.01040	0.05897
3611.72463	0.05897
3610.43887	0.05907
3609.15310	0.05936
3607.86733	0.05977
3606.58156	0.06007
3605.29579	0.06011
3604.01002	0.06005
3602.72425	0.06005
3601.43848	0.06014
3600.15272	0.06036
3598.86695	0.06086
3597.58118	0.06164
3596.29541	0.06244
3595.00964	0.06290
3593.72387	0.06301
3592.43810	0.06307
3591.15233	0.06337
3589.86656	0.06392
3588.58080	0.06449
3587.29503	0.06485
3586.00926	0.06497
3584.72349	0.06503
3583.43772	0.06526
3582.15195	0.06586
3580.86618	0.06680
3579.58041	0.06772
3578.29464	0.06806
3577.00888	0.06756
3575.72311	0.06665
3574.43734	0.06605
3573.15157	0.06617
3571.86580	0.06675
3570.58003	0.06733
3569.29426	0.06779
3568.00849	0.06826
3566.72273	0.06875
3565.43696	0.06903
3564.15119	0.06897
3562.86542	0.06881
3561.57965	0.06896
3560.29388	0.06957
3559.00811	0.07049
3557.72234	0.07142
3556.43657	0.07207
3555.15081	0.07231
3553.86504	0.07225
3552.57927	0.07232
3551.29350	0.07291
3550.00773	0.07408
3548.72196	0.07553
3547.43619	0.07678
3546.15042	0.07754
3544.86466	0.07785
3543.57889	0.07796
3542.29312	0.07798
3541.00735	0.07782
3539.72158	0.07738
3538.43581	0.07679
3537.15004	0.07641
3535.86427	0.07646
3534.57850	0.07685
3533.29274	0.07723
3532.00697	0.07744
3530.72120	0.07751
3529.43543	0.07758
3528.14966	0.07765
3526.86389	0.07770
3525.57812	0.07788
3524.29235	0.07830
3523.00659	0.07880
3521.72082	0.07906
3520.43505	0.07902
3519.14928	0.07898
3517.86351	0.07926
3516.57774	0.07993
3515.29197	0.08082
3514.00620	0.08171
3512.72043	0.08242
3511.43467	0.08280
3510.14890	0.08281
3508.86313	0.08266
3507.57736	0.08257
3506.29159	0.08265
3505.00582	0.08287
3503.72005	0.08313
3502.43428	0.08327
3501.14852	0.08322
3499.86275	0.08320
3498.57698	0.08360
3497.29121	0.08454
3496.00544	0.08570
3494.71967	0.08662
3493.43390	0.08714
3492.14813	0.08735
3490.86236	0.08738
3489.57660	0.08725
3488.29083	0.08704
3487.00506	0.08695
3485.71929	0.08721
3484.43352	0.08781
3483.14775	0.08848
3481.86198	0.08895
3480.57621	0.08927
3479.29045	0.08964
3478.00468	0.09014
3476.71891	0.09054
3475.43314	0.09069
3474.14737	0.09072
3472.86160	0.09086
3471.57583	0.09105
3470.29006	0.09103
3469.00429	0.09078
3467.71853	0.09066
3466.43276	0.09093
3465.14699	0.09142
3463.86122	0.09172
3462.57545	0.09169
3461.28968	0.09165
3460.00391	0.09191
3458.71814	0.09241
3457.43238	0.09276
3456.14661	0.09276
3454.86084	0.09264
3453.57507	0.09278
3452.28930	0.09334
3451.00353	0.09412
3449.71776	0.09478
3448.43199	0.09506
3447.14622	0.09501
3445.86046	0.09490
3444.57469	0.09500
3443.28892	0.09531
3442.00315	0.09555
3440.71738	0.09541
3439.43161	0.09492
3438.14584	0.09446
3436.86007	0.09441
3435.57431	0.09490
3434.28854	0.09579
3433.00277	0.09677
3431.71700	0.09760
3430.43123	0.09811
3429.14546	0.09830
3427.85969	0.09830
3426.57392	0.09823
3425.28815	0.09814
3424.00239	0.09804
3422.71662	0.09793
3421.43085	0.09780
3420.14508	0.09769
3418.85931	0.09767
3417.57354	0.09781
3416.28777	0.09811
3415.00200	0.09858
3413.71624	0.09922
3412.43047	0.09994
3411.14470	0.10046
3409.85893	0.10053
3408.57316	0.10024
3407.28739	0.09997
3406.00162	0.09998
3404.71585	0.10028
3403.43008	0.10066
3402.14432	0.10090
3400.85855	0.10088
3399.57278	0.10072
3398.28701	0.10049
3397.00124	0.10023
3395.71547	0.10005
3394.42970	0.10006
3393.14393	0.10042
3391.85817	0.10107
3390.57240	0.10169
3389.28663	0.10188
3388.00086	0.10166
3386.71509	0.10143
3385.42932	0.10154
3384.14355	0.10187
3382.85778	0.10210
3381.57201	0.10214
3380.28625	0.10224
3379.00048	0.10259
3377.71471	0.10315
3376.42894	0.10369
3375.14317	0.10408
3373.85740	0.10426
3372.57163	0.10431
3371.28586	0.10433
3370.00010	0.10438
3368.71433	0.10449
3367.42856	0.10457
3366.14279	0.10454
3364.85702	0.10433
3363.57125	0.10396
3362.28548	0.10354
3360.99971	0.10316
3359.71394	0.10284
3358.42818	0.10254
3357.14241	0.10229
3355.85664	0.10233
3354.57087	0.10285
3353.28510	0.10371
3351.99933	0.10442
3350.71356	0.10449
3349.42779	0.10400
3348.14202	0.10337
3346.85626	0.10301
3345.57049	0.10291
3344.28472	0.10286
3342.99895	0.10270
3341.71318	0.10242
3340.42741	0.10213
3339.14164	0.10195
3337.85587	0.10190
3336.57011	0.10196
3335.28434	0.10210
3333.99857	0.10231
3332.71280	0.10252
3331.42703	0.10257
3330.14126	0.10236
3328.85549	0.10193
3327.56972	0.10156
3326.28395	0.10154
3324.99819	0.10185
3323.71242	0.10218
3322.42665	0.10224
3321.14088	0.10208
3319.85511	0.10201
3318.56934	0.10222
3317.28357	0.10258
3315.99780	0.10278
3314.71204	0.10267
3313.42627	0.10237
3312.14050	0.10208
3310.85473	0.10182
3309.56896	0.10150
3308.28319	0.10111
3306.99742	0.10079
3305.71165	0.10063
3304.42588	0.10062
3303.14012	0.10059
3301.85435	0.10048
3300.56858	0.10039
3299.28281	0.10061
3297.99704	0.10127
3296.71127	0.10211
3295.42550	0.10270
3294.13973	0.10284
3292.85397	0.10270
3291.56820	0.10252
3290.28243	0.10237
3288.99666	0.10216
3287.71089	0.10174
3286.42512	0.10103
3285.13935	0.10011
3283.85358	0.09924
3282.56781	0.09871
3281.28205	0.09868
3279.99628	0.09907
3278.71051	0.09968
3277.42474	0.10031
3276.13897	0.10085
3274.85320	0.10120
3273.56743	0.10122
3272.28166	0.10093
3270.99590	0.10056
3269.71013	0.10044
3268.42436	0.10067
3267.13859	0.10096
3265.85282	0.10100
3264.56705	0.10071
3263.28128	0.10032
3261.99551	0.10009
3260.70974	0.10009
3259.42398	0.10023
3258.13821	0.10038
3256.85244	0.10047
3255.56667	0.10046
3254.28090	0.10037
3252.99513	0.10019
3251.70936	0.09986
3250.42359	0.09941
3249.13783	0.09897
3247.85206	0.09863
3246.56629	0.09840
3245.28052	0.09824
3243.99475	0.09817
3242.70898	0.09822
3241.42321	0.09834
3240.13744	0.09838
3238.85167	0.09821
3237.56591	0.09784
3236.28014	0.09739
3234.99437	0.09703
3233.70860	0.09687
3232.42283	0.09691
3231.13706	0.09708
3229.85129	0.09725
3228.56552	0.09735
3227.27976	0.09746
3225.99399	0.09777
3224.70822	0.09823
3223.42245	0.09851
3222.13668	0.09829
3220.85091	0.09766
3219.56514	0.09708
3218.27937	0.09692
3216.99360	0.09714
3215.70784	0.09742
3214.42207	0.09754
3213.13630	0.09750
3211.85053	0.09740
3210.56476	0.09732
3209.27899	0.09734
3207.99322	0.09745
3206.70745	0.09759
3205.42169	0.09759
3204.13592	0.09736
3202.85015	0.09697
3201.56438	0.09655
3200.27861	0.09626
3198.99284	0.09617
3197.70707	0.09617
3196.42130	0.09604
3195.13553	0.09562
3193.84977	0.09506
3192.56400	0.09460
3191.27823	0.09435
3189.99246	0.09419
3188.70669	0.09399
3187.42092	0.09374
3186.13515	0.09353
3184.84938	0.09338
3183.56362	0.09329
3182.27785	0.09333
3180.99208	0.09351
3179.70631	0.09376
3178.42054	0.09387
3177.13477	0.09371
3175.84900	0.09333
3174.56323	0.09294
3173.27746	0.09260
3171.99170	0.09222
3170.70593	0.09166
3169.42016	0.09109
3168.13439	0.09082
3166.84862	0.09096
3165.56285	0.09127
3164.27708	0.09139
3162.99131	0.09122
3161.70555	0.09096
3160.41978	0.09086
3159.13401	0.09100
3157.84824	0.09129
3156.56247	0.09156
3155.27670	0.09161
3153.99093	0.09136
3152.70516	0.09085
3151.41939	0.09024
3150.13363	0.08969
3148.84786	0.08935
3147.56209	0.08927
3146.27632	0.08941
3144.99055	0.08960
3143.70478	0.08972
3142.41901	0.08978
3141.13324	0.08990
3139.84748	0.09010
3138.56171	0.09020
3137.27594	0.08992
3135.99017	0.08919
3134.70440	0.08831
3133.41863	0.08768
3132.13286	0.08747
3130.84709	0.08753
3129.56132	0.08760
3128.27556	0.08750
3126.98979	0.08719
3125.70402	0.08678
3124.41825	0.08650
3123.13248	0.08650
3121.84671	0.08667
3120.56094	0.08680
3119.27517	0.08680
3117.98940	0.08669
3116.70364	0.08653
3115.41787	0.08628
3114.13210	0.08594
3112.84633	0.08561
3111.56056	0.08548
3110.27479	0.08562
3108.98902	0.08587
3107.70325	0.08592
3106.41749	0.08569
3105.13172	0.08534
3103.84595	0.08512
3102.56018	0.08497
3101.27441	0.08465
3099.98864	0.08410
3098.70287	0.08355
3097.41710	0.08323
3096.13133	0.08316
3094.84557	0.08323
3093.55980	0.08342
3092.27403	0.08372
3090.98826	0.08401
3089.70249	0.08414
3088.41672	0.08405
3087.13095	0.08379
3085.84518	0.08340
3084.55942	0.08289
3083.27365	0.08229
3081.98788	0.08174
3080.70211	0.08145
3079.41634	0.08152
3078.13057	0.08178
3076.84480	0.08195
3075.55903	0.08187
3074.27326	0.08163
3072.98750	0.08135
3071.70173	0.08111
3070.41596	0.08096
3069.13019	0.08091
3067.84442	0.08093
3066.55865	0.08089
3065.27288	0.08064
3063.98711	0.08025
3062.70135	0.07991
3061.41558	0.07979
3060.12981	0.07986
3058.84404	0.07996
3057.55827	0.07996
3056.27250	0.07993
3054.98673	0.08000
3053.70096	0.08016
3052.41519	0.08027
3051.12943	0.08012
3049.84366	0.07963
3048.55789	0.07895
3047.27212	0.07834
3045.98635	0.07804
3044.70058	0.07806
3043.41481	0.07818
3042.12904	0.07816
3040.84328	0.07791
3039.55751	0.07756
3038.27174	0.07726
3036.98597	0.07703
3035.70020	0.07682
3034.41443	0.07663
3033.12866	0.07655
3031.84289	0.07665
3030.55712	0.07694
3029.27136	0.07731
3027.98559	0.07754
3026.69982	0.07747
3025.41405	0.07705
3024.12828	0.07641
3022.84251	0.07582
3021.55674	0.07549
3020.27097	0.07546
3018.98521	0.07557
3017.69944	0.07561
3016.41367	0.07545
3015.12790	0.07519
3013.84213	0.07501
3012.55636	0.07493
3011.27059	0.07485
3009.98482	0.07467
3008.69905	0.07438
3007.41329	0.07405
3006.12752	0.07374
3004.84175	0.07354
3003.55598	0.07347
3002.27021	0.07350
3000.98444	0.07357
2999.69867	0.07363
2998.41290	0.07342
2997.12714	0.07306
2995.84137	0.07278
2994.55560	0.07275
2993.26983	0.07300
2991.98406	0.07337
2990.69829	0.07366
2989.41252	0.07377
2988.12675	0.07375
2986.84098	0.07374
2985.55522	0.07386
2984.26945	0.07417
2982.98368	0.07463
2981.69791	0.07518
2980.41214	0.07577
2979.12637	0.07638
2977.84060	0.07706
2976.55483	0.07788
2975.26907	0.07885
2973.98330	0.07989
2972.69753	0.08086
2971.41176	0.08169
2970.12599	0.08243
2968.84022	0.08331
2967.55445	0.08450
2966.26868	0.08598
2964.98291	0.08757
2963.69715	0.08904
2962.41138	0.09031
2961.12561	0.09137
2959.83984	0.09228
2958.55407	0.09309
2957.26830	0.09380
2955.98253	0.09440
2954.69676	0.09485
2953.41100	0.09513
2952.12523	0.09527
2950.83946	0.09526
2949.55369	0.09513
2948.26792	0.09497
2946.98215	0.09491
2945.69638	0.09500
2944.41061	0.09518
2943.12484	0.09542
2941.83908	0.09569
2940.55331	0.09594
2939.26754	0.09613
2937.98177	0.09636
2936.69600	0.09685
2935.41023	0.09769
2934.12446	0.09875
2932.83869	0.09974
2931.55293	0.10050
2930.26716	0.10103
2928.98139	0.10150
2927.69562	0.10203
2926.40985	0.10264
2925.12408	0.10323
2923.83831	0.10361
2922.55254	0.10363
2921.26677	0.10316
2919.98101	0.10224
2918.69524	0.10105
2917.40947	0.09982
2916.12370	0.09868
2914.83793	0.09762
2913.55216	0.09656
2912.26639	0.09542
2910.98062	0.09421
2909.69486	0.09299
2908.40909	0.09189
2907.12332	0.09102
2905.83755	0.09037
2904.55178	0.08985
2903.26601	0.08938
2901.98024	0.08884
2900.69447	0.08817
2899.40870	0.08740
2898.12294	0.08662
2896.83717	0.08590
2895.55140	0.08523
2894.26563	0.08454
2892.97986	0.08380
2891.69409	0.08303
2890.40832	0.08228
2889.12255	0.08156
2887.83678	0.08092
2886.55102	0.08035
2885.26525	0.07983
2883.97948	0.07936
2882.69371	0.07905
2881.40794	0.07905
2880.12217	0.07942
2878.83640	0.07999
2877.55063	0.08055
2876.26487	0.08097
2874.97910	0.08125
2873.69333	0.08136
2872.40756	0.08131
2871.12179	0.08117
2869.83602	0.08108
2868.55025	0.08109
2867.26448	0.08116
2865.97871	0.08126
2864.69295	0.08139
2863.40718	0.08153
2862.12141	0.08161
2860.83564	0.08156
2859.54987	0.08139
2858.26410	0.08119
2856.97833	0.08101
2855.69256	0.08079
2854.40680	0.08041
2853.12103	0.07987
2851.83526	0.07922
2850.54949	0.07849
2849.26372	0.07762
2847.97795	0.07660
2846.69218	0.07547
2845.40641	0.07428
2844.12064	0.07314
2842.83488	0.07213
2841.54911	0.07124
2840.26334	0.07031
2838.97757	0.06921
2837.69180	0.06797
2836.40603	0.06676
2835.12026	0.06576
2833.83449	0.06500
2832.54873	0.06440
2831.26296	0.06386
2829.97719	0.06330
2828.69142	0.06270
2827.40565	0.06212
2826.11988	0.06162
2824.83411	0.06121
2823.54834	0.06086
2822.26257	0.06052
2820.97681	0.06019
2819.69104	0.05993
2818.40527	0.05976
2817.11950	0.05968
2815.83373	0.05961
2814.54796	0.05945
2813.26219	0.05918
2811.97642	0.05892
2810.69066	0.05878
2809.40489	0.05873
2808.11912	0.05855
2806.83335	0.05816
2805.54758	0.05768
2804.26181	0.05738
2802.97604	0.05732
2801.69027	0.05728
2800.40450	0.05702
2799.11874	0.05653
2797.83297	0.05600
2796.54720	0.05561
2795.26143	0.05542
2793.97566	0.05541
2792.68989	0.05555
2791.40412	0.05578
2790.11835	0.05596
2788.83259	0.05592
2787.54682	0.05568
2786.26105	0.05537
2784.97528	0.05515
2783.68951	0.05505
2782.40374	0.05497
2781.11797	0.05487
2779.83220	0.05478
2778.54643	0.05470
2777.26067	0.05459
2775.97490	0.05435
2774.68913	0.05400
2773.40336	0.05369
2772.11759	0.05354
2770.83182	0.05348
2769.54605	0.05331
2768.26028	0.05299
2766.97452	0.05267
2765.68875	0.05254
2764.40298	0.05259
2763.11721	0.05267
2761.83144	0.05268
2760.54567	0.05262
2759.25990	0.05249
2757.97413	0.05225
2756.68836	0.05193
2755.40260	0.05166
2754.11683	0.05158
2752.83106	0.05172
2751.54529	0.05194
2750.25952	0.05209
2748.97375	0.05209
2747.68798	0.05198
2746.40221	0.05184
2745.11645	0.05170
2743.83068	0.05154
2742.54491	0.05129
2741.25914	0.05095
2739.97337	0.05068
2738.68760	0.05060
2737.40183	0.05070
2736.11606	0.05078
2734.83029	0.05071
2733.54453	0.05048
2732.25876	0.05022
2730.97299	0.05002
2729.68722	0.04991
2728.40145	0.04992
2727.11568	0.05001
2725.82991	0.05008
2724.54414	0.04996
2723.25838	0.04964
2721.97261	0.04928
2720.68684	0.04909
2719.40107	0.04911
2718.11530	0.04924
2716.82953	0.04933
2715.54376	0.04934
2714.25799	0.04928
2712.97222	0.04918
2711.68646	0.04902
2710.40069	0.04877
2709.11492	0.04847
2707.82915	0.04823
2706.54338	0.04817
2705.25761	0.04825
2703.97184	0.04835
2702.68607	0.04833
2701.40031	0.04820
2700.11454	0.04808
2698.82877	0.04802
2697.54300	0.04794
2696.25723	0.04776
2694.97146	0.04758
2693.68569	0.04753
2692.39992	0.04756
2691.11415	0.04750
2689.82839	0.04729
2688.54262	0.04707
2687.25685	0.04698
2685.97108	0.04699
2684.68531	0.04699
2683.39954	0.04691
2682.11377	0.04683
2680.82800	0.04685
2679.54224	0.04696
2678.25647	0.04702
2676.97070	0.04695
2675.68493	0.04680
2674.39916	0.04668
2673.11339	0.04657
2671.82762	0.04640
2670.54185	0.04617
2669.25608	0.04597
2667.97032	0.04588
2666.68455	0.04587
2665.39878	0.04589
2664.11301	0.04581
2662.82724	0.04557
2661.54147	0.04520
2660.25570	0.04484
2658.96993	0.04459
2657.68417	0.04448
2656.39840	0.04444
2655.11263	0.04441
2653.82686	0.04432
2652.54109	0.04410
2651.25532	0.04370
2649.96955	0.04320
2648.68378	0.04282
2647.39801	0.04264
2646.11225	0.04261
2644.82648	0.04258
2643.54071	0.04254
2642.25494	0.04250
2640.96917	0.04243
2639.68340	0.04225
2638.39763	0.04200
2637.11186	0.04182
2635.82609	0.04171
2634.54033	0.04156
2633.25456	0.04128
2631.96879	0.04091
2630.68302	0.04062
2629.39725	0.04049
2628.11148	0.04053
2626.82571	0.04064
2625.53994	0.04070
2624.25418	0.04063
2622.96841	0.04040
2621.68264	0.04008
2620.39687	0.03974
2619.11110	0.03941
2617.82533	0.03909
2616.53956	0.03886
2615.25379	0.03881
2613.96802	0.03891
2612.68226	0.03903
2611.39649	0.03906
2610.11072	0.03900
2608.82495	0.03895
2607.53918	0.03894
2606.25341	0.03891
2604.96764	0.03872
2603.68187	0.03836
2602.39611	0.03803
2601.11034	0.03789
2599.82457	0.03782
2598.53880	0.03753
2597.25303	0.03698
2595.96726	0.03643
2594.68149	0.03621
2593.39572	0.03638
2592.10995	0.03678
2590.82419	0.03723
2589.53842	0.03757
2588.25265	0.03764
2586.96688	0.03739
2585.68111	0.03688
2584.39534	0.03627
2583.10957	0.03573
2581.82380	0.03540
2580.53804	0.03529
2579.25227	0.03533
2577.96650	0.03542
2576.68073	0.03557
2575.39496	0.03575
2574.10919	0.03588
2572.82342	0.03586
2571.53765	0.03569
2570.25188	0.03557
2568.96612	0.03565
2567.68035	0.03592
2566.39458	0.03614
2565.10881	0.03615
2563.82304	0.03595
2562.53727	0.03572
2561.25150	0.03557
2559.96573	0.03539
2558.67997	0.03506
2557.39420	0.03462
2556.10843	0.03431
2554.82266	0.03434
2553.53689	0.03463
2552.25112	0.03493
2550.96535	0.03501
2549.67958	0.03482
2548.39381	0.03441
2547.10805	0.03393
2545.82228	0.03352
2544.53651	0.03330
2543.25074	0.03326
2541.96497	0.03334
2540.67920	0.03349
2539.39343	0.03370
2538.10766	0.03393
2536.82190	0.03411
2535.53613	0.03414
2534.25036	0.03403
2532.96459	0.03384
2531.67882	0.03370
2530.39305	0.03374
2529.10728	0.03401
2527.82151	0.03437
2526.53574	0.03451
2525.24998	0.03421
2523.96421	0.03367
2522.67844	0.03329
2521.39267	0.03331
2520.10690	0.03364
2518.82113	0.03401
2517.53536	0.03419
2516.24959	0.03405
2514.96383	0.03366
2513.67806	0.03319
2512.39229	0.03284
2511.10652	0.03267
2509.82075	0.03259
2508.53498	0.03246
2507.24921	0.03216
2505.96344	0.03182
2504.67767	0.03171
2503.39191	0.03202
2502.10614	0.03261
2500.82037	0.03312
2499.53460	0.03327
2498.24883	0.03309
2496.96306	0.03282
2495.67729	0.03273
2494.39152	0.03286
2493.10576	0.03312
2491.81999	0.03334
2490.53422	0.03342
2489.24845	0.03331
2487.96268	0.03309
2486.67691	0.03285
2485.39114	0.03265
2484.10537	0.03241
2482.81960	0.03208
2481.53384	0.03172
2480.24807	0.03148
2478.96230	0.03146
2477.67653	0.03163
2476.39076	0.03188
2475.10499	0.03204
2473.81922	0.03202
2472.53345	0.03184
2471.24769	0.03171
2469.96192	0.03178
2468.67615	0.03196
2467.39038	0.03192
2466.10461	0.03153
2464.81884	0.03108
2463.53307	0.03094
2462.24730	0.03118
2460.96153	0.03155
2459.67577	0.03187
2458.39000	0.03216
2457.10423	0.03237
2455.81846	0.03230
2454.53269	0.03190
2453.24692	0.03138
2451.96115	0.03098
2450.67538	0.03075
2449.38962	0.03057
2448.10385	0.03046
2446.81808	0.03052
2445.53231	0.03077
2444.24654	0.03110
2442.96077	0.03136
2441.67500	0.03153
2440.38923	0.03165
2439.10346	0.03172
2437.81770	0.03168
2436.53193	0.03147
2435.24616	0.03112
2433.96039	0.03075
2432.67462	0.03055
2431.38885	0.03053
2430.10308	0.03056
2428.81731	0.03047
2427.53155	0.03025
2426.24578	0.03004
2424.96001	0.02996
2423.67424	0.02998
2422.38847	0.03002
2421.10270	0.03004
2419.81693	0.03014
2418.53116	0.03040
2417.24539	0.03075
2415.95963	0.03089
2414.67386	0.03067
2413.38809	0.03023
2412.10232	0.02991
2410.81655	0.02988
2409.53078	0.03006
2408.24501	0.03029
2406.95924	0.03050
2405.67347	0.03066
2404.38771	0.03071
2403.10194	0.03057
2401.81617	0.03027
2400.53040	0.02992
2399.24463	0.02943
2397.95886	0.02943
2396.67309	0.02958
2395.38732	0.02964
2394.10156	0.02964
2392.81579	0.02965
2391.53002	0.02969
2390.24425	0.02973
2388.95848	0.02968
2387.67271	0.02954
2386.38694	0.02938
2385.10117	0.02936
2383.81540	0.02954
2382.52964	0.02985
2381.24387	0.03013
2379.95810	0.03036
2378.67233	0.03066
2377.38656	0.03118
2376.10079	0.03188
2374.81502	0.03258
2373.52925	0.03312
2372.24349	0.03351
2370.95772	0.03389
2369.67195	0.03436
2368.38618	0.03495
2367.10041	0.03567
2365.81464	0.03639
2364.52887	0.03699
2363.24310	0.03737
2361.95733	0.03757
2360.67157	0.03769
2359.38580	0.03781
2358.10003	0.03798
2356.81426	0.03813
2355.52849	0.03816
2354.24272	0.03795
2352.95695	0.03747
2351.67118	0.03676
2350.38542	0.03596
2349.09965	0.03519
2347.81388	0.03461
2346.52811	0.03431
2345.24234	0.03430
2343.95657	0.03446
2342.67080	0.03465
2341.38503	0.03479
2340.09926	0.03489
2338.81350	0.03501
2337.52773	0.03517
2336.24196	0.03541
2334.95619	0.03574
2333.67042	0.03616
2332.38465	0.03660
2331.09888	0.03697
2329.81311	0.03721
2328.52735	0.03731
2327.24158	0.03723
2325.95581	0.03685
2324.67004	0.03608
2323.38427	0.03498
2322.09850	0.03380
2320.81273	0.03279
2319.52696	0.03202
2318.24119	0.03142
2316.95543	0.03085
2315.66966	0.03028
2314.38389	0.02975
2313.09812	0.02937
2311.81235	0.02923
2310.52658	0.02930
2309.24081	0.02937
2307.95504	0.02930
2306.66928	0.02909
2305.38351	0.02891
2304.09774	0.02884
2302.81197	0.02886
2301.52620	0.02886
2300.24043	0.02877
2298.95466	0.02857
2297.66889	0.02829
2296.38312	0.02797
2295.09736	0.02769
2293.81159	0.02749
2292.52582	0.02731
2291.24005	0.02709
2289.95428	0.02678
2288.66851	0.02633
2287.38274	0.02573
2286.09697	0.02508
2284.81121	0.02461
2283.52544	0.02446
2282.23967	0.02440
2280.95390	0.02407
2279.66813	0.02339
2278.38236	0.02274
2277.09659	0.02254
2275.81082	0.02290
2274.52505	0.02352
2273.23929	0.02404
2271.95352	0.02425
2270.66775	0.02415
2269.38198	0.02390
2268.09621	0.02358
2266.81044	0.02313
2265.52467	0.02239
2264.23890	0.02143
2262.95314	0.02063
2261.66737	0.02041
2260.38160	0.02086
2259.09583	0.02165
2257.81006	0.02234
2256.52429	0.02270
2255.23852	0.02277
2253.95275	0.02270
2252.66698	0.02253
2251.38122	0.02217
2250.09545	0.02128
2248.80968	0.01980
2247.52391	0.01963
2246.23814	0.02009
2244.95237	0.02080
2243.66660	0.02146
2242.38083	0.02205
2241.09507	0.02255
2239.80930	0.02272
2238.52353	0.02226
2237.23776	0.02122
2235.95199	0.02001
2234.66622	0.01908
2233.38045	0.01861
2232.09468	0.01854
2230.80891	0.01875
2229.52315	0.01909
2228.23738	0.01938
2226.95161	0.01935
2225.66584	0.01886
2224.38007	0.01802
2223.09430	0.01711
2221.80853	0.01646
2220.52276	0.01633
2219.23700	0.01680
2217.95123	0.01766
2216.66546	0.01845
2215.37969	0.01881
2214.09392	0.01874
2212.80815	0.01850
2211.52238	0.01827
2210.23661	0.01795
2208.95084	0.01730
2207.66508	0.01632
2206.37931	0.01540
2205.09354	0.01498
2203.80777	0.01510
2202.52200	0.01548
2201.23623	0.01605
2199.95046	0.01686
2198.66469	0.01770
2197.37893	0.01793
2196.09316	0.01714
2194.80739	0.01566
2193.52162	0.01439
2192.23585	0.01400
2190.95008	0.01446
2189.66431	0.01519
2188.37854	0.01557
2187.09277	0.01537
2185.80701	0.01480
2184.52124	0.01420
2183.23547	0.01370
2181.94970	0.01320
2180.66393	0.01257
2179.37816	0.01193
2178.09239	0.01153
2176.80662	0.01158
2175.52085	0.01199
2174.23509	0.01233
2172.94932	0.01208
2171.66355	0.01115
2170.37778	0.00998
2169.09201	0.00923
2167.80624	0.00937
2166.52047	0.01050
2165.23470	0.01219
2163.94894	0.01359
2162.66317	0.01388
2161.37740	0.01293
2160.09163	0.01138
2158.80586	0.00992
2157.52009	0.00884
2156.23432	0.00816
2154.94855	0.00798
2153.66278	0.00834
2152.37702	0.00900
2151.09125	0.00949
2149.80548	0.00951
2148.51971	0.00915
2147.23394	0.00890
2145.94817	0.00915
2144.66240	0.00994
2143.37663	0.01105
2142.09087	0.01225
2140.80510	0.01332
2139.51933	0.01408
2138.23356	0.01445
2136.94779	0.01447
2135.66202	0.01421
2134.37625	0.01376
2133.09048	0.01334
2131.80471	0.01323
2130.51895	0.01345
2129.23318	0.01387
2127.94741	0.01440
2126.66164	0.01512
2125.37587	0.01586
2124.09010	0.01620
2122.80433	0.01592
2121.51856	0.01545
2120.23280	0.01542
2118.94703	0.01600
2117.66126	0.01677
2116.37549	0.01722
2115.08972	0.01722
2113.80395	0.01696
2112.51818	0.01667
2111.23241	0.01646
2109.94664	0.01623
2108.66088	0.01583
2107.37511	0.01525
2106.08934	0.01473
2104.80357	0.01448
2103.51780	0.01451
2102.23203	0.01458
2100.94626	0.01448
2099.66049	0.01352
2098.37473	0.01265
2097.08896	0.01221
2095.80319	0.01224
2094.51742	0.01277
2093.23165	0.01363
2091.94588	0.01450
2090.66011	0.01507
2089.37434	0.01532
2088.08857	0.01539
2086.80281	0.01534
2085.51704	0.01509
2084.23127	0.01452
2082.94550	0.01380
2081.65973	0.01326
2080.37396	0.01306
2079.08819	0.01297
2077.80242	0.01264
2076.51666	0.01210
2075.23089	0.01173
2073.94512	0.01184
2072.65935	0.01226
2071.37358	0.01256
2070.08781	0.01246
2068.80204	0.01207
2067.51627	0.01170
2066.23050	0.01153
2064.94474	0.01154
2063.65897	0.01154
2062.37320	0.01139
2061.08743	0.01114
2059.80166	0.01096
2058.51589	0.01088
2057.23012	0.01071
2055.94435	0.01027
2054.65859	0.00970
2053.37282	0.00924
2052.08705	0.00891
2050.80128	0.00839
2049.51551	0.00734
2048.22974	0.00575
2046.94397	0.00403
2045.65820	0.00269
2044.37243	0.00202
2043.08667	0.00189
2041.80090	0.00202
2040.51513	0.00233
2039.22936	0.00284
2037.94359	0.00333
2036.65782	0.00334
2035.37205	0.00278
2034.08628	0.00218
2032.80052	0.00223
2031.51475	0.00312
2030.22898	0.00433
2028.94321	0.00525
2027.65744	0.00577
2026.37167	0.00621
2025.08590	0.00684
2023.80013	0.00735
2022.51436	0.00727
2021.22860	0.00664
2019.94283	0.00601
2018.65706	0.00585
2017.37129	0.00601
2016.08552	0.00598
2014.79975	0.00530
2013.51398	0.00399
2012.22821	0.00244
2010.94245	0.00117
2009.65668	0.00055
2008.37091	0.00073
2007.08514	0.00170
2005.79937	0.00324
2004.51360	0.00494
2003.22783	0.00639
2001.94206	0.00741
2000.65629	0.00803
1999.37053	0.00832
1998.08476	0.00837
1996.79899	0.00841
1995.51322	0.00867
1994.22745	0.00922
1992.94168	0.00980
1991.65591	0.01012
1990.37014	0.01003
1989.08438	0.00963
1987.79861	0.00913
1986.51284	0.00871
1985.22707	0.00848
1983.94130	0.00848
1982.65553	0.00863
1981.36976	0.00866
1980.08399	0.00824
1978.79822	0.00727
1977.51246	0.00597
1976.22669	0.00479
1974.94092	0.00419
1973.65515	0.00454
1972.36938	0.00584
1971.08361	0.00751
1969.79784	0.00864
1968.51207	0.00871
1967.22631	0.00802
1965.94054	0.00740
1964.65477	0.00753
1963.36900	0.00857
1962.08323	0.01009
1960.79746	0.01149
1959.51169	0.01233
1958.22592	0.01264
1956.94015	0.01266
1955.65439	0.01264
1954.36862	0.01276
1953.08285	0.01320
1951.79708	0.01395
1950.51131	0.01466
1949.22554	0.01491
1947.93977	0.01471
1946.65400	0.01452
1945.36823	0.01466
1944.08247	0.01495
1942.79670	0.01494
1941.51093	0.01445
1940.22516	0.01372
1938.93939	0.01314
1937.65362	0.01284
1936.36785	0.01272
1935.08208	0.01277
1933.79632	0.01314
1932.51055	0.01380
1931.22478	0.01445
1929.93901	0.01465
1928.65324	0.01433
1927.36747	0.01377
1926.08170	0.01334
1924.79593	0.01324
1923.51016	0.01342
1922.22440	0.01372
1920.93863	0.01397
1919.65286	0.01410
1918.36709	0.01417
1917.08132	0.01425
1915.79555	0.01436
1914.50978	0.01453
1913.22401	0.01477
1911.93825	0.01499
1910.65248	0.01505
1909.36671	0.01493
1908.08094	0.01479
1906.79517	0.01482
1905.50940	0.01505
1904.22363	0.01527
1902.93786	0.01521
1901.65209	0.01486
1900.36633	0.01454
1899.08056	0.01455
1897.79479	0.01482
1896.50902	0.01505
1895.22325	0.01506
1893.93748	0.01494
1892.65171	0.01487
1891.36594	0.01493
1890.08018	0.01514
1888.79441	0.01544
1887.50864	0.01572
1886.22287	0.01587
1884.93710	0.01587
1883.65133	0.01582
1882.36556	0.01576
1881.07979	0.01565
1879.79402	0.01541
1878.50826	0.01510
1877.22249	0.01483
1875.93672	0.01470
1874.65095	0.01474
1873.36518	0.01493
1872.07941	0.01520
1870.79364	0.01548
1869.50787	0.01570
1868.22211	0.01582
1866.93634	0.01578
1865.65057	0.01563
1864.36480	0.01553
1863.07903	0.01564
1861.79326	0.01588
1860.50749	0.01608
1859.22172	0.01613
1857.93595	0.01605
1856.65019	0.01598
1855.36442	0.01596
1854.07865	0.01597
1852.79288	0.01598
1851.50711	0.01598
1850.22134	0.01597
1848.93557	0.01596
1847.64980	0.01594
1846.36404	0.01590
1845.07827	0.01586
1843.79250	0.01588
1842.50673	0.01590
1841.22096	0.01586
1839.93519	0.01574
1838.64942	0.01564
1837.36365	0.01563
1836.07788	0.01572
1834.79212	0.01591
1833.50635	0.01616
1832.22058	0.01638
1830.93481	0.01653
1829.64904	0.01661
1828.36327	0.01659
1827.07750	0.01645
1825.79173	0.01625
1824.50597	0.01612
1823.22020	0.01607
1821.93443	0.01600
1820.64866	0.01587
1819.36289	0.01576
1818.07712	0.01582
1816.79135	0.01608
1815.50558	0.01643
1814.21981	0.01670
1812.93405	0.01683
1811.64828	0.01689
1810.36251	0.01700
1809.07674	0.01714
1807.79097	0.01727
1806.50520	0.01734
1805.21943	0.01738
1803.93366	0.01741
1802.64790	0.01738
1801.36213	0.01729
1800.07636	0.01720
1798.79059	0.01719
1797.50482	0.01726
1796.21905	0.01735
1794.93328	0.01735
1793.64751	0.01728
1792.36174	0.01727
1791.07598	0.01737
1789.79021	0.01752
1788.50444	0.01761
1787.21867	0.01762
1785.93290	0.01762
1784.64713	0.01768
1783.36136	0.01781
1782.07559	0.01798
1780.78983	0.01816
1779.50406	0.01834
1778.21829	0.01845
1776.93252	0.01847
1775.64675	0.01847
1774.36098	0.01851
1773.07521	0.01867
1771.78944	0.01895
1770.50367	0.01919
1769.21791	0.01926
1767.93214	0.01924
1766.64637	0.01931
1765.36060	0.01945
1764.07483	0.01952
1762.78906	0.01948
1761.50329	0.01943
1760.21752	0.01945
1758.93176	0.01952
1757.64599	0.01959
1756.36022	0.01967
1755.07445	0.01977
1753.78868	0.01985
1752.50291	0.01996
1751.21714	0.02016
1749.93137	0.02042
1748.64560	0.02060
1747.35984	0.02066
1746.07407	0.02068
1744.78830	0.02073
1743.50253	0.02081
1742.21676	0.02086
1740.93099	0.02092
1739.64522	0.02106
1738.35945	0.02131
1737.07369	0.02154
1735.78792	0.02163
1734.50215	0.02175
1733.21638	0.02209
1731.93061	0.02258
1730.64484	0.02298
1729.35907	0.02321
1728.07330	0.02339
1726.78753	0.02356
1725.50177	0.02377
1724.21600	0.02404
1722.93023	0.02435
1721.64446	0.02463
1720.35869	0.02480
1719.07292	0.02490
1717.78715	0.02514
1716.50138	0.02558
1715.21561	0.02614
1713.92985	0.02667
1712.64408	0.02713
1711.35831	0.02756
1710.07254	0.02794
1708.78677	0.02832
1707.50100	0.02872
1706.21523	0.02917
1704.92946	0.02965
1703.64370	0.03003
1702.35793	0.03025
1701.07216	0.03047
1699.78639	0.03099
1698.50062	0.03167
1697.21485	0.03216
1695.92908	0.03252
1694.64331	0.03300
1693.35754	0.03352
1692.07178	0.03384
1690.78601	0.03399
1689.50024	0.03415
1688.21447	0.03437
1686.92870	0.03454
1685.64293	0.03472
1684.35716	0.03510
1683.07139	0.03574
1681.78563	0.03636
1680.49986	0.03679
1679.21409	0.03711
1677.92832	0.03741
1676.64255	0.03771
1675.35678	0.03810
1674.07101	0.03859
1672.78524	0.03905
1671.49947	0.03939
1670.21371	0.03972
1668.92794	0.04017
1667.64217	0.04070
1666.35640	0.04116
1665.07063	0.04147
1663.78486	0.04174
1662.49909	0.04212
1661.21332	0.04260
1659.92756	0.04305
1658.64179	0.04341
1657.35602	0.04366
1656.07025	0.04379
1654.78448	0.04380
1653.49871	0.04398
1652.21294	0.04455
1650.92717	0.04528
1649.64140	0.04575
1648.35564	0.04587
1647.06987	0.04596
1645.78410	0.04622
1644.49833	0.04658
1643.21256	0.04688
1641.92679	0.04711
1640.64102	0.04733
1639.35525	0.04760
1638.06949	0.04785
1636.78372	0.04810
1635.49795	0.04848
1634.21218	0.04903
1632.92641	0.04958
1631.64064	0.05001
1630.35487	0.05037
1629.06910	0.05082
1627.78333	0.05139
1626.49757	0.05199
1625.21180	0.05253
1623.92603	0.05303
1622.64026	0.05357
1621.35449	0.05415
1620.06872	0.05469
1618.78295	0.05514
1617.49718	0.05568
1616.21142	0.05647
1614.92565	0.05742
1613.63988	0.05827
1612.35411	0.05896
1611.06834	0.05959
1609.78257	0.06024
1608.49680	0.06087
1607.21103	0.06143
1605.92526	0.06194
1604.63950	0.06246
1603.35373	0.06302
1602.06796	0.06361
1600.78219	0.06420
1599.49642	0.06475
1598.21065	0.06523
1596.92488	0.06568
1595.63911	0.06610
1594.35335	0.06654
1593.06758	0.06699
1591.78181	0.06742
1590.49604	0.06779
1589.21027	0.06814
1587.92450	0.06849
1586.63873	0.06886
1585.35296	0.06924
1584.06719	0.06958
1582.78143	0.06988
1581.49566	0.07019
1580.20989	0.07052
1578.92412	0.07085
1577.63835	0.07112
1576.35258	0.07146
1575.06681	0.07197
1573.78104	0.07252
1572.49528	0.07288
1571.20951	0.07310
1569.92374	0.07334
1568.63797	0.07370
1567.35220	0.07406
1566.06643	0.07432
1564.78066	0.07451
1563.49489	0.07469
1562.20912	0.07477
1560.92336	0.07472
1559.63759	0.07470
1558.35182	0.07491
1557.06605	0.07523
1555.78028	0.07540
1554.49451	0.07542
1553.20874	0.07543
1551.92297	0.07547
1550.63721	0.07545
1549.35144	0.07538
1548.06567	0.07529
1546.77990	0.07513
1545.49413	0.07489
1544.20836	0.07460
1542.92259	0.07426
1541.63682	0.07385
1540.35105	0.07346
1539.06529	0.07324
1537.77952	0.07316
1536.49375	0.07301
1535.20798	0.07270
1533.92221	0.07241
1532.63644	0.07232
1531.35067	0.07243
1530.06490	0.07263
1528.77914	0.07290
1527.49337	0.07329
1526.20760	0.07383
1524.92183	0.07449
1523.63606	0.07521
1522.35029	0.07596
1521.06452	0.07689
1519.77875	0.07806
1518.49298	0.07934
1517.20722	0.08068
1515.92145	0.08213
1514.63568	0.08367
1513.34991	0.08526
1512.06414	0.08688
1510.77837	0.08856
1509.49260	0.09020
1508.20683	0.09175
1506.92107	0.09335
1505.63530	0.09511
1504.34953	0.09689
1503.06376	0.09843
1501.77799	0.09967
1500.49222	0.10077
1499.20645	0.10185
1497.92068	0.10291
1496.63491	0.10398
1495.34915	0.10509
1494.06338	0.10621
1492.77761	0.10724
1491.49184	0.10818
1490.20607	0.10916
1488.92030	0.11027
1487.63453	0.11150
1486.34876	0.11283
1485.06299	0.11424
1483.77723	0.11567
1482.49146	0.11710
1481.20569	0.11854
1479.91992	0.11997
1478.63415	0.12136
1477.34838	0.12268
1476.06261	0.12390
1474.77684	0.12498
1473.49108	0.12596
1472.20531	0.12695
1470.91954	0.12797
1469.63377	0.12891
1468.34800	0.12966
1467.06223	0.13020
1465.77646	0.13065
1464.49069	0.13116
1463.20492	0.13180
1461.91916	0.13252
1460.63339	0.13324
1459.34762	0.13388
1458.06185	0.13451
1456.77608	0.13522
1455.49031	0.13602
1454.20454	0.13673
1452.91877	0.13730
1451.63301	0.13786
1450.34724	0.13848
1449.06147	0.13908
1447.77570	0.13959
1446.48993	0.13999
1445.20416	0.14030
1443.91839	0.14051
1442.63262	0.14067
1441.34685	0.14080
1440.06109	0.14095
1438.77532	0.14117
1437.48955	0.14160
1436.20378	0.14239
1434.91801	0.14356
1433.63224	0.14498
1432.34647	0.14656
1431.06070	0.14835
1429.77494	0.15038
1428.48917	0.15261
1427.20340	0.15493
1425.91763	0.15728
1424.63186	0.15962
1423.34609	0.16193
1422.06032	0.16410
1420.77455	0.16603
1419.48878	0.16775
1418.20302	0.16933
1416.91725	0.17068
1415.63148	0.17167
1414.34571	0.17226
1413.05994	0.17249
1411.77417	0.17238
1410.48840	0.17192
1409.20263	0.17112
1407.91687	0.16996
1406.63110	0.16846
1405.34533	0.16662
1404.05956	0.16447
1402.77379	0.16205
1401.48802	0.15937
1400.20225	0.15644
1398.91648	0.15329
1397.63071	0.14995
1396.34495	0.14644
1395.05918	0.14283
1393.77341	0.13923
1392.48764	0.13570
1391.20187	0.13224
1389.91610	0.12885
1388.63033	0.12552
1387.34456	0.12224
1386.05880	0.11898
1384.77303	0.11570
1383.48726	0.11244
1382.20149	0.10927
1380.91572	0.10622
1379.62995	0.10322
1378.34418	0.10016
1377.05841	0.09698
1375.77264	0.09365
1374.48688	0.09025
1373.20111	0.08686
1371.91534	0.08357
1370.62957	0.08043
1369.34380	0.07747
1368.05803	0.07475
1366.77226	0.07226
1365.48649	0.06994
1364.20073	0.06772
1362.91496	0.06561
1361.62919	0.06367
1360.34342	0.06193
1359.05765	0.06036
1357.77188	0.05890
1356.48611	0.05753
1355.20034	0.05622
1353.91457	0.05498
1352.62881	0.05377
1351.34304	0.05256
1350.05727	0.05136
1348.77150	0.05023
1347.48573	0.04920
1346.19996	0.04825
1344.91419	0.04735
1343.62842	0.04647
1342.34266	0.04563
1341.05689	0.04482
1339.77112	0.04406
1338.48535	0.04336
1337.19958	0.04272
1335.91381	0.04212
1334.62804	0.04153
1333.34227	0.04092
1332.05650	0.04030
1330.77074	0.03968
1329.48497	0.03912
1328.19920	0.03861
1326.91343	0.03816
1325.62766	0.03775
1324.34189	0.03738
1323.05612	0.03705
1321.77035	0.03675
1320.48459	0.03645
1319.19882	0.03613
1317.91305	0.03575
1316.62728	0.03534
1315.34151	0.03492
1314.05574	0.03455
1312.76997	0.03424
1311.48420	0.03399
1310.19843	0.03375
1308.91267	0.03352
1307.62690	0.03329
1306.34113	0.03306
1305.05536	0.03285
1303.76959	0.03264
1302.48382	0.03244
1301.19805	0.03223
1299.91228	0.03200
1298.62652	0.03175
1297.34075	0.03149
1296.05498	0.03123
1294.76921	0.03100
1293.48344	0.03084
1292.19767	0.03073
1290.91190	0.03063
1289.62613	0.03049
1288.34036	0.03030
1287.05460	0.03007
1285.76883	0.02981
1284.48306	0.02953
1283.19729	0.02927
1281.91152	0.02907
1280.62575	0.02894
1279.33998	0.02887
1278.05421	0.02879
1276.76845	0.02867
1275.48268	0.02851
1274.19691	0.02834
1272.91114	0.02819
1271.62537	0.02804
1270.33960	0.02790
1269.05383	0.02774
1267.76806	0.02757
1266.48229	0.02736
1265.19653	0.02713
1263.91076	0.02688
1262.62499	0.02664
1261.33922	0.02644
1260.05345	0.02630
1258.76768	0.02621
1257.48191	0.02615
1256.19614	0.02610
1254.91037	0.02604
1253.62461	0.02593
1252.33884	0.02579
1251.05307	0.02564
1249.76730	0.02552
1248.48153	0.02543
1247.19576	0.02534
1245.90999	0.02525
1244.62422	0.02514
1243.33846	0.02502
1242.05269	0.02489
1240.76692	0.02475
1239.48115	0.02462
1238.19538	0.02450
1236.90961	0.02440
1235.62384	0.02432
1234.33807	0.02427
1233.05230	0.02426
1231.76654	0.02426
1230.48077	0.02426
1229.19500	0.02422
1227.90923	0.02413
1226.62346	0.02400
1225.33769	0.02384
1224.05192	0.02368
1222.76615	0.02358
1221.48039	0.02353
1220.19462	0.02351
1218.90885	0.02348
1217.62308	0.02343
1216.33731	0.02337
1215.05154	0.02329
1213.76577	0.02321
1212.48000	0.02313
1211.19423	0.02308
1209.90847	0.02307
1208.62270	0.02307
1207.33693	0.02303
1206.05116	0.02295
1204.76539	0.02285
1203.47962	0.02276
1202.19385	0.02270
1200.90808	0.02270
1199.62232	0.02274
1198.33655	0.02276
1197.05078	0.02282
1195.76501	0.02287
1194.47924	0.02286
1193.19347	0.02280
1191.90770	0.02273
1190.62193	0.02270
1189.33616	0.02270
1188.05040	0.02274
1186.76463	0.02277
1185.47886	0.02282
1184.19309	0.02288
1182.90732	0.02295
1181.62155	0.02304
1180.33578	0.02313
1179.05001	0.02322
1177.76425	0.02332
1176.47848	0.02344
1175.19271	0.02361
1173.90694	0.02383
1172.62117	0.02407
1171.33540	0.02433
1170.04963	0.02461
1168.76386	0.02488
1167.47809	0.02512
1166.19233	0.02535
1164.90656	0.02560
1163.62079	0.02592
1162.33502	0.02630
1161.04925	0.02671
1159.76348	0.02712
1158.47771	0.02752
1157.19194	0.02792
1155.90618	0.02842
1154.62041	0.02906
1153.33464	0.02980
1152.04887	0.03054
1150.76310	0.03125
1149.47733	0.03199
1148.19156	0.03285
1146.90579	0.03384
1145.62002	0.03489
1144.33426	0.03597
1143.04849	0.03707
1141.76272	0.03830
1140.47695	0.03972
1139.19118	0.04131
1137.90541	0.04299
1136.61964	0.04473
1135.33387	0.04659
1134.04811	0.04871
1132.76234	0.05119
1131.47657	0.05400
1130.19080	0.05711
1128.90503	0.06050
1127.61926	0.06415
1126.33349	0.06800
1125.04772	0.07197
1123.76195	0.07602
1122.47619	0.08017
1121.19042	0.08448
1119.90465	0.08896
1118.61888	0.09358
1117.33311	0.09825
1116.04734	0.10294
1114.76157	0.10765
1113.47580	0.11233
1112.19004	0.11691
1110.90427	0.12136
1109.61850	0.12574
1108.33273	0.13010
1107.04696	0.13445
1105.76119	0.13877
1104.47542	0.14307
1103.18965	0.14737
1101.90388	0.15160
1100.61812	0.15565
1099.33235	0.15941
1098.04658	0.16294
1096.76081	0.16634
1095.47504	0.16970
1094.18927	0.17303
1092.90350	0.17629
1091.61773	0.17940
1090.33197	0.18233
1089.04620	0.18509
1087.76043	0.18780
1086.47466	0.19058
1085.18889	0.19353
1083.90312	0.19671
1082.61735	0.20005
1081.33158	0.20349
1080.04581	0.20698
1078.76005	0.21055
1077.47428	0.21426
1076.18851	0.21811
1074.90274	0.22208
1073.61697	0.22617
1072.33120	0.23039
1071.04543	0.23474
1069.75966	0.23919
1068.47390	0.24371
1067.18813	0.24828
1065.90236	0.25297
1064.61659	0.25780
1063.33082	0.26273
1062.04505	0.26768
1060.75928	0.27259
1059.47351	0.27746
1058.18774	0.28226
1056.90198	0.28691
1055.61621	0.29139
1054.33044	0.29577
1053.04467	0.30022
1051.75890	0.30484
1050.47313	0.30966
1049.18736	0.31461
1047.90159	0.31963
1046.61583	0.32473
1045.33006	0.32996
1044.04429	0.33536
1042.75852	0.34092
1041.47275	0.34650
1040.18698	0.35203
1038.90121	0.35750
1037.61544	0.36297
1036.32967	0.36854
1035.04391	0.37420
1033.75814	0.37989
1032.47237	0.38547
1031.18660	0.39076
1029.90083	0.39563
1028.61506	0.40003
1027.32929	0.40392
1026.04352	0.40735
1024.75775	0.41035
1023.47199	0.41298
1022.18622	0.41519
1020.90045	0.41684
1019.61468	0.41781
1018.32891	0.41800
1017.04314	0.41743
1015.75737	0.41607
1014.47160	0.41388
1013.18584	0.41080
1011.90007	0.40682
1010.61430	0.40196
1009.32853	0.39624
1008.04276	0.38968
1006.75699	0.38228
1005.47122	0.37407
1004.18545	0.36510
1002.89968	0.35545
1001.61392	0.34518
1000.32815	0.33435
999.04238	0.32307
997.75661	0.31146
996.47084	0.29965
995.18507	0.28773
993.89930	0.27576
992.61353	0.26382
991.32777	0.25203
990.04200	0.24056
988.75623	0.22952
987.47046	0.21891
986.18469	0.20874
984.89892	0.19907
983.61315	0.18999
982.32738	0.18155
981.04161	0.17378
979.75585	0.16666
978.47008	0.16018
977.18431	0.15430
975.89854	0.14908
974.61277	0.14464
973.32700	0.14105
972.04123	0.13831
970.75546	0.13642
969.46970	0.13537
968.18393	0.13516
966.89816	0.13569
965.61239	0.13674
964.32662	0.13797
963.04085	0.13900
961.75508	0.13951
960.46931	0.13929
959.18354	0.13828
957.89778	0.13651
956.61201	0.13403
955.32624	0.13092
954.04047	0.12734
952.75470	0.12350
951.46893	0.11964
950.18316	0.11589
948.89739	0.11228
947.61163	0.10875
946.32586	0.10522
945.04009	0.10167
943.75432	0.09811
942.46855	0.09462
941.18278	0.09133
939.89701	0.08833
938.61124	0.08563
937.32547	0.08319
936.03971	0.08095
934.75394	0.07888
933.46817	0.07696
932.18240	0.07517
930.89663	0.07350
929.61086	0.07197
928.32509	0.07060
927.03932	0.06938
925.75356	0.06823
924.46779	0.06707
923.18202	0.06588
921.89625	0.06471
920.61048	0.06365
919.32471	0.06274
918.03894	0.06194
916.75317	0.06121
915.46740	0.06052
914.18164	0.05987
912.89587	0.05930
911.61010	0.05877
910.32433	0.05830
909.03856	0.05791
907.75279	0.05756
906.46702	0.05719
905.18125	0.05669
903.89549	0.05610
902.60972	0.05555
901.32395	0.05516
900.03818	0.05491
898.75241	0.05472
897.46664	0.05450
896.18087	0.05426
894.89510	0.05406
893.60933	0.05396
892.32357	0.05401
891.03780	0.05424
889.75203	0.05471
888.46626	0.05546
887.18049	0.05665
885.89472	0.05851
884.60895	0.06133
883.32318	0.06522
882.03742	0.06986
880.75165	0.07455
879.46588	0.07857
878.18011	0.08174
876.89434	0.08446
875.60857	0.08726
874.32280	0.09015
873.03703	0.09254
871.75126	0.09368
870.46550	0.09323
869.17973	0.09137
867.89396	0.08848
866.60819	0.08491
865.32242	0.08096
864.03665	0.07690
862.75088	0.07302
861.46511	0.06947
860.17935	0.06630
858.89358	0.06350
857.60781	0.06117
856.32204	0.05936
855.03627	0.05805
853.75050	0.05709
852.46473	0.05630
851.17896	0.05557
849.89319	0.05487
848.60743	0.05424
847.32166	0.05368
846.03589	0.05314
844.75012	0.05257
843.46435	0.05200
842.17858	0.05152
840.89281	0.05117
839.60704	0.05087
838.32128	0.05055
837.03551	0.05021
835.74974	0.04990
834.46397	0.04962
833.17820	0.04931
831.89243	0.04900
830.60666	0.04871
829.32089	0.04846
828.03512	0.04820
826.74936	0.04796
825.46359	0.04783
824.17782	0.04787
822.89205	0.04799
821.60628	0.04809
820.32051	0.04811
819.03474	0.04806
817.74897	0.04799
816.46321	0.04789
815.17744	0.04782
813.89167	0.04776
812.60590	0.04771
811.32013	0.04764
810.03436	0.04758
808.74859	0.04760
807.46282	0.04767
806.17705	0.04771
804.89129	0.04766
803.60552	0.04758
802.31975	0.04756
801.03398	0.04756
799.74821	0.04755
798.46244	0.04751
797.17667	0.04748
795.89090	0.04749
794.60513	0.04750
793.31937	0.04743
792.03360	0.04725
790.74783	0.04703
789.46206	0.04687
788.17629	0.04681
786.89052	0.04684
785.60475	0.04687
784.31898	0.04683
783.03322	0.04673
781.74745	0.04664
780.46168	0.04661
779.17591	0.04660
777.89014	0.04655
776.60437	0.04643
775.31860	0.04634
774.03283	0.04635
772.74706	0.04647
771.46130	0.04662
770.17553	0.04672
768.88976	0.04676
767.60399	0.04678
766.31822	0.04683
765.03245	0.04686
763.74668	0.04687
762.46091	0.04690
761.17515	0.04703
759.88938	0.04726
758.60361	0.04750
757.31784	0.04765
756.03207	0.04769
754.74630	0.04765
753.46053	0.04752
752.17476	0.04729
750.88899	0.04699
749.60323	0.04671
748.31746	0.04658
747.03169	0.04661
745.74592	0.04673
744.46015	0.04677
743.17438	0.04666
741.88861	0.04647
740.60284	0.04631
739.31708	0.04626
738.03131	0.04628
736.74554	0.04628
735.45977	0.04625
734.17400	0.04623
732.88823	0.04623
731.60246	0.04625
730.31669	0.04626
729.03092	0.04624
727.74516	0.04619
726.45939	0.04614
725.17362	0.04615
723.88785	0.04630
722.60208	0.04614
721.31631	0.04580
720.03054	0.04554
718.74477	0.04545
717.45901	0.04549
716.17324	0.04558
714.88747	0.04571
713.60170	0.04586
712.31593	0.04600
711.03016	0.04608
709.74439	0.04606
708.45862	0.04595
707.17285	0.04582
705.88709	0.04570
704.60132	0.04558
703.31555	0.04545
702.02978	0.04530
700.74401	0.04516
699.45824	0.04505
698.17247	0.04497
696.88670	0.04489
695.60094	0.04481
694.31517	0.04475
693.02940	0.04471
691.74363	0.04467
690.45786	0.04461
689.17209	0.04453
687.88632	0.04448
686.60055	0.04448
685.31478	0.04449
684.02902	0.04449
682.74325	0.04444
681.45748	0.04436
680.17171	0.04430
678.88594	0.04429
677.60017	0.04432
676.31440	0.04438
675.02863	0.04447
673.74287	0.04461
672.45710	0.04481
671.17133	0.04503
669.88556	0.04524
668.59979	0.04541
667.31402	0.04548
666.02825	0.04538
664.74248	0.04511
663.45671	0.04475
662.17095	0.04441
660.88518	0.04411
659.59941	0.04384
658.31364	0.04356
657.02787	0.04330
655.74210	0.04308
654.45633	0.04293
653.17056	0.04283
651.88480	0.04276
650.59903	0.04270
649.31326	0.04265
648.02749	0.04261
646.74172	0.04260
645.45595	0.04265
644.17018	0.04277
642.88441	0.04293
641.59864	0.04312
640.31288	0.04335
639.02711	0.04366
637.74134	0.04407
636.45557	0.04459
635.16980	0.04522
633.88403	0.04595
632.59826	0.04678
631.31249	0.04769
630.02673	0.04833
628.74096	0.04832
627.45519	0.04898
626.16942	0.04851
624.88365	0.04772
623.59788	0.04812
622.31211	0.05068
621.02634	0.05568
619.74057	0.06257
618.45481	0.07029
617.16904	0.07780
615.88327	0.08438
614.59750	0.08983
613.31173	0.09437
612.02596	0.09855
610.74019	0.10322
609.45442	0.10917
608.16866	0.11642
606.88289	0.12397
605.59712	0.13055
604.31135	0.13534
603.02558	0.13809
601.73981	0.13882
600.45404	0.13771
599.16827	0.13509
597.88250	0.13155
596.59674	0.12777
595.31097	0.12430
594.02520	0.12138
592.73943	0.11903
591.45366	0.11731
590.16789	0.11635
588.88212	0.11625
587.59635	0.11696
586.31059	0.11833
585.02482	0.12021
583.73905	0.12260
582.45328	0.12555
581.16751	0.12898
579.88174	0.13270
578.59597	0.13646
577.31020	0.14016
576.02443	0.14377
574.73867	0.14728
573.45290	0.15060
572.16713	0.15376
570.88136	0.15701
569.59559	0.16082
568.30982	0.16557
567.02405	0.17123
565.73828	0.17728
564.45251	0.18292
563.16675	0.18726
561.88098	0.18957
560.59521	0.18938
559.30944	0.18651
558.02367	0.18114
556.73790	0.17374
555.45213	0.16498
554.16636	0.15561
552.88060	0.14623
551.59483	0.13729
550.30906	0.12906
549.02329	0.12169
547.73752	0.11515
546.45175	0.10931
545.16598	0.10402
543.88021	0.09917
542.59444	0.09473
541.30868	0.09068
540.02291	0.08699
538.73714	0.08365
537.45137	0.08062
536.16560	0.07789
534.87983	0.07545
533.59406	0.07332
532.30829	0.07142
531.02253	0.06962
529.73676	0.06780
528.45099	0.06595
527.16522	0.06412
525.87945	0.06238
524.59368	0.06075
523.30791	0.05924
522.02214	0.05785
520.73637	0.05654
519.45061	0.05530
518.16484	0.05414
516.87907	0.05308
515.59330	0.05210
514.30753	0.05117
513.02176	0.05029
511.73599	0.04946
510.45022	0.04873
509.16446	0.04808
507.87869	0.04747
506.59292	0.04683
505.30715	0.04611
504.02138	0.04534
502.73561	0.04463
501.44984	0.04405
500.16407	0.04359
498.87830	0.04319
497.59254	0.04279
496.30677	0.04241
495.02100	0.04206
493.73523	0.04176
492.44946	0.04147
491.16369	0.04118
489.87792	0.04091
488.59215	0.04073
487.30639	0.04071
486.02062	0.04082
484.73485	0.04097
483.44908	0.04105
482.16331	0.04108
480.87754	0.04112
479.59177	0.04124
478.30600	0.04144
477.02023	0.04169
475.73447	0.04193
474.44870	0.04217
473.16293	0.04243
471.87716	0.04266
470.59139	0.04280
469.30562	0.04279
468.01985	0.04265
466.73408	0.04239
465.44832	0.04202
464.16255	0.04152
462.87678	0.04095
461.59101	0.04040
460.30524	0.03993
459.01947	0.03951
457.73370	0.03906
456.44793	0.03855
455.16216	0.03804
453.87640	0.03762
452.59063	0.03736
451.30486	0.03720
450.01909	0.03707
448.73332	0.03692
447.44755	0.03676
446.16178	0.03661
444.87601	0.03647
443.59025	0.03635
442.30448	0.03624
441.01871	0.03615
439.73294	0.03605
438.44717	0.03594
437.16140	0.03584
435.87563	0.03576
434.58986	0.03569
433.30409	0.03561
432.01833	0.03550
430.73256	0.03540
429.44679	0.03530
428.16102	0.03522
426.87525	0.03513
425.58948	0.03504
424.30371	0.03492
423.01794	0.03479
421.73218	0.03464
420.44641	0.03449
419.16064	0.03440
417.87487	0.03440
416.58910	0.03442
415.30333	0.03443
414.01756	0.03442
412.73179	0.03445
411.44602	0.03450
410.16026	0.03454
408.87449	0.03456
407.58872	0.03460
406.30295	0.03464
405.01718	0.03469
403.73141	0.03473
402.44564	0.03481
401.15987	0.03494
399.87411	0.03511
