3997.45528	0.05601
3996.16951	0.05577
3994.88374	0.05567
3993.59798	0.05596
3992.31221	0.05677
3991.02644	0.05795
3989.74067	0.05896
3988.45490	0.05925
3987.16913	0.05878
3985.88336	0.05818
3984.59759	0.05820
3983.31183	0.05893
3982.02606	0.05978
3980.74029	0.06023
3979.45452	0.06028
3978.16875	0.06029
3976.88298	0.06056
3975.59721	0.06098
3974.31144	0.06109
3973.02567	0.06036
3971.73991	0.05876
3970.45414	0.05689
3969.16837	0.05548
3967.88260	0.05489
3966.59683	0.05501
3965.31106	0.05557
3964.02529	0.05629
3962.73952	0.05695
3961.45376	0.05742
3960.16799	0.05762
3958.88222	0.05763
3957.59645	0.05774
3956.31068	0.05829
3955.02491	0.05922
3953.73914	0.06014
3952.45337	0.06067
3951.16760	0.06064
3949.88184	0.06003
3948.59607	0.05879
3947.31030	0.05708
3946.02453	0.05540
3944.73876	0.05446
3943.45299	0.05465
3942.16722	0.05568
3940.88145	0.05680
3939.59569	0.05732
3938.30992	0.05702
3937.02415	0.05620
3935.73838	0.05539
3934.45261	0.05501
3933.16684	0.05524
3931.88107	0.05596
3930.59530	0.05685
3929.30953	0.05751
3928.02377	0.05775
3926.73800	0.05771
3925.45223	0.05762
3924.16646	0.05760
3922.88069	0.05773
3921.59492	0.05810
3920.30915	0.05869
3919.02338	0.05919
3917.73762	0.05920
3916.45185	0.05869
3915.16608	0.05797
3913.88031	0.05737
3912.59454	0.05705
3911.30877	0.05693
3910.02300	0.05682
3908.73723	0.05650
3907.45146	0.05597
3906.16570	0.05548
3904.87993	0.05533
3903.59416	0.05554
3902.30839	0.05578
3901.02262	0.05573
3899.73685	0.05540
3898.45108	0.05515
3897.16531	0.05533
3895.87955	0.05578
3894.59378	0.05595
3893.30801	0.05542
3892.02224	0.05422
3890.73647	0.05275
3889.45070	0.05153
3888.16493	0.05107
3886.87916	0.05161
3885.59339	0.05289
3884.30763	0.05420
3883.02186	0.05491
3881.73609	0.05495
3880.45032	0.05468
3879.16455	0.05445
3877.87878	0.05434
3876.59301	0.05434
3875.30724	0.05451
3874.02148	0.05493
3872.73571	0.05552
3871.44994	0.05596
3870.16417	0.05571
3868.87840	0.05450
3867.59263	0.05271
3866.30686	0.05128
3865.02109	0.05088
3863.73532	0.05138
3862.44956	0.05219
3861.16379	0.05294
3859.87802	0.05366
3858.59225	0.05444
3857.30648	0.05518
3856.02071	0.05562
3854.73494	0.05557
3853.44917	0.05511
3852.16341	0.05456
3850.87764	0.05424
3849.59187	0.05419
3848.30610	0.05422
3847.02033	0.05411
3845.73456	0.05374
3844.44879	0.05315
3843.16302	0.05260
3841.87725	0.05236
3840.59149	0.05248
3839.30572	0.05267
3838.01995	0.05253
3836.73418	0.05192
3835.44841	0.05114
3834.16264	0.05063
3832.87687	0.05062
3831.59110	0.05090
3830.30534	0.05120
3829.01957	0.05146
3827.73380	0.05178
3826.44803	0.05220
3825.16226	0.05262
3823.87649	0.05294
3822.59072	0.05300
3821.30495	0.05263
3820.01918	0.05182
3818.73342	0.05102
3817.44765	0.05091
3816.16188	0.05172
3814.87611	0.05298
3813.59034	0.05391
3812.30457	0.05410
3811.01880	0.05366
3809.73303	0.05298
3808.44726	0.05235
3807.16150	0.05195
3805.87573	0.05180
3804.58996	0.05190
3803.30419	0.05209
3802.01842	0.05213
3800.73265	0.05182
3799.44688	0.05120
3798.16111	0.05055
3796.87535	0.05016
3795.58958	0.05006
3794.30381	0.05005
3793.01804	0.04997
3791.73227	0.04985
3790.44650	0.04984
3789.16073	0.05000
3787.87496	0.05032
3786.58919	0.05066
3785.30343	0.05081
3784.01766	0.05051
3782.73189	0.04979
3781.44612	0.04908
3780.16035	0.04893
3778.87458	0.04951
3777.58881	0.05045
3776.30304	0.05122
3775.01728	0.05153
3773.73151	0.05139
3772.44574	0.05096
3771.15997	0.05046
3769.87420	0.05017
3768.58843	0.05027
3767.30266	0.05059
3766.01689	0.05064
3764.73112	0.05004
3763.44536	0.04901
3762.15959	0.04820
3760.87382	0.04802
3759.58805	0.04823
3758.30228	0.04836
3757.01651	0.04829
3755.73074	0.04829
3754.44497	0.04850
3753.15921	0.04876
3751.87344	0.04882
3750.58767	0.04868
3749.30190	0.04863
3748.01613	0.04881
3746.73036	0.04900
3745.44459	0.04882
3744.15882	0.04820
3742.87305	0.04753
3741.58729	0.04720
3740.30152	0.04715
3739.01575	0.04713
3737.72998	0.04715
3736.44421	0.04738
3735.15844	0.04791
3733.87267	0.04847
3732.58690	0.04884
3731.30114	0.04907
3730.01537	0.04943
3728.72960	0.05012
3727.44383	0.05093
3726.15806	0.05144
3724.87229	0.05138
3723.58652	0.05067
3722.30075	0.04949
3721.01498	0.04823
3719.72922	0.04742
3718.44345	0.04735
3717.15768	0.04777
3715.87191	0.04814
3714.58614	0.04828
3713.30037	0.04850
3712.01460	0.04911
3710.72883	0.04987
3709.44307	0.05024
3708.15730	0.05002
3706.87153	0.04934
3705.58576	0.04838
3704.29999	0.04723
3703.01422	0.04596
3701.72845	0.04478
3700.44268	0.04391
3699.15691	0.04338
3697.87115	0.04314
3696.58538	0.04322
3695.29961	0.04370
3694.01384	0.04463
3692.72807	0.04615
3691.44230	0.04800
3690.15653	0.04961
3688.87076	0.05049
3687.58500	0.05049
3686.29923	0.04974
3685.01346	0.04875
3683.72769	0.04787
3682.44192	0.04711
3681.15615	0.04646
3679.87038	0.04609
3678.58461	0.04638
3677.29884	0.04758
3676.01308	0.04930
3674.72731	0.05080
3673.44154	0.05157
3672.15577	0.05153
3670.87000	0.05091
3669.58423	0.04997
3668.29846	0.04898
3667.01269	0.04823
3665.72693	0.04784
3664.44116	0.04755
3663.15539	0.04705
3661.86962	0.04642
3660.58385	0.04615
3659.29808	0.04659
3658.01231	0.04762
3656.72654	0.04871
3655.44077	0.04939
3654.15501	0.04946
3652.86924	0.04910
3651.58347	0.04872
3650.29770	0.04877
3649.01193	0.04935
3647.72616	0.05015
3646.44039	0.05071
3645.15462	0.05091
3643.86886	0.05102
3642.58309	0.05127
3641.29732	0.05149
3640.01155	0.05130
3638.72578	0.05066
3637.44001	0.04997
3636.15424	0.04972
3634.86847	0.05003
3633.58270	0.05057
3632.29694	0.05100
3631.01117	0.05126
3629.72540	0.05161
3628.43963	0.05211
3627.15386	0.05251
3625.86809	0.05252
3624.58232	0.05227
3623.29655	0.05227
3622.01079	0.05296
3620.72502	0.05422
3619.43925	0.05556
3618.15348	0.05651
3616.86771	0.05688
3615.58194	0.05669
3614.29617	0.05606
3613.01040	0.05523
3611.72463	0.05453
3610.43887	0.05429
3609.15310	0.05455
3607.86733	0.05504
3606.58156	0.05543
3605.29579	0.05565
3604.01002	0.05590
3602.72425	0.05631
3601.43848	0.05679
3600.15272	0.05698
3598.86695	0.05663
3597.58118	0.05587
3596.29541	0.05532
3595.00964	0.05556
3593.72387	0.05670
3592.43810	0.05826
3591.15233	0.05959
3589.86656	0.06040
3588.58080	0.06084
3587.29503	0.06110
3586.00926	0.06119
3584.72349	0.06109
3583.43772	0.06092
3582.15195	0.06071
3580.86618	0.06034
3579.58041	0.05985
3578.29464	0.05955
3577.00888	0.05976
3575.72311	0.06050
3574.43734	0.06147
3573.15157	0.06229
3571.86580	0.06287
3570.58003	0.06327
3569.29426	0.06358
3568.00849	0.06395
3566.72273	0.06443
3565.43696	0.06496
3564.15119	0.06526
3562.86542	0.06517
3561.57965	0.06484
3560.29388	0.06453
3559.00811	0.06427
3557.72234	0.06391
3556.43657	0.06356
3555.15081	0.06360
3553.86504	0.06422
3552.57927	0.06512
3551.29350	0.06578
3550.00773	0.06612
3548.72196	0.06640
3547.43619	0.06682
3546.15042	0.06734
3544.86466	0.06789
3543.57889	0.06846
3542.29312	0.06895
3541.00735	0.06917
3539.72158	0.06915
3538.43581	0.06923
3537.15004	0.06965
3535.86427	0.07021
3534.57850	0.07053
3533.29274	0.07051
3532.00697	0.07040
3530.72120	0.07046
3529.43543	0.07067
3528.14966	0.07091
3526.86389	0.07117
3525.57812	0.07152
3524.29235	0.07186
3523.00659	0.07200
3521.72082	0.07183
3520.43505	0.07152
3519.14928	0.07140
3517.86351	0.07172
3516.57774	0.07246
3515.29197	0.07332
3514.00620	0.07399
3512.72043	0.07436
3511.43467	0.07447
3510.14890	0.07437
3508.86313	0.07406
3507.57736	0.07365
3506.29159	0.07329
3505.00582	0.07314
3503.72005	0.07331
3502.43428	0.07390
3501.14852	0.07478
3499.86275	0.07557
3498.57698	0.07591
3497.29121	0.07587
3496.00544	0.07577
3494.71967	0.07580
3493.43390	0.07581
3492.14813	0.07574
3490.86236	0.07588
3489.57660	0.07650
3488.29083	0.07744
3487.00506	0.07822
3485.71929	0.07851
3484.43352	0.07836
3483.14775	0.07807
3481.86198	0.07786
3480.57621	0.07785
3479.29045	0.07801
3478.00468	0.07824
3476.71891	0.07841
3475.43314	0.07852
3474.14737	0.07867
3472.86160	0.07884
3471.57583	0.07883
3470.29006	0.07856
3469.00429	0.07834
3467.71853	0.07859
3466.43276	0.07944
3465.14699	0.08049
3463.86122	0.08116
3462.57545	0.08123
3461.28968	0.08097
3460.00391	0.08079
3458.71814	0.08082
3457.43238	0.08079
3456.14661	0.08048
3454.86084	0.08007
3453.57507	0.07996
3452.28930	0.08034
3451.00353	0.08098
3449.71776	0.08156
3448.43199	0.08191
3447.14622	0.08199
3445.86046	0.08190
3444.57469	0.08185
3443.28892	0.08217
3442.00315	0.08292
3440.71738	0.08376
3439.43161	0.08408
3438.14584	0.08358
3436.86007	0.08257
3435.57431	0.08176
3434.28854	0.08166
3433.00277	0.08221
3431.71700	0.08289
3430.43123	0.08325
3429.14546	0.08329
3427.85969	0.08326
3426.57392	0.08336
3425.28815	0.08354
3424.00239	0.08370
3422.71662	0.08388
3421.43085	0.08423
3420.14508	0.08476
3418.85931	0.08526
3417.57354	0.08544
3416.28777	0.08520
3415.00200	0.08472
3413.71624	0.08433
3412.43047	0.08433
3411.14470	0.08475
3409.85893	0.08540
3408.57316	0.08609
3407.28739	0.08676
3406.00162	0.08736
3404.71585	0.08775
3403.43008	0.08772
3402.14432	0.08724
3400.85855	0.08653
3399.57278	0.08592
3398.28701	0.08564
3397.00124	0.08564
3395.71547	0.08574
3394.42970	0.08592
3393.14393	0.08631
3391.85817	0.08708
3390.57240	0.08818
3389.28663	0.08931
3388.00086	0.09006
3386.71509	0.09015
3385.42932	0.08960
3384.14355	0.08880
3382.85778	0.08826
3381.57201	0.08824
3380.28625	0.08856
3379.00048	0.08882
3377.71471	0.08879
3376.42894	0.08854
3375.14317	0.08833
3373.85740	0.08829
3372.57163	0.08836
3371.28586	0.08841
3370.00010	0.08833
3368.71433	0.08816
3367.42856	0.08806
3366.14279	0.08824
3364.85702	0.08878
3363.57125	0.08945
3362.28548	0.08986
3360.99971	0.08975
3359.71394	0.08926
3358.42818	0.08879
3357.14241	0.08858
3355.85664	0.08858
3354.57087	0.08860
3353.28510	0.08861
3351.99933	0.08867
3350.71356	0.08886
3349.42779	0.08913
3348.14202	0.08939
3346.85626	0.08957
3345.57049	0.08960
3344.28472	0.08949
3342.99895	0.08942
3341.71318	0.08966
3340.42741	0.09029
3339.14164	0.09094
3337.85587	0.09114
3336.57011	0.09070
3335.28434	0.08995
3333.99857	0.08935
3332.71280	0.08913
3331.42703	0.08912
3330.14126	0.08908
3328.85549	0.08894
3327.56972	0.08888
3326.28395	0.08906
3324.99819	0.08949
3323.71242	0.09003
3322.42665	0.09049
3321.14088	0.09073
3319.85511	0.09068
3318.56934	0.09035
3317.28357	0.08981
3315.99780	0.08922
3314.71204	0.08875
3313.42627	0.08851
3312.14050	0.08848
3310.85473	0.08860
3309.56896	0.08891
3308.28319	0.08941
3306.99742	0.08997
3305.71165	0.09041
3304.42588	0.09063
3303.14012	0.09061
3301.85435	0.09031
3300.56858	0.08980
3299.28281	0.08930
3297.99704	0.08906
3296.71127	0.08907
3295.42550	0.08910
3294.13973	0.08899
3292.85397	0.08885
3291.56820	0.08889
3290.28243	0.08913
3288.99666	0.08939
3287.71089	0.08947
3286.42512	0.08935
3285.13935	0.08902
3283.85358	0.08846
3282.56781	0.08773
3281.28205	0.08702
3279.99628	0.08654
3278.71051	0.08642
3277.42474	0.08658
3276.13897	0.08682
3274.85320	0.08699
3273.56743	0.08707
3272.28166	0.08725
3270.99590	0.08762
3269.71013	0.08807
3268.42436	0.08836
3267.13859	0.08832
3265.85282	0.08798
3264.56705	0.08754
3263.28128	0.08722
3261.99551	0.08707
3260.70974	0.08693
3259.42398	0.08666
3258.13821	0.08636
3256.85244	0.08629
3255.56667	0.08652
3254.28090	0.08681
3252.99513	0.08684
3251.70936	0.08653
3250.42359	0.08620
3249.13783	0.08619
3247.85206	0.08653
3246.56629	0.08683
3245.28052	0.08675
3243.99475	0.08630
3242.70898	0.08580
3241.42321	0.08559
3240.13744	0.08577
3238.85167	0.08616
3237.56591	0.08644
3236.28014	0.08637
3234.99437	0.08596
3233.70860	0.08547
3232.42283	0.08509
3231.13706	0.08484
3229.85129	0.08457
3228.56552	0.08414
3227.27976	0.08358
3225.99399	0.08306
3224.70822	0.08273
3223.42245	0.08269
3222.13668	0.08292
3220.85091	0.08328
3219.56514	0.08350
3218.27937	0.08340
3216.99360	0.08310
3215.70784	0.08295
3214.42207	0.08315
3213.13630	0.08350
3211.85053	0.08356
3210.56476	0.08317
3209.27899	0.08258
3207.99322	0.08217
3206.70745	0.08206
3205.42169	0.08204
3204.13592	0.08189
3202.85015	0.08166
3201.56438	0.08148
3200.27861	0.08136
3198.99284	0.08114
3197.70707	0.08075
3196.42130	0.08039
3195.13553	0.08033
3193.84977	0.08062
3192.56400	0.08117
3191.27823	0.08183
3189.99246	0.08244
3188.70669	0.08277
3187.42092	0.08260
3186.13515	0.08202
3184.84938	0.08142
3183.56362	0.08108
3182.27785	0.08097
3180.99208	0.08079
3179.70631	0.08036
3178.42054	0.07971
3177.13477	0.07905
3175.84900	0.07853
3174.56323	0.07821
3173.27746	0.07809
3171.99170	0.07808
3170.70593	0.07804
3169.42016	0.07794
3168.13439	0.07790
3166.84862	0.07805
3165.56285	0.07837
3164.27708	0.07868
3162.99131	0.07877
3161.70555	0.07865
3160.41978	0.07850
3159.13401	0.07845
3157.84824	0.07848
3156.56247	0.07856
3155.27670	0.07867
3153.99093	0.07869
3152.70516	0.07842
3151.41939	0.07774
3150.13363	0.07687
3148.84786	0.07619
3147.56209	0.07588
3146.27632	0.07584
3144.99055	0.07582
3143.70478	0.07566
3142.41901	0.07530
3141.13324	0.07481
3139.84748	0.07441
3138.56171	0.07430
3137.27594	0.07445
3135.99017	0.07460
3134.70440	0.07452
3133.41863	0.07430
3132.13286	0.07428
3130.84709	0.07471
3129.56132	0.07545
3128.27556	0.07602
3126.98979	0.07608
3125.70402	0.07558
3124.41825	0.07475
3123.13248	0.07387
3121.84671	0.07311
3120.56094	0.07258
3119.27517	0.07229
3117.98940	0.07217
3116.70364	0.07213
3115.41787	0.07216
3114.13210	0.07233
3112.84633	0.07266
3111.56056	0.07300
3110.27479	0.07318
3108.98902	0.07306
3107.70325	0.07266
3106.41749	0.07214
3105.13172	0.07175
3103.84595	0.07163
3102.56018	0.07171
3101.27441	0.07173
3099.98864	0.07160
3098.70287	0.07146
3097.41710	0.07147
3096.13133	0.07157
3094.84557	0.07161
3093.55980	0.07152
3092.27403	0.07146
3090.98826	0.07151
3089.70249	0.07160
3088.41672	0.07158
3087.13095	0.07140
3085.84518	0.07116
3084.55942	0.07100
3083.27365	0.07097
3081.98788	0.07106
3080.70211	0.07120
3079.41634	0.07136
3078.13057	0.07150
3076.84480	0.07163
3075.55903	0.07175
3074.27326	0.07184
3072.98750	0.07178
3071.70173	0.07148
3070.41596	0.07101
3069.13019	0.07057
3067.84442	0.07027
3066.55865	0.07009
3065.27288	0.07002
3063.98711	0.07006
3062.70135	0.07015
3061.41558	0.07015
3060.12981	0.07001
3058.84404	0.06979
3057.55827	0.06963
3056.27250	0.06960
3054.98673	0.06960
3053.70096	0.06944
3052.41519	0.06910
3051.12943	0.06880
3049.84366	0.06882
3048.55789	0.06915
3047.27212	0.06945
3045.98635	0.06942
3044.70058	0.06908
3043.41481	0.06865
3042.12904	0.06828
3040.84328	0.06800
3039.55751	0.06778
3038.27174	0.06771
3036.98597	0.06788
3035.70020	0.06821
3034.41443	0.06844
3033.12866	0.06835
3031.84289	0.06797
3030.55712	0.06754
3029.27136	0.06731
3027.98559	0.06728
3026.69982	0.06723
3025.41405	0.06697
3024.12828	0.06656
3022.84251	0.06620
3021.55674	0.06603
3020.27097	0.06597
3018.98521	0.06584
3017.69944	0.06551
3016.41367	0.06507
3015.12790	0.06472
3013.84213	0.06455
3012.55636	0.06454
3011.27059	0.06458
3009.98482	0.06461
3008.69905	0.06459
3007.41329	0.06451
3006.12752	0.06436
3004.84175	0.06416
3003.55598	0.06391
3002.27021	0.06361
3000.98444	0.06327
2999.69867	0.06291
2998.41290	0.06265
2997.12714	0.06252
2995.84137	0.06259
2994.55560	0.06281
2993.26983	0.06307
2991.98406	0.06333
2990.69829	0.06362
2989.41252	0.06398
2988.12675	0.06429
2986.84098	0.06443
2985.55522	0.06448
2984.26945	0.06466
2982.98368	0.06500
2981.69791	0.06533
2980.41214	0.06546
2979.12637	0.06546
2977.84060	0.06548
2976.55483	0.06565
2975.26907	0.06596
2973.98330	0.06637
2972.69753	0.06694
2971.41176	0.06769
2970.12599	0.06860
2968.84022	0.06951
2967.55445	0.07024
2966.26868	0.07079
2964.98291	0.07136
2963.69715	0.07212
2962.41138	0.07300
2961.12561	0.07377
2959.83984	0.07425
2958.55407	0.07451
2957.26830	0.07465
2955.98253	0.07468
2954.69676	0.07455
2953.41100	0.07431
2952.12523	0.07414
2950.83946	0.07413
2949.55369	0.07422
2948.26792	0.07436
2946.98215	0.07455
2945.69638	0.07480
2944.41061	0.07505
2943.12484	0.07526
2941.83908	0.07540
2940.55331	0.07552
2939.26754	0.07574
2937.98177	0.07626
2936.69600	0.07709
2935.41023	0.07794
2934.12446	0.07841
2932.83869	0.07843
2931.55293	0.07833
2930.26716	0.07850
2928.98139	0.07906
2927.69562	0.07976
2926.40985	0.08032
2925.12408	0.08062
2923.83831	0.08070
2922.55254	0.08061
2921.26677	0.08037
2919.98101	0.08004
2918.69524	0.07970
2917.40947	0.07935
2916.12370	0.07892
2914.83793	0.07841
2913.55216	0.07794
2912.26639	0.07754
2910.98062	0.07701
2909.69486	0.07612
2908.40909	0.07490
2907.12332	0.07368
2905.83755	0.07274
2904.55178	0.07220
2903.26601	0.07197
2901.98024	0.07186
2900.69447	0.07171
2899.40870	0.07142
2898.12294	0.07106
2896.83717	0.07071
2895.55140	0.07038
2894.26563	0.07005
2892.97986	0.06967
2891.69409	0.06925
2890.40832	0.06876
2889.12255	0.06820
2887.83678	0.06761
2886.55102	0.06708
2885.26525	0.06674
2883.97948	0.06660
2882.69371	0.06654
2881.40794	0.06641
2880.12217	0.06619
2878.83640	0.06609
2877.55063	0.06626
2876.26487	0.06669
2874.97910	0.06725
2873.69333	0.06776
2872.40756	0.06809
2871.12179	0.06811
2869.83602	0.06784
2868.55025	0.06748
2867.26448	0.06722
2865.97871	0.06712
2864.69295	0.06710
2863.40718	0.06701
2862.12141	0.06681
2860.83564	0.06658
2859.54987	0.06644
2858.26410	0.06639
2856.97833	0.06632
2855.69256	0.06611
2854.40680	0.06582
2853.12103	0.06551
2851.83526	0.06519
2850.54949	0.06487
2849.26372	0.06458
2847.97795	0.06438
2846.69218	0.06418
2845.40641	0.06384
2844.12064	0.06335
2842.83488	0.06275
2841.54911	0.06209
2840.26334	0.06133
2838.97757	0.06057
2837.69180	0.05995
2836.40603	0.05958
2835.12026	0.05939
2833.83449	0.05920
2832.54873	0.05888
2831.26296	0.05842
2829.97719	0.05792
2828.69142	0.05747
2827.40565	0.05712
2826.11988	0.05679
2824.83411	0.05636
2823.54834	0.05577
2822.26257	0.05513
2820.97681	0.05469
2819.69104	0.05456
2818.40527	0.05463
2817.11950	0.05464
2815.83373	0.05450
2814.54796	0.05428
2813.26219	0.05408
2811.97642	0.05393
2810.69066	0.05380
2809.40489	0.05369
2808.11912	0.05361
2806.83335	0.05351
2805.54758	0.05333
2804.26181	0.05309
2802.97604	0.05287
2801.69027	0.05273
2800.40450	0.05265
2799.11874	0.05259
2797.83297	0.05253
2796.54720	0.05246
2795.26143	0.05239
2793.97566	0.05230
2792.68989	0.05223
2791.40412	0.05213
2790.11835	0.05191
2788.83259	0.05160
2787.54682	0.05129
2786.26105	0.05111
2784.97528	0.05105
2783.68951	0.05108
2782.40374	0.05116
2781.11797	0.05128
2779.83220	0.05137
2778.54643	0.05135
2777.26067	0.05119
2775.97490	0.05097
2774.68913	0.05081
2773.40336	0.05078
2772.11759	0.05085
2770.83182	0.05095
2769.54605	0.05102
2768.26028	0.05100
2766.97452	0.05089
2765.68875	0.05070
2764.40298	0.05046
2763.11721	0.05022
2761.83144	0.04995
2760.54567	0.04966
2759.25990	0.04935
2757.97413	0.04910
2756.68836	0.04897
2755.40260	0.04898
2754.11683	0.04903
2752.83106	0.04903
2751.54529	0.04897
2750.25952	0.04897
2748.97375	0.04910
2747.68798	0.04926
2746.40221	0.04926
2745.11645	0.04904
2743.83068	0.04877
2742.54491	0.04868
2741.25914	0.04887
2739.97337	0.04923
2738.68760	0.04949
2737.40183	0.04939
2736.11606	0.04891
2734.83029	0.04826
2733.54453	0.04774
2732.25876	0.04749
2730.97299	0.04748
2729.68722	0.04764
2728.40145	0.04791
2727.11568	0.04817
2725.82991	0.04824
2724.54414	0.04802
2723.25838	0.04757
2721.97261	0.04710
2720.68684	0.04683
2719.40107	0.04682
2718.11530	0.04691
2716.82953	0.04688
2715.54376	0.04666
2714.25799	0.04638
2712.97222	0.04626
2711.68646	0.04634
2710.40069	0.04649
2709.11492	0.04655
2707.82915	0.04647
2706.54338	0.04631
2705.25761	0.04617
2703.97184	0.04608
2702.68607	0.04602
2701.40031	0.04592
2700.11454	0.04578
2698.82877	0.04563
2697.54300	0.04553
2696.25723	0.04552
2694.97146	0.04557
2693.68569	0.04567
2692.39992	0.04583
2691.11415	0.04601
2689.82839	0.04612
2688.54262	0.04606
2687.25685	0.04580
2685.97108	0.04542
2684.68531	0.04508
2683.39954	0.04493
2682.11377	0.04498
2680.82800	0.04511
2679.54224	0.04519
2678.25647	0.04520
2676.97070	0.04519
2675.68493	0.04520
2674.39916	0.04516
2673.11339	0.04499
2671.82762	0.04474
2670.54185	0.04453
2669.25608	0.04446
2667.97032	0.04450
2666.68455	0.04456
2665.39878	0.04465
2664.11301	0.04475
2662.82724	0.04484
2661.54147	0.04484
2660.25570	0.04474
2658.96993	0.04455
2657.68417	0.04434
2656.39840	0.04418
2655.11263	0.04412
2653.82686	0.04413
2652.54109	0.04409
2651.25532	0.04396
2649.96955	0.04376
2648.68378	0.04354
2647.39801	0.04333
2646.11225	0.04317
2644.82648	0.04309
2643.54071	0.04305
2642.25494	0.04298
2640.96917	0.04283
2639.68340	0.04263
2638.39763	0.04246
2637.11186	0.04236
2635.82609	0.04239
2634.54033	0.04254
2633.25456	0.04260
2631.96879	0.04237
2630.68302	0.04186
2629.39725	0.04135
2628.11148	0.04107
2626.82571	0.04094
2625.53994	0.04081
2624.25418	0.04065
2622.96841	0.04051
2621.68264	0.04034
2620.39687	0.04001
2619.11110	0.03955
2617.82533	0.03919
2616.53956	0.03907
2615.25379	0.03908
2613.96802	0.03905
2612.68226	0.03896
2611.39649	0.03894
2610.11072	0.03893
2608.82495	0.03878
2607.53918	0.03842
2606.25341	0.03794
2604.96764	0.03743
2603.68187	0.03693
2602.39611	0.03660
2601.11034	0.03656
2599.82457	0.03680
2598.53880	0.03716
2597.25303	0.03750
2595.96726	0.03773
2594.68149	0.03774
2593.39572	0.03756
2592.10995	0.03727
2590.82419	0.03701
2589.53842	0.03685
2588.25265	0.03685
2586.96688	0.03700
2585.68111	0.03712
2584.39534	0.03708
2583.10957	0.03690
2581.82380	0.03679
2580.53804	0.03685
2579.25227	0.03694
2577.96650	0.03678
2576.68073	0.03629
2575.39496	0.03576
2574.10919	0.03550
2572.82342	0.03547
2571.53765	0.03531
2570.25188	0.03484
2568.96612	0.03428
2567.68035	0.03401
2566.39458	0.03417
2565.10881	0.03464
2563.82304	0.03516
2562.53727	0.03550
2561.25150	0.03557
2559.96573	0.03541
2558.67997	0.03505
2557.39420	0.03457
2556.10843	0.03416
2554.82266	0.03412
2553.53689	0.03459
2552.25112	0.03537
2550.96535	0.03612
2549.67958	0.03658
2548.39381	0.03678
2547.10805	0.03683
2545.82228	0.03677
2544.53651	0.03650
2543.25074	0.03595
2541.96497	0.03519
2540.67920	0.03449
2539.39343	0.03418
2538.10766	0.03441
2536.82190	0.03492
2535.53613	0.03518
2534.25036	0.03490
2532.96459	0.03427
2531.67882	0.03378
2530.39305	0.03371
2529.10728	0.03398
2527.82151	0.03437
2526.53574	0.03468
2525.24998	0.03482
2523.96421	0.03476
2522.67844	0.03453
2521.39267	0.03427
2520.10690	0.03415
2518.82113	0.03421
2517.53536	0.03431
2516.24959	0.03423
2514.96383	0.03396
2513.67806	0.03360
2512.39229	0.03323
2511.10652	0.03288
2509.82075	0.03259
2508.53498	0.03249
2507.24921	0.03268
2505.96344	0.03314
2504.67767	0.03371
2503.39191	0.03418
2502.10614	0.03439
2500.82037	0.03433
2499.53460	0.03417
2498.24883	0.03410
2496.96306	0.03407
2495.67729	0.03389
2494.39152	0.03339
2493.10576	0.03274
2491.81999	0.03236
2490.53422	0.03253
2489.24845	0.03314
2487.96268	0.03374
2486.67691	0.03397
2485.39114	0.03380
2484.10537	0.03352
2482.81960	0.03342
2481.53384	0.03353
2480.24807	0.03356
2478.96230	0.03327
2477.67653	0.03278
2476.39076	0.03239
2475.10499	0.03227
2473.81922	0.03238
2472.53345	0.03266
2471.24769	0.03300
2469.96192	0.03319
2468.67615	0.03306
2467.39038	0.03275
2466.10461	0.03260
2464.81884	0.03277
2463.53307	0.03313
2462.24730	0.03343
2460.96153	0.03351
2459.67577	0.03331
2458.39000	0.03293
2457.10423	0.03261
2455.81846	0.03255
2454.53269	0.03263
2453.24692	0.03255
2451.96115	0.03218
2450.67538	0.03172
2449.38962	0.03147
2448.10385	0.03146
2446.81808	0.03148
2445.53231	0.03134
2444.24654	0.03116
2442.96077	0.03111
2441.67500	0.03121
2440.38923	0.03134
2439.10346	0.03145
2437.81770	0.03153
2436.53193	0.03161
2435.24616	0.03165
2433.96039	0.03165
2432.67462	0.03165
2431.38885	0.03172
2430.10308	0.03185
2428.81731	0.03196
2427.53155	0.03195
2426.24578	0.03186
2424.96001	0.03179
2423.67424	0.03180
2422.38847	0.03182
2421.10270	0.03176
2419.81693	0.03160
2418.53116	0.03140
2417.24539	0.03127
2415.95963	0.03121
2414.67386	0.03123
2413.38809	0.03127
2412.10232	0.03128
2410.81655	0.03117
2409.53078	0.03083
2408.24501	0.03033
2406.95924	0.02989
2405.67347	0.02979
2404.38771	0.03012
2403.10194	0.03074
2401.81617	0.03135
2400.53040	0.03172
2399.24463	0.03171
2397.95886	0.03131
2396.67309	0.03072
2395.38732	0.03022
2394.10156	0.02998
2392.81579	0.02994
2391.53002	0.02986
2390.24425	0.02967
2388.95848	0.02946
2387.67271	0.02943
2386.38694	0.02961
2385.10117	0.02993
2383.81540	0.03032
2382.52964	0.03066
2381.24387	0.03083
2379.95810	0.03064
2378.67233	0.03006
2377.38656	0.02925
2376.10079	0.02826
2374.81502	0.02727
2373.52925	0.02660
2372.24349	0.02623
2370.95772	0.02641
2369.67195	0.02647
2368.38618	0.02628
2367.10041	0.02612
2365.81464	0.02607
2364.52887	0.02542
2363.24310	0.02467
2361.95733	0.02440
2360.67157	0.02479
2359.38580	0.02496
2358.10003	0.02530
2356.81426	0.02588
2355.52849	0.02654
2354.24272	0.02736
2352.95695	0.02787
2351.67118	0.02851
2350.38542	0.02962
2349.09965	0.03016
2347.81388	0.02929
2346.52811	0.02828
2345.24234	0.02794
2343.95657	0.02810
2342.67080	0.02773
2341.38503	0.02730
2340.09926	0.02717
2338.81350	0.02680
2337.52773	0.02651
2336.24196	0.02627
2334.95619	0.02616
2333.67042	0.02644
2332.38465	0.02600
2331.09888	0.02615
2329.81311	0.02681
2328.52735	0.02654
2327.24158	0.02744
2325.95581	0.02889
2324.67004	0.02895
2323.38427	0.02911
2322.09850	0.02966
2320.81273	0.02895
2319.52696	0.02910
2318.24119	0.02984
2316.95543	0.02980
2315.66966	0.03007
2314.38389	0.03011
2313.09812	0.02970
2311.81235	0.02984
2310.52658	0.02972
2309.24081	0.02946
2307.95504	0.02910
2306.66928	0.02830
2305.38351	0.02792
2304.09774	0.02784
2302.81197	0.02782
2301.52620	0.02795
2300.24043	0.02809
2298.95466	0.02848
2297.66889	0.02890
2296.38312	0.02920
2295.09736	0.02930
2293.81159	0.02914
2292.52582	0.02885
2291.24005	0.02847
2289.95428	0.02812
2288.66851	0.02782
2287.38274	0.02766
2286.09697	0.02768
2284.81121	0.02785
2283.52544	0.02800
2282.23967	0.02799
2280.95390	0.02782
2279.66813	0.02764
2278.38236	0.02755
2277.09659	0.02748
2275.81082	0.02720
2274.52505	0.02665
2273.23929	0.02595
2271.95352	0.02537
2270.66775	0.02502
2269.38198	0.02485
2268.09621	0.02479
2266.81044	0.02482
2265.52467	0.02491
2264.23890	0.02492
2262.95314	0.02482
2261.66737	0.02471
2260.38160	0.02471
2259.09583	0.02488
2257.81006	0.02516
2256.52429	0.02542
2255.23852	0.02550
2253.95275	0.02533
2252.66698	0.02498
2251.38122	0.02463
2250.09545	0.02449
2248.80968	0.02454
2247.52391	0.02442
2246.23814	0.02383
2244.95237	0.02271
2243.66660	0.02152
2242.38083	0.02103
2241.09507	0.02152
2239.80930	0.02247
2238.52353	0.02303
2237.23776	0.02283
2235.95199	0.02217
2234.66622	0.02154
2233.38045	0.02122
2232.09468	0.02128
2230.80891	0.02157
2229.52315	0.02166
2228.23738	0.02120
2226.95161	0.02032
2225.66584	0.01951
2224.38007	0.01917
2223.09430	0.01924
2221.80853	0.01934
2220.52276	0.01906
2219.23700	0.01824
2217.95123	0.01707
2216.66546	0.01610
2215.37969	0.01585
2214.09392	0.01644
2212.80815	0.01754
2211.52238	0.01866
2210.23661	0.01934
2208.95084	0.01933
2207.66508	0.01877
2206.37931	0.01817
2205.09354	0.01796
2203.80777	0.01798
2202.52200	0.01769
2201.23623	0.01686
2199.95046	0.01592
2198.66469	0.01549
2197.37893	0.01566
2196.09316	0.01591
2194.80739	0.01561
2193.52162	0.01472
2192.23585	0.01394
2190.95008	0.01417
2189.66431	0.01563
2188.37854	0.01759
2187.09277	0.01894
2185.80701	0.01903
2184.52124	0.01816
2183.23547	0.01709
2181.94970	0.01639
2180.66393	0.01600
2179.37816	0.01560
2178.09239	0.01521
2176.80662	0.01526
2175.52085	0.01617
2174.23509	0.01776
2172.94932	0.01919
2171.66355	0.01944
2170.37778	0.01803
2169.09201	0.01539
2167.80624	0.01267
2166.52047	0.01116
2165.23470	0.01147
2163.94894	0.01297
2162.66317	0.01418
2161.37740	0.01390
2160.09163	0.01228
2158.80586	0.01057
2157.52009	0.00986
2156.23432	0.01017
2154.94855	0.01089
2153.66278	0.01170
2152.37702	0.01253
2151.09125	0.01318
2149.80548	0.01333
2148.51971	0.01299
2147.23394	0.01263
2145.94817	0.01269
2144.66240	0.01319
2143.37663	0.01378
2142.09087	0.01425
2140.80510	0.01453
2139.51933	0.01464
2138.23356	0.01460
2136.94779	0.01444
2135.66202	0.01416
2134.37625	0.01380
2133.09048	0.01357
2131.80471	0.01380
2130.51895	0.01457
2129.23318	0.01555
2127.94741	0.01633
2126.66164	0.01682
2125.37587	0.01719
2124.09010	0.01753
2122.80433	0.01771
2121.51856	0.01763
2120.23280	0.01743
2118.94703	0.01739
2117.66126	0.01761
2116.37549	0.01795
2115.08972	0.01828
2113.80395	0.01860
2112.51818	0.01898
2111.23241	0.01932
2109.94664	0.01936
2108.66088	0.01894
2107.37511	0.01822
2106.08934	0.01752
2104.80357	0.01701
2103.51780	0.01662
2102.23203	0.01626
2100.94626	0.01599
2099.66049	0.01649
2098.37473	0.01685
2097.08896	0.01697
2095.80319	0.01702
2094.51742	0.01702
2093.23165	0.01701
2091.94588	0.01704
2090.66011	0.01717
2089.37434	0.01734
2088.08857	0.01738
2086.80281	0.01717
2085.51704	0.01682
2084.23127	0.01662
2082.94550	0.01672
2081.65973	0.01689
2080.37396	0.01683
2079.08819	0.01644
2077.80242	0.01585
2076.51666	0.01517
2075.23089	0.01439
2073.94512	0.01365
2072.65935	0.01327
2071.37358	0.01358
2070.08781	0.01454
2068.80204	0.01565
2067.51627	0.01629
2066.23050	0.01619
2064.94474	0.01557
2063.65897	0.01479
2062.37320	0.01403
2061.08743	0.01334
2059.80166	0.01286
2058.51589	0.01273
2057.23012	0.01290
2055.94435	0.01312
2054.65859	0.01303
2053.37282	0.01251
2052.08705	0.01171
2050.80128	0.01092
2049.51551	0.01025
2048.22974	0.00962
2046.94397	0.00897
2045.65820	0.00847
2044.37243	0.00847
2043.08667	0.00905
2041.80090	0.00988
2040.51513	0.01049
2039.22936	0.01067
2037.94359	0.01052
2036.65782	0.01011
2035.37205	0.00948
2034.08628	0.00872
2032.80052	0.00817
2031.51475	0.00802
2030.22898	0.00805
2028.94321	0.00787
2027.65744	0.00743
2026.37167	0.00712
2025.08590	0.00733
2023.80013	0.00803
2022.51436	0.00883
2021.22860	0.00946
2019.94283	0.00985
2018.65706	0.01004
2017.37129	0.01005
2016.08552	0.00994
2014.79975	0.00978
2013.51398	0.00953
2012.22821	0.00916
2010.94245	0.00889
2009.65668	0.00912
2008.37091	0.00990
2007.08514	0.01077
2005.79937	0.01129
2004.51360	0.01146
2003.22783	0.01158
2001.94206	0.01179
2000.65629	0.01197
1999.37053	0.01196
1998.08476	0.01179
1996.79899	0.01157
1995.51322	0.01138
1994.22745	0.01122
1992.94168	0.01114
1991.65591	0.01119
1990.37014	0.01138
1989.08438	0.01160
1987.79861	0.01179
1986.51284	0.01201
1985.22707	0.01235
1983.94130	0.01275
1982.65553	0.01298
1981.36976	0.01294
1980.08399	0.01278
1978.79822	0.01271
1977.51246	0.01279
1976.22669	0.01288
1974.94092	0.01275
1973.65515	0.01234
1972.36938	0.01189
1971.08361	0.01184
1969.79784	0.01235
1968.51207	0.01304
1967.22631	0.01332
1965.94054	0.01291
1964.65477	0.01212
1963.36900	0.01148
1962.08323	0.01140
1960.79746	0.01203
1959.51169	0.01318
1958.22592	0.01429
1956.94015	0.01481
1955.65439	0.01465
1954.36862	0.01422
1953.08285	0.01396
1951.79708	0.01403
1950.51131	0.01431
1949.22554	0.01473
1947.93977	0.01525
1946.65400	0.01573
1945.36823	0.01592
1944.08247	0.01566
1942.79670	0.01516
1941.51093	0.01488
1940.22516	0.01505
1938.93939	0.01541
1937.65362	0.01553
1936.36785	0.01534
1935.08208	0.01526
1933.79632	0.01568
1932.51055	0.01647
1931.22478	0.01709
1929.93901	0.01719
1928.65324	0.01685
1927.36747	0.01642
1926.08170	0.01621
1924.79593	0.01629
1923.51016	0.01654
1922.22440	0.01675
1920.93863	0.01680
1919.65286	0.01679
1918.36709	0.01685
1917.08132	0.01703
1915.79555	0.01725
1914.50978	0.01738
1913.22401	0.01741
1911.93825	0.01740
1910.65248	0.01743
1909.36671	0.01749
1908.08094	0.01752
1906.79517	0.01747
1905.50940	0.01743
1904.22363	0.01751
1902.93786	0.01771
1901.65209	0.01793
1900.36633	0.01807
1899.08056	0.01815
1897.79479	0.01821
1896.50902	0.01823
1895.22325	0.01813
1893.93748	0.01791
1892.65171	0.01769
1891.36594	0.01762
1890.08018	0.01774
1888.79441	0.01797
1887.50864	0.01813
1886.22287	0.01813
1884.93710	0.01795
1883.65133	0.01771
1882.36556	0.01749
1881.07979	0.01730
1879.79402	0.01709
1878.50826	0.01694
1877.22249	0.01696
1875.93672	0.01717
1874.65095	0.01743
1873.36518	0.01764
1872.07941	0.01777
1870.79364	0.01786
1869.50787	0.01794
1868.22211	0.01804
1866.93634	0.01818
1865.65057	0.01837
1864.36480	0.01852
1863.07903	0.01850
1861.79326	0.01826
1860.50749	0.01790
1859.22172	0.01764
1857.93595	0.01764
1856.65019	0.01785
1855.36442	0.01811
1854.07865	0.01829
1852.79288	0.01836
1851.50711	0.01841
1850.22134	0.01850
1848.93557	0.01862
1847.64980	0.01871
1846.36404	0.01870
1845.07827	0.01851
1843.79250	0.01819
1842.50673	0.01792
1841.22096	0.01793
1839.93519	0.01825
1838.64942	0.01868
1837.36365	0.01895
1836.07788	0.01894
1834.79212	0.01874
1833.50635	0.01855
1832.22058	0.01849
1830.93481	0.01855
1829.64904	0.01865
1828.36327	0.01874
1827.07750	0.01884
1825.79173	0.01898
1824.50597	0.01913
1823.22020	0.01927
1821.93443	0.01934
1820.64866	0.01927
1819.36289	0.01903
1818.07712	0.01869
1816.79135	0.01837
1815.50558	0.01818
1814.21981	0.01815
1812.93405	0.01820
1811.64828	0.01827
1810.36251	0.01833
1809.07674	0.01838
1807.79097	0.01838
1806.50520	0.01834
1805.21943	0.01833
1803.93366	0.01840
1802.64790	0.01851
1801.36213	0.01860
1800.07636	0.01859
1798.79059	0.01848
1797.50482	0.01831
1796.21905	0.01816
1794.93328	0.01811
1793.64751	0.01821
1792.36174	0.01839
1791.07598	0.01856
1789.79021	0.01867
1788.50444	0.01874
1787.21867	0.01879
1785.93290	0.01885
1784.64713	0.01893
1783.36136	0.01901
1782.07559	0.01907
1780.78983	0.01906
1779.50406	0.01899
1778.21829	0.01893
1776.93252	0.01897
1775.64675	0.01915
1774.36098	0.01939
1773.07521	0.01956
1771.78944	0.01962
1770.50367	0.01958
1769.21791	0.01953
1767.93214	0.01948
1766.64637	0.01944
1765.36060	0.01940
1764.07483	0.01936
1762.78906	0.01932
1761.50329	0.01930
1760.21752	0.01929
1758.93176	0.01930
1757.64599	0.01935
1756.36022	0.01942
1755.07445	0.01954
1753.78868	0.01969
1752.50291	0.01985
1751.21714	0.01993
1749.93137	0.01993
1748.64560	0.01987
1747.35984	0.01981
1746.07407	0.01979
1744.78830	0.01980
1743.50253	0.01982
1742.21676	0.01984
1740.93099	0.01990
1739.64522	0.02001
1738.35945	0.02018
1737.07369	0.02041
1735.78792	0.02067
1734.50215	0.02087
1733.21638	0.02094
1731.93061	0.02089
1730.64484	0.02080
1729.35907	0.02075
1728.07330	0.02076
1726.78753	0.02079
1725.50177	0.02083
1724.21600	0.02088
1722.93023	0.02098
1721.64446	0.02119
1720.35869	0.02152
1719.07292	0.02192
1717.78715	0.02229
1716.50138	0.02259
1715.21561	0.02283
1713.92985	0.02307
1712.64408	0.02335
1711.35831	0.02371
1710.07254	0.02415
1708.78677	0.02466
1707.50100	0.02522
1706.21523	0.02580
1704.92946	0.02640
1703.64370	0.02705
1702.35793	0.02778
1701.07216	0.02855
1699.78639	0.02929
1698.50062	0.02997
1697.21485	0.03061
1695.92908	0.03122
1694.64331	0.03180
1693.35754	0.03236
1692.07178	0.03295
1690.78601	0.03363
1689.50024	0.03443
1688.21447	0.03533
1686.92870	0.03628
1685.64293	0.03721
1684.35716	0.03801
1683.07139	0.03860
1681.78563	0.03907
1680.49986	0.03959
1679.21409	0.04029
1677.92832	0.04119
1676.64255	0.04218
1675.35678	0.04311
1674.07101	0.04393
1672.78524	0.04466
1671.49947	0.04537
1670.21371	0.04607
1668.92794	0.04672
1667.64217	0.04734
1666.35640	0.04797
1665.07063	0.04867
1663.78486	0.04947
1662.49909	0.05029
1661.21332	0.05103
1659.92756	0.05160
1658.64179	0.05206
1657.35602	0.05255
1656.07025	0.05318
1654.78448	0.05390
1653.49871	0.05453
1652.21294	0.05490
1650.92717	0.05502
1649.64140	0.05504
1648.35564	0.05509
1647.06987	0.05520
1645.78410	0.05530
1644.49833	0.05537
1643.21256	0.05543
1641.92679	0.05549
1640.64102	0.05556
1639.35525	0.05562
1638.06949	0.05565
1636.78372	0.05560
1635.49795	0.05541
1634.21218	0.05506
1632.92641	0.05461
1631.64064	0.05418
1630.35487	0.05385
1629.06910	0.05358
1627.78333	0.05332
1626.49757	0.05305
1625.21180	0.05278
1623.92603	0.05253
1622.64026	0.05228
1621.35449	0.05203
1620.06872	0.05180
1618.78295	0.05160
1617.49718	0.05142
1616.21142	0.05120
1614.92565	0.05095
1613.63988	0.05073
1612.35411	0.05059
1611.06834	0.05054
1609.78257	0.05052
1608.49680	0.05052
1607.21103	0.05053
1605.92526	0.05056
1604.63950	0.05061
1603.35373	0.05070
1602.06796	0.05083
1600.78219	0.05096
1599.49642	0.05108
1598.21065	0.05118
1596.92488	0.05128
1595.63911	0.05143
1594.35335	0.05166
1593.06758	0.05196
1591.78181	0.05229
1590.49604	0.05262
1589.21027	0.05291
1587.92450	0.05316
1586.63873	0.05339
1585.35296	0.05365
1584.06719	0.05400
1582.78143	0.05445
1581.49566	0.05498
1580.20989	0.05554
1578.92412	0.05606
1577.63835	0.05653
1576.35258	0.05692
1575.06681	0.05724
1573.78104	0.05756
1572.49528	0.05794
1571.20951	0.05838
1569.92374	0.05885
1568.63797	0.05924
1567.35220	0.05955
1566.06643	0.05980
1564.78066	0.06006
1563.49489	0.06039
1562.20912	0.06079
1560.92336	0.06121
1559.63759	0.06156
1558.35182	0.06175
1557.06605	0.06180
1555.78028	0.06179
1554.49451	0.06178
1553.20874	0.06182
1551.92297	0.06189
1550.63721	0.06196
1549.35144	0.06197
1548.06567	0.06189
1546.77990	0.06176
1545.49413	0.06164
1544.20836	0.06155
1542.92259	0.06147
1541.63682	0.06133
1540.35105	0.06106
1539.06529	0.06065
1537.77952	0.06018
1536.49375	0.05976
1535.20798	0.05947
1533.92221	0.05927
1532.63644	0.05908
1531.35067	0.05892
1530.06490	0.05884
1528.77914	0.05891
1527.49337	0.05909
1526.20760	0.05933
1524.92183	0.05961
1523.63606	0.05997
1522.35029	0.06042
1521.06452	0.06090
1519.77875	0.06138
1518.49298	0.06188
1517.20722	0.06243
1515.92145	0.06307
1514.63568	0.06380
1513.34991	0.06461
1512.06414	0.06553
1510.77837	0.06653
1509.49260	0.06761
1508.20683	0.06871
1506.92107	0.06976
1505.63530	0.07072
1504.34953	0.07158
1503.06376	0.07236
1501.77799	0.07311
1500.49222	0.07387
1499.20645	0.07465
1497.92068	0.07541
1496.63491	0.07610
1495.34915	0.07667
1494.06338	0.07715
1492.77761	0.07762
1491.49184	0.07813
1490.20607	0.07873
1488.92030	0.07943
1487.63453	0.08023
1486.34876	0.08114
1485.06299	0.08211
1483.77723	0.08313
1482.49146	0.08419
1481.20569	0.08530
1479.91992	0.08646
1478.63415	0.08767
1477.34838	0.08893
1476.06261	0.09024
1474.77684	0.09155
1473.49108	0.09276
1472.20531	0.09380
1470.91954	0.09465
1469.63377	0.09539
1468.34800	0.09609
1467.06223	0.09679
1465.77646	0.09746
1464.49069	0.09809
1463.20492	0.09870
1461.91916	0.09938
1460.63339	0.10023
1459.34762	0.10126
1458.06185	0.10236
1456.77608	0.10337
1455.49031	0.10420
1454.20454	0.10484
1452.91877	0.10539
1451.63301	0.10587
1450.34724	0.10625
1449.06147	0.10651
1447.77570	0.10665
1446.48993	0.10667
1445.20416	0.10656
1443.91839	0.10629
1442.63262	0.10586
1441.34685	0.10532
1440.06109	0.10477
1438.77532	0.10431
1437.48955	0.10399
1436.20378	0.10381
1434.91801	0.10374
1433.63224	0.10381
1432.34647	0.10407
1431.06070	0.10458
1429.77494	0.10533
1428.48917	0.10630
1427.20340	0.10747
1425.91763	0.10881
1424.63186	0.11026
1423.34609	0.11174
1422.06032	0.11319
1420.77455	0.11457
1419.48878	0.11582
1418.20302	0.11689
1416.91725	0.11777
1415.63148	0.11848
1414.34571	0.11904
1413.05994	0.11943
1411.77417	0.11963
1410.48840	0.11958
1409.20263	0.11925
1407.91687	0.11865
1406.63110	0.11783
1405.34533	0.11678
1404.05956	0.11551
1402.77379	0.11403
1401.48802	0.11238
1400.20225	0.11062
1398.91648	0.10875
1397.63071	0.10673
1396.34495	0.10453
1395.05918	0.10221
1393.77341	0.09986
1392.48764	0.09757
1391.20187	0.09537
1389.91610	0.09327
1388.63033	0.09123
1387.34456	0.08923
1386.05880	0.08727
1384.77303	0.08536
1383.48726	0.08348
1382.20149	0.08160
1380.91572	0.07972
1379.62995	0.07785
1378.34418	0.07600
1377.05841	0.07414
1375.77264	0.07222
1374.48688	0.07020
1373.20111	0.06813
1371.91534	0.06608
1370.62957	0.06411
1369.34380	0.06224
1368.05803	0.06047
1366.77226	0.05881
1365.48649	0.05728
1364.20073	0.05586
1362.91496	0.05452
1361.62919	0.05320
1360.34342	0.05190
1359.05765	0.05065
1357.77188	0.04949
1356.48611	0.04846
1355.20034	0.04755
1353.91457	0.04671
1352.62881	0.04593
1351.34304	0.04520
1350.05727	0.04451
1348.77150	0.04385
1347.48573	0.04324
1346.19996	0.04269
1344.91419	0.04217
1343.62842	0.04166
1342.34266	0.04115
1341.05689	0.04065
1339.77112	0.04014
1338.48535	0.03964
1337.19958	0.03914
1335.91381	0.03867
1334.62804	0.03824
1333.34227	0.03780
1332.05650	0.03735
1330.77074	0.03685
1329.48497	0.03634
1328.19920	0.03584
1326.91343	0.03541
1325.62766	0.03505
1324.34189	0.03475
1323.05612	0.03447
1321.77035	0.03421
1320.48459	0.03394
1319.19882	0.03368
1317.91305	0.03341
1316.62728	0.03314
1315.34151	0.03284
1314.05574	0.03251
1312.76997	0.03218
1311.48420	0.03187
1310.19843	0.03160
1308.91267	0.03138
1307.62690	0.03116
1306.34113	0.03092
1305.05536	0.03064
1303.76959	0.03035
1302.48382	0.03008
1301.19805	0.02985
1299.91228	0.02966
1298.62652	0.02949
1297.34075	0.02929
1296.05498	0.02911
1294.76921	0.02897
1293.48344	0.02888
1292.19767	0.02880
1290.91190	0.02868
1289.62613	0.02850
1288.34036	0.02829
1287.05460	0.02808
1285.76883	0.02790
1284.48306	0.02777
1283.19729	0.02764
1281.91152	0.02751
1280.62575	0.02736
1279.33998	0.02722
1278.05421	0.02712
1276.76845	0.02704
1275.48268	0.02696
1274.19691	0.02690
1272.91114	0.02685
1271.62537	0.02679
1270.33960	0.02670
1269.05383	0.02656
1267.76806	0.02640
1266.48229	0.02624
1265.19653	0.02609
1263.91076	0.02596
1262.62499	0.02585
1261.33922	0.02577
1260.05345	0.02570
1258.76768	0.02564
1257.48191	0.02561
1256.19614	0.02561
1254.91037	0.02563
1253.62461	0.02565
1252.33884	0.02563
1251.05307	0.02557
1249.76730	0.02548
1248.48153	0.02536
1247.19576	0.02524
1245.90999	0.02513
1244.62422	0.02506
1243.33846	0.02502
1242.05269	0.02500
1240.76692	0.02495
1239.48115	0.02486
1238.19538	0.02476
1236.90961	0.02467
1235.62384	0.02460
1234.33807	0.02451
1233.05230	0.02437
1231.76654	0.02420
1230.48077	0.02401
1229.19500	0.02381
1227.90923	0.02361
1226.62346	0.02339
1225.33769	0.02314
1224.05192	0.02287
1222.76615	0.02261
1221.48039	0.02240
1220.19462	0.02226
1218.90885	0.02214
1217.62308	0.02200
1216.33731	0.02185
1215.05154	0.02173
1213.76577	0.02165
1212.48000	0.02157
1211.19423	0.02150
1209.90847	0.02145
1208.62270	0.02144
1207.33693	0.02147
1206.05116	0.02149
1204.76539	0.02148
1203.47962	0.02141
1202.19385	0.02128
1200.90808	0.02109
1199.62232	0.02086
1198.33655	0.02078
1197.05078	0.02075
1195.76501	0.02067
1194.47924	0.02053
1193.19347	0.02034
1191.90770	0.02016
1190.62193	0.02004
1189.33616	0.01998
1188.05040	0.01996
1186.76463	0.01996
1185.47886	0.01997
1184.19309	0.01995
1182.90732	0.01991
1181.62155	0.01985
1180.33578	0.01980
1179.05001	0.01975
1177.76425	0.01972
1176.47848	0.01971
1175.19271	0.01974
1173.90694	0.01978
1172.62117	0.01983
1171.33540	0.01987
1170.04963	0.01990
1168.76386	0.01993
1167.47809	0.01997
1166.19233	0.02006
1164.90656	0.02024
1163.62079	0.02046
1162.33502	0.02065
1161.04925	0.02080
1159.76348	0.02095
1158.47771	0.02114
1157.19194	0.02135
1155.90618	0.02155
1154.62041	0.02172
1153.33464	0.02191
1152.04887	0.02215
1150.76310	0.02251
1149.47733	0.02299
1148.19156	0.02354
1146.90579	0.02411
1145.62002	0.02465
1144.33426	0.02518
1143.04849	0.02579
1141.76272	0.02652
1140.47695	0.02741
1139.19118	0.02842
1137.90541	0.02952
1136.61964	0.03073
1135.33387	0.03207
1134.04811	0.03357
1132.76234	0.03523
1131.47657	0.03709
1130.19080	0.03918
1128.90503	0.04155
1127.61926	0.04418
1126.33349	0.04700
1125.04772	0.05001
1123.76195	0.05323
1122.47619	0.05669
1121.19042	0.06028
1119.90465	0.06390
1118.61888	0.06751
1117.33311	0.07117
1116.04734	0.07494
1114.76157	0.07877
1113.47580	0.08255
1112.19004	0.08621
1110.90427	0.08980
1109.61850	0.09335
1108.33273	0.09680
1107.04696	0.10011
1105.76119	0.10331
1104.47542	0.10648
1103.18965	0.10968
1101.90388	0.11286
1100.61812	0.11596
1099.33235	0.11891
1098.04658	0.12168
1096.76081	0.12427
1095.47504	0.12672
1094.18927	0.12907
1092.90350	0.13137
1091.61773	0.13356
1090.33197	0.13559
1089.04620	0.13745
1087.76043	0.13927
1086.47466	0.14112
1085.18889	0.14305
1083.90312	0.14502
1082.61735	0.14702
1081.33158	0.14909
1080.04581	0.15130
1078.76005	0.15373
1077.47428	0.15642
1076.18851	0.15933
1074.90274	0.16236
1073.61697	0.16546
1072.33120	0.16867
1071.04543	0.17201
1069.75966	0.17550
1068.47390	0.17917
1067.18813	0.18300
1065.90236	0.18698
1064.61659	0.19108
1063.33082	0.19524
1062.04505	0.19937
1060.75928	0.20346
1059.47351	0.20754
1058.18774	0.21170
1056.90198	0.21588
1055.61621	0.22001
1054.33044	0.22400
1053.04467	0.22790
1051.75890	0.23183
1050.47313	0.23585
1049.18736	0.23996
1047.90159	0.24415
1046.61583	0.24843
1045.33006	0.25284
1044.04429	0.25741
1042.75852	0.26214
1041.47275	0.26698
1040.18698	0.27188
1038.90121	0.27675
1037.61544	0.28156
1036.32967	0.28632
1035.04391	0.29106
1033.75814	0.29575
1032.47237	0.30031
1031.18660	0.30462
1029.90083	0.30858
1028.61506	0.31214
1027.32929	0.31526
1026.04352	0.31789
1024.75775	0.32003
1023.47199	0.32167
1022.18622	0.32279
1020.90045	0.32341
1019.61468	0.32354
1018.32891	0.32317
1017.04314	0.32225
1015.75737	0.32072
1014.47160	0.31849
1013.18584	0.31554
1011.90007	0.31192
1010.61430	0.30771
1009.32853	0.30293
1008.04276	0.29757
1006.75699	0.29159
1005.47122	0.28505
1004.18545	0.27808
1002.89968	0.27077
1001.61392	0.26314
1000.32815	0.25518
999.04238	0.24693
997.75661	0.23847
996.47084	0.22990
995.18507	0.22130
993.89930	0.21276
992.61353	0.20440
991.32777	0.19634
990.04200	0.18861
988.75623	0.18119
987.47046	0.17399
986.18469	0.16702
984.89892	0.16033
983.61315	0.15401
982.32738	0.14809
981.04161	0.14250
979.75585	0.13719
978.47008	0.13216
977.18431	0.12750
975.89854	0.12335
974.61277	0.11978
973.32700	0.11684
972.04123	0.11448
970.75546	0.11270
969.46970	0.11151
968.18393	0.11094
966.89816	0.11103
965.61239	0.11171
964.32662	0.11283
963.04085	0.11414
961.75508	0.11530
960.46931	0.11594
959.18354	0.11579
957.89778	0.11472
956.61201	0.11282
955.32624	0.11027
954.04047	0.10735
952.75470	0.10434
951.46893	0.10144
950.18316	0.09868
948.89739	0.09601
947.61163	0.09331
946.32586	0.09060
945.04009	0.08799
943.75432	0.08554
942.46855	0.08324
941.18278	0.08105
939.89701	0.07898
938.61124	0.07707
937.32547	0.07527
936.03971	0.07351
934.75394	0.07181
933.46817	0.07025
932.18240	0.06882
930.89663	0.06747
929.61086	0.06614
928.32509	0.06490
927.03932	0.06381
925.75356	0.06283
924.46779	0.06189
923.18202	0.06095
921.89625	0.06007
920.61048	0.05926
919.32471	0.05850
918.03894	0.05777
916.75317	0.05707
915.46740	0.05640
914.18164	0.05577
912.89587	0.05514
911.61010	0.05450
910.32433	0.05387
909.03856	0.05323
907.75279	0.05258
906.46702	0.05194
905.18125	0.05139
903.89549	0.05098
902.60972	0.05065
901.32395	0.05032
900.03818	0.04993
898.75241	0.04955
897.46664	0.04929
896.18087	0.04915
894.89510	0.04903
893.60933	0.04879
892.32357	0.04843
891.03780	0.04810
889.75203	0.04798
888.46626	0.04821
887.18049	0.04892
885.89472	0.05025
884.60895	0.05234
883.32318	0.05519
882.03742	0.05851
880.75165	0.06178
879.46588	0.06446
878.18011	0.06637
876.89434	0.06778
875.60857	0.06912
874.32280	0.07052
873.03703	0.07169
871.75126	0.07222
870.46550	0.07193
869.17973	0.07089
867.89396	0.06924
866.60819	0.06710
865.32242	0.06460
864.03665	0.06202
862.75088	0.05957
861.46511	0.05736
860.17935	0.05535
858.89358	0.05355
857.60781	0.05206
856.32204	0.05091
855.03627	0.05003
853.75050	0.04930
852.46473	0.04866
851.17896	0.04804
849.89319	0.04743
848.60743	0.04677
847.32166	0.04611
846.03589	0.04554
844.75012	0.04514
843.46435	0.04485
842.17858	0.04460
840.89281	0.04431
839.60704	0.04397
838.32128	0.04359
837.03551	0.04319
835.74974	0.04282
834.46397	0.04253
833.17820	0.04234
831.89243	0.04218
830.60666	0.04200
829.32089	0.04179
828.03512	0.04156
826.74936	0.04137
825.46359	0.04122
824.17782	0.04109
822.89205	0.04094
821.60628	0.04078
820.32051	0.04068
819.03474	0.04065
817.74897	0.04066
816.46321	0.04065
815.17744	0.04061
813.89167	0.04056
812.60590	0.04049
811.32013	0.04039
810.03436	0.04027
808.74859	0.04015
807.46282	0.04006
806.17705	0.04000
804.89129	0.03993
803.60552	0.03985
802.31975	0.03976
801.03398	0.03966
799.74821	0.03956
798.46244	0.03950
797.17667	0.03950
795.89090	0.03952
794.60513	0.03951
793.31937	0.03946
792.03360	0.03938
790.74783	0.03933
789.46206	0.03928
788.17629	0.03917
786.89052	0.03898
785.60475	0.03878
784.31898	0.03864
783.03322	0.03856
781.74745	0.03849
780.46168	0.03840
779.17591	0.03833
777.89014	0.03829
776.60437	0.03823
775.31860	0.03813
774.03283	0.03802
772.74706	0.03801
771.46130	0.03812
770.17553	0.03825
768.88976	0.03828
767.60399	0.03822
766.31822	0.03813
765.03245	0.03813
763.74668	0.03821
762.46091	0.03833
761.17515	0.03844
759.88938	0.03853
758.60361	0.03860
757.31784	0.03863
756.03207	0.03864
754.74630	0.03865
753.46053	0.03868
752.17476	0.03872
750.88899	0.03874
749.60323	0.03868
748.31746	0.03857
747.03169	0.03847
745.74592	0.03840
744.46015	0.03832
743.17438	0.03819
741.88861	0.03802
740.60284	0.03784
739.31708	0.03768
738.03131	0.03759
736.74554	0.03758
735.45977	0.03762
734.17400	0.03764
732.88823	0.03759
731.60246	0.03749
730.31669	0.03738
729.03092	0.03734
727.74516	0.03741
726.45939	0.03758
725.17362	0.03776
723.88785	0.03783
722.60208	0.03788
721.31631	0.03794
720.03054	0.03803
718.74477	0.03813
717.45901	0.03812
716.17324	0.03802
714.88747	0.03792
713.60170	0.03784
712.31593	0.03778
711.03016	0.03772
709.74439	0.03767
708.45862	0.03763
707.17285	0.03759
705.88709	0.03755
704.60132	0.03753
703.31555	0.03752
702.02978	0.03752
700.74401	0.03753
699.45824	0.03757
698.17247	0.03762
696.88670	0.03765
695.60094	0.03764
694.31517	0.03761
693.02940	0.03759
691.74363	0.03760
690.45786	0.03765
689.17209	0.03769
687.88632	0.03767
686.60055	0.03758
685.31478	0.03743
684.02902	0.03731
682.74325	0.03726
681.45748	0.03728
680.17171	0.03730
678.88594	0.03730
677.60017	0.03729
676.31440	0.03731
675.02863	0.03735
673.74287	0.03738
672.45710	0.03751
671.17133	0.03797
669.88556	0.03829
668.59979	0.03725
667.31402	0.03727
666.02825	0.03874
664.74248	0.03845
663.45671	0.03790
662.17095	0.03768
660.88518	0.03755
659.59941	0.03740
658.31364	0.03729
657.02787	0.03723
655.74210	0.03717
654.45633	0.03706
653.17056	0.03688
651.88480	0.03672
650.59903	0.03667
649.31326	0.03675
648.02749	0.03696
646.74172	0.03719
645.45595	0.03736
644.17018	0.03748
642.88441	0.03760
641.59864	0.03771
640.31288	0.03780
639.02711	0.03785
637.74134	0.03795
636.45557	0.03817
635.16980	0.03850
633.88403	0.03885
632.59826	0.03914
631.31249	0.03947
630.02673	0.04021
628.74096	0.04127
627.45519	0.04144
626.16942	0.04321
624.88365	0.04616
623.59788	0.04934
622.31211	0.05263
621.02634	0.05598
619.74057	0.05875
618.45481	0.06034
617.16904	0.06118
615.88327	0.06243
614.59750	0.06481
613.31173	0.06814
612.02596	0.07186
610.74019	0.07577
609.45442	0.08026
608.16866	0.08592
606.88289	0.09306
605.59712	0.10123
604.31135	0.10905
603.02558	0.11473
601.73981	0.11718
600.45404	0.11662
599.16827	0.11411
597.88250	0.11075
596.59674	0.10721
595.31097	0.10375
594.02520	0.10039
592.73943	0.09728
591.45366	0.09475
590.16789	0.09308
588.88212	0.09235
587.59635	0.09249
586.31059	0.09335
585.02482	0.09487
583.73905	0.09697
582.45328	0.09951
581.16751	0.10231
579.88174	0.10523
578.59597	0.10817
577.31020	0.11119
576.02443	0.11433
574.73867	0.11764
573.45290	0.12109
572.16713	0.12472
570.88136	0.12864
569.59559	0.13301
568.30982	0.13783
567.02405	0.14284
565.73828	0.14767
564.45251	0.15196
563.16675	0.15539
561.88098	0.15753
560.59521	0.15792
559.30944	0.15622
558.02367	0.15240
556.73790	0.14676
555.45213	0.13980
554.16636	0.13222
552.88060	0.12469
551.59483	0.11767
550.30906	0.11128
549.02329	0.10546
547.73752	0.10010
546.45175	0.09514
545.16598	0.09054
543.88021	0.08633
542.59444	0.08251
541.30868	0.07909
540.02291	0.07603
538.73714	0.07327
537.45137	0.07079
536.16560	0.06857
534.87983	0.06659
533.59406	0.06474
532.30829	0.06292
531.02253	0.06113
529.73676	0.05946
528.45099	0.05803
527.16522	0.05683
525.87945	0.05575
524.59368	0.05464
523.30791	0.05346
522.02214	0.05228
520.73637	0.05117
519.45061	0.05011
518.16484	0.04901
516.87907	0.04786
515.59330	0.04672
514.30753	0.04568
513.02176	0.04478
511.73599	0.04406
510.45022	0.04350
509.16446	0.04303
507.87869	0.04254
506.59292	0.04196
505.30715	0.04130
504.02138	0.04064
502.73561	0.04005
501.44984	0.03955
500.16407	0.03913
498.87830	0.03874
497.59254	0.03836
496.30677	0.03802
495.02100	0.03769
493.73523	0.03734
492.44946	0.03697
491.16369	0.03659
489.87792	0.03619
488.59215	0.03576
487.30639	0.03532
486.02062	0.03496
484.73485	0.03472
483.44908	0.03460
482.16331	0.03460
480.87754	0.03474
479.59177	0.03496
478.30600	0.03520
477.02023	0.03538
475.73447	0.03551
474.44870	0.03566
473.16293	0.03584
471.87716	0.03599
470.59139	0.03606
469.30562	0.03601
468.01985	0.03584
466.73408	0.03554
465.44832	0.03516
464.16255	0.03475
462.87678	0.03433
461.59101	0.03389
460.30524	0.03337
459.01947	0.03277
457.73370	0.03218
456.44793	0.03170
455.16216	0.03131
453.87640	0.03093
452.59063	0.03051
451.30486	0.03009
450.01909	0.02976
448.73332	0.02954
447.44755	0.02938
446.16178	0.02922
444.87601	0.02902
443.59025	0.02878
442.30448	0.02851
441.01871	0.02825
439.73294	0.02804
438.44717	0.02786
437.16140	0.02771
435.87563	0.02757
434.58986	0.02747
433.30409	0.02738
432.01833	0.02729
430.73256	0.02715
429.44679	0.02695
428.16102	0.02672
426.87525	0.02653
425.58948	0.02639
424.30371	0.02629
423.01794	0.02617
421.73218	0.02603
420.44641	0.02585
419.16064	0.02562
417.87487	0.02537
416.58910	0.02512
415.30333	0.02494
414.01756	0.02487
412.73179	0.02488
411.44602	0.02490
410.16026	0.02489
408.87449	0.02486
407.58872	0.02486
406.30295	0.02490
405.01718	0.02493
403.73141	0.02490
402.44564	0.02485
401.15987	0.02483
399.87411	0.02488
