3997.45528 0.02771
3996.16951 0.02710
3994.88374 0.02647
3993.59798 0.02537
3992.31221 0.02395
3991.02644 0.02288
3989.74067 0.02282
3988.45490 0.02387
3987.16913 0.02545
3985.88336 0.02677
3984.59759 0.02732
3983.31183 0.02707
3982.02606 0.02627
3980.74029 0.02524
3979.45452 0.02433
3978.16875 0.02387
3976.88298 0.02398
3975.59721 0.02450
3974.31144 0.02517
3973.02567 0.02591
3971.73991 0.02672
3970.45414 0.02742
3969.16837 0.02764
3967.88260 0.02720
3966.59683 0.02645
3965.31106 0.02603
3964.02529 0.02629
3962.73952 0.02706
3961.45376 0.02790
3960.16799 0.02852
3958.88222 0.02886
3957.59645 0.02903
3956.31068 0.02893
3955.02491 0.02831
3953.73914 0.02709
3952.45337 0.02566
3951.16760 0.02468
3949.88184 0.02452
3948.59607 0.02512
3947.31030 0.02627
3946.02453 0.02770
3944.73876 0.02897
3943.45299 0.02961
3942.16722 0.02933
3940.88145 0.02832
3939.59569 0.02720
3938.30992 0.02670
3937.02415 0.02707
3935.73838 0.02784
3934.45261 0.02820
3933.16684 0.02783
3931.88107 0.02713
3930.59530 0.02680
3929.30953 0.02719
3928.02377 0.02799
3926.73800 0.02861
3925.45223 0.02868
3924.16646 0.02835
3922.88069 0.02796
3921.59492 0.02793
3920.30915 0.02854
3919.02338 0.02968
3917.73762 0.03081
3916.45185 0.03129
3915.16608 0.03087
3913.88031 0.02988
3912.59454 0.02907
3911.30877 0.02912
3910.02300 0.03014
3908.73723 0.03157
3907.45146 0.03258
3906.16570 0.03265
3904.87993 0.03189
3903.59416 0.03068
3902.30839 0.02918
3901.02262 0.02749
3899.73685 0.02605
3898.45108 0.02544
3897.16531 0.02570
3895.87955 0.02630
3894.59378 0.02670
3893.30801 0.02672
3892.02224 0.02647
3890.73647 0.02601
3889.45070 0.02522
3888.16493 0.02410
3886.87916 0.02333
3885.59339 0.02379
3884.30763 0.02522
3883.02186 0.02641
3881.73609 0.02659
3880.45032 0.02631
3879.16455 0.02643
3877.87878 0.02699
3876.59301 0.02740
3875.30724 0.02735
3874.02148 0.02700
3872.73571 0.02647
3871.44994 0.02586
3870.16417 0.02554
3868.87840 0.02578
3867.59263 0.02613
3866.30686 0.02612
3865.02109 0.02589
3863.73532 0.02561
3862.44956 0.02516
3861.16379 0.02452
3859.87802 0.02406
3858.59225 0.02413
3857.30648 0.02460
3856.02071 0.02504
3854.73494 0.02541
3853.44917 0.02612
3852.16341 0.02722
3850.87764 0.02808
3849.59187 0.02826
3848.30610 0.02788
3847.02033 0.02725
3845.73456 0.02663
3844.44879 0.02628
3843.16302 0.02635
3841.87725 0.02662
3840.59149 0.02657
3839.30572 0.02608
3838.01995 0.02563
3836.73418 0.02557
3835.44841 0.02554
3834.16264 0.02500
3832.87687 0.02405
3831.59110 0.02332
3830.30534 0.02319
3829.01957 0.02348
3827.73380 0.02383
3826.44803 0.02412
3825.16226 0.02444
3823.87649 0.02484
3822.59072 0.02545
3821.30495 0.02656
3820.01918 0.02789
3818.73342 0.02843
3817.44765 0.02763
3816.16188 0.02633
3814.87611 0.02565
3813.59034 0.02571
3812.30457 0.02613
3811.01880 0.02675
3809.73303 0.02723
3808.44726 0.02711
3807.16150 0.02664
3805.87573 0.02647
3804.58996 0.02660
3803.30419 0.02662
3802.01842 0.02661
3800.73265 0.02693
3799.44688 0.02722
3798.16111 0.02684
3796.87535 0.02607
3795.58958 0.02573
3794.30381 0.02607
3793.01804 0.02672
3791.73227 0.02724
3790.44650 0.02742
3789.16073 0.02734
3787.87496 0.02718
3786.58919 0.02714
3785.30343 0.02722
3784.01766 0.02724
3782.73189 0.02699
3781.44612 0.02641
3780.16035 0.02577
3778.87458 0.02539
3777.58881 0.02529
3776.30304 0.02524
3775.01728 0.02528
3773.73151 0.02557
3772.44574 0.02606
3771.15997 0.02657
3769.87420 0.02701
3768.58843 0.02731
3767.30266 0.02736
3766.01689 0.02732
3764.73112 0.02738
3763.44536 0.02725
3762.15959 0.02638
3760.87382 0.02484
3759.58805 0.02334
3758.30228 0.02259
3757.01651 0.02287
3755.73074 0.02398
3754.44497 0.02538
3753.15921 0.02667
3751.87344 0.02768
3750.58767 0.02835
3749.30190 0.02877
3748.01613 0.02882
3746.73036 0.02793
3745.44459 0.02629
3744.15882 0.02524
3742.87305 0.02545
3741.58729 0.02599
3740.30152 0.02595
3739.01575 0.02530
3737.72998 0.02443
3736.44421 0.02383
3735.15844 0.02370
3733.87267 0.02382
3732.58690 0.02403
3731.30114 0.02449
3730.01537 0.02509
3728.72960 0.02540
3727.44383 0.02539
3726.15806 0.02546
3724.87229 0.02559
3723.58652 0.02528
3722.30075 0.02434
3721.01498 0.02321
3719.72922 0.02255
3718.44345 0.02277
3717.15768 0.02372
3715.87191 0.02476
3714.58614 0.02521
3713.30037 0.02500
3712.01460 0.02464
3710.72883 0.02460
3709.44307 0.02486
3708.15730 0.02522
3706.87153 0.02571
3705.58576 0.02641
3704.29999 0.02722
3703.01422 0.02792
3701.72845 0.02826
3700.44268 0.02802
3699.15691 0.02703
3697.87115 0.02539
3696.58538 0.02360
3695.29961 0.02227
3694.01384 0.02163
3692.72807 0.02148
3691.44230 0.02129
3690.15653 0.02065
3688.87076 0.01983
3687.58500 0.01963
3686.29923 0.02043
3685.01346 0.02183
3683.72769 0.02325
3682.44192 0.02427
3681.15615 0.02469
3679.87038 0.02466
3678.58461 0.02442
3677.29884 0.02405
3676.01308 0.02385
3674.72731 0.02415
3673.44154 0.02460
3672.15577 0.02464
3670.87000 0.02440
3669.58423 0.02430
3668.29846 0.02420
3667.01269 0.02381
3665.72693 0.02334
3664.44116 0.02318
3663.15539 0.02337
3661.86962 0.02379
3660.58385 0.02432
3659.29808 0.02465
3658.01231 0.02461
3656.72654 0.02454
3655.44077 0.02504
3654.15501 0.02597
3652.86924 0.02640
3651.58347 0.02568
3650.29770 0.02416
3649.01193 0.02274
3647.72616 0.02212
3646.44039 0.02243
3645.15462 0.02335
3643.86886 0.02440
3642.58309 0.02516
3641.29732 0.02556
3640.01155 0.02588
3638.72578 0.02654
3637.44001 0.02743
3636.15424 0.02787
3634.86847 0.02739
3633.58270 0.02650
3632.29694 0.02605
3631.01117 0.02633
3629.72540 0.02694
3628.43963 0.02726
3627.15386 0.02668
3625.86809 0.02506
3624.58232 0.02312
3623.29655 0.02181
3622.01079 0.02152
3620.72502 0.02215
3619.43925 0.02347
3618.15348 0.02520
3616.86771 0.02687
3615.58194 0.02803
3614.29617 0.02850
3613.01040 0.02843
3611.72463 0.02804
3610.43887 0.02765
3609.15310 0.02770
3607.86733 0.02849
3606.58156 0.02979
3605.29579 0.03087
3604.01002 0.03118
3602.72425 0.03079
3601.43848 0.03029
3600.15272 0.03031
3598.86695 0.03096
3597.58118 0.03174
3596.29541 0.03188
3595.00964 0.03104
3593.72387 0.02968
3592.43810 0.02873
3591.15233 0.02878
3589.86656 0.02965
3588.58080 0.03073
3587.29503 0.03136
3586.00926 0.03117
3584.72349 0.03026
3583.43772 0.02904
3582.15195 0.02807
3580.86618 0.02776
3579.58041 0.02821
3578.29464 0.02926
3577.00888 0.03058
3575.72311 0.03182
3574.43734 0.03270
3573.15157 0.03312
3571.86580 0.03310
3570.58003 0.03265
3569.29426 0.03190
3568.00849 0.03117
3566.72273 0.03075
3565.43696 0.03064
3564.15119 0.03058
3562.86542 0.03032
3561.57965 0.02980
3560.29388 0.02918
3559.00811 0.02886
3557.72234 0.02916
3556.43657 0.02999
3555.15081 0.03075
3553.86504 0.03085
3552.57927 0.03028
3551.29350 0.02968
3550.00773 0.02963
3548.72196 0.03018
3547.43619 0.03083
3546.15042 0.03111
3544.86466 0.03097
3543.57889 0.03082
3542.29312 0.03117
3541.00735 0.03202
3539.72158 0.03286
3538.43581 0.03310
3537.15004 0.03253
3535.86427 0.03153
3534.57850 0.03063
3533.29274 0.03023
3532.00697 0.03048
3530.72120 0.03131
3529.43543 0.03238
3528.14966 0.03325
3526.86389 0.03366
3525.57812 0.03376
3524.29235 0.03385
3523.00659 0.03403
3521.72082 0.03414
3520.43505 0.03401
3519.14928 0.03363
3517.86351 0.03319
3516.57774 0.03288
3515.29197 0.03279
3514.00620 0.03290
3512.72043 0.03315
3511.43467 0.03348
3510.14890 0.03385
3508.86313 0.03426
3507.57736 0.03471
3506.29159 0.03512
3505.00582 0.03528
3503.72005 0.03502
3502.43428 0.03440
3501.14852 0.03374
3499.86275 0.03342
3498.57698 0.03359
3497.29121 0.03419
3496.00544 0.03504
3494.71967 0.03590
3493.43390 0.03651
3492.14813 0.03668
3490.86236 0.03642
3489.57660 0.03595
3488.29083 0.03554
3487.00506 0.03540
3485.71929 0.03566
3484.43352 0.03616
3483.14775 0.03657
3481.86198 0.03662
3480.57621 0.03634
3479.29045 0.03599
3478.00468 0.03579
3476.71891 0.03580
3475.43314 0.03594
3474.14737 0.03619
3472.86160 0.03663
3471.57583 0.03730
3470.29006 0.03800
3469.00429 0.03835
3467.71853 0.03817
3466.43276 0.03766
3465.14699 0.03719
3463.86122 0.03698
3462.57545 0.03699
3461.28968 0.03702
3460.00391 0.03687
3458.71814 0.03656
3457.43238 0.03621
3456.14661 0.03604
3454.86084 0.03621
3453.57507 0.03670
3452.28930 0.03722
3451.00353 0.03741
3449.71776 0.03729
3448.43199 0.03721
3447.14622 0.03743
3445.86046 0.03780
3444.57469 0.03796
3443.28892 0.03783
3442.00315 0.03767
3440.71738 0.03780
3439.43161 0.03838
3438.14584 0.03926
3436.86007 0.03997
3435.57431 0.03988
3434.28854 0.03881
3433.00277 0.03732
3431.71700 0.03636
3430.43123 0.03650
3429.14546 0.03744
3427.85969 0.03838
3426.57392 0.03875
3425.28815 0.03857
3424.00239 0.03830
3422.71662 0.03835
3421.43085 0.03870
3420.14508 0.03901
3418.85931 0.03900
3417.57354 0.03877
3416.28777 0.03869
3415.00200 0.03898
3413.71624 0.03949
3412.43047 0.03987
3411.14470 0.03990
3409.85893 0.03969
3408.57316 0.03959
3407.28739 0.03988
3406.00162 0.04051
3404.71585 0.04109
3403.43008 0.04122
3402.14432 0.04094
3400.85855 0.04062
3399.57278 0.04020
3398.28701 0.03992
3397.00124 0.04014
3395.71547 0.04035
3394.42970 0.04001
3393.14393 0.03914
3391.85817 0.03827
3390.57240 0.03804
3389.28663 0.03861
3388.00086 0.03962
3386.71509 0.04061
3385.42932 0.04145
3384.14355 0.04225
3382.85778 0.04301
3381.57201 0.04349
3380.28625 0.04350
3379.00048 0.04307
3377.71471 0.04248
3376.42894 0.04207
3375.14317 0.04206
3373.85740 0.04243
3372.57163 0.04297
3371.28586 0.04338
3370.00010 0.04344
3368.71433 0.04311
3367.42856 0.04245
3366.14279 0.04162
3364.85702 0.04088
3363.57125 0.04048
3362.28548 0.04043
3360.99971 0.04057
3359.71394 0.04078
3358.42818 0.04114
3357.14241 0.04165
3355.85664 0.04215
3354.57087 0.04242
3353.28510 0.04237
3351.99933 0.04215
3350.71356 0.04195
3349.42779 0.04185
3348.14202 0.04170
3346.85626 0.04141
3345.57049 0.04114
3344.28472 0.04123
3342.99895 0.04185
3341.71318 0.04277
3340.42741 0.04355
3339.14164 0.04389
3337.85587 0.04381
3336.57011 0.04363
3335.28434 0.04362
3333.99857 0.04386
3332.71280 0.04413
3331.42703 0.04420
3330.14126 0.04393
3328.85549 0.04338
3327.56972 0.04275
3326.28395 0.04228
3324.99819 0.04215
3323.71242 0.04240
3322.42665 0.04282
3321.14088 0.04320
3319.85511 0.04344
3318.56934 0.04356
3317.28357 0.04363
3315.99780 0.04378
3314.71204 0.04414
3313.42627 0.04467
3312.14050 0.04514
3310.85473 0.04543
3309.56896 0.04567
3308.28319 0.04610
3306.99742 0.04662
3305.71165 0.04687
3304.42588 0.04662
3303.14012 0.04600
3301.85435 0.04536
3300.56858 0.04489
3299.28281 0.04461
3297.99704 0.04447
3296.71127 0.04447
3295.42550 0.04457
3294.13973 0.04470
3292.85397 0.04484
3291.56820 0.04513
3290.28243 0.04569
3288.99666 0.04644
3287.71089 0.04719
3286.42512 0.04771
3285.13935 0.04788
3283.85358 0.04771
3282.56781 0.04734
3281.28205 0.04689
3279.99628 0.04647
3278.71051 0.04617
3277.42474 0.04605
3276.13897 0.04604
3274.85320 0.04597
3273.56743 0.04578
3272.28166 0.04556
3270.99590 0.04547
3269.71013 0.04562
3268.42436 0.04600
3267.13859 0.04649
3265.85282 0.04690
3264.56705 0.04705
3263.28128 0.04692
3261.99551 0.04667
3260.70974 0.04645
3259.42398 0.04625
3258.13821 0.04587
3256.85244 0.04523
3255.56667 0.04458
3254.28090 0.04427
3252.99513 0.04439
3251.70936 0.04468
3250.42359 0.04483
3249.13783 0.04484
3247.85206 0.04480
3246.56629 0.04472
3245.28052 0.04444
3243.99475 0.04392
3242.70898 0.04332
3241.42321 0.04298
3240.13744 0.04308
3238.85167 0.04350
3237.56591 0.04394
3236.28014 0.04417
3234.99437 0.04410
3233.70860 0.04373
3232.42283 0.04321
3231.13706 0.04282
3229.85129 0.04280
3228.56552 0.04302
3227.27976 0.04309
3225.99399 0.04281
3224.70822 0.04238
3223.42245 0.04221
3222.13668 0.04245
3220.85091 0.04290
3219.56514 0.04321
3218.27937 0.04318
3216.99360 0.04280
3215.70784 0.04229
3214.42207 0.04194
3213.13630 0.04190
3211.85053 0.04208
3210.56476 0.04229
3209.27899 0.04246
3207.99322 0.04267
3206.70745 0.04288
3205.42169 0.04293
3204.13592 0.04278
3202.85015 0.04266
3201.56438 0.04280
3200.27861 0.04303
3198.99284 0.04294
3197.70707 0.04238
3196.42130 0.04170
3195.13553 0.04133
3193.84977 0.04139
3192.56400 0.04169
3191.27823 0.04206
3189.99246 0.04238
3188.70669 0.04248
3187.42092 0.04225
3186.13515 0.04174
3184.84938 0.04113
3183.56362 0.04066
3182.27785 0.04051
3180.99208 0.04072
3179.70631 0.04111
3178.42054 0.04135
3177.13477 0.04121
3175.84900 0.04073
3174.56323 0.04019
3173.27746 0.03980
3171.99170 0.03959
3170.70593 0.03955
3169.42016 0.03963
3168.13439 0.03977
3166.84862 0.03993
3165.56285 0.04011
3164.27708 0.04037
3162.99131 0.04066
3161.70555 0.04085
3160.41978 0.04076
3159.13401 0.04033
3157.84824 0.03970
3156.56247 0.03909
3155.27670 0.03864
3153.99093 0.03837
3152.70516 0.03821
3151.41939 0.03813
3150.13363 0.03811
3148.84786 0.03814
3147.56209 0.03822
3146.27632 0.03837
3144.99055 0.03861
3143.70478 0.03896
3142.41901 0.03935
3141.13324 0.03965
3139.84748 0.03975
3138.56171 0.03968
3137.27594 0.03954
3135.99017 0.03943
3134.70440 0.03942
3133.41863 0.03957
3132.13286 0.03979
3130.84709 0.03985
3129.56132 0.03951
3128.27556 0.03884
3126.98979 0.03820
3125.70402 0.03791
3124.41825 0.03794
3123.13248 0.03809
3121.84671 0.03827
3120.56094 0.03846
3119.27517 0.03865
3117.98940 0.03879
3116.70364 0.03884
3115.41787 0.03879
3114.13210 0.03866
3112.84633 0.03846
3111.56056 0.03826
3110.27479 0.03812
3108.98902 0.03805
3107.70325 0.03799
3106.41749 0.03785
3105.13172 0.03761
3103.84595 0.03727
3102.56018 0.03700
3101.27441 0.03702
3099.98864 0.03744
3098.70287 0.03809
3097.41710 0.03870
3096.13133 0.03910
3094.84557 0.03937
3093.55980 0.03955
3092.27403 0.03956
3090.98826 0.03925
3089.70249 0.03870
3088.41672 0.03814
3087.13095 0.03779
3085.84518 0.03768
3084.55942 0.03773
3083.27365 0.03787
3081.98788 0.03804
3080.70211 0.03818
3079.41634 0.03819
3078.13057 0.03809
3076.84480 0.03809
3075.55903 0.03834
3074.27326 0.03875
3072.98750 0.03905
3071.70173 0.03905
3070.41596 0.03886
3069.13019 0.03872
3067.84442 0.03868
3066.55865 0.03865
3065.27288 0.03852
3063.98711 0.03831
3062.70135 0.03807
3061.41558 0.03778
3060.12981 0.03745
3058.84404 0.03710
3057.55827 0.03679
3056.27250 0.03657
3054.98673 0.03646
3053.70096 0.03645
3052.41519 0.03653
3051.12943 0.03669
3049.84366 0.03686
3048.55789 0.03696
3047.27212 0.03690
3045.98635 0.03668
3044.70058 0.03636
3043.41481 0.03611
3042.12904 0.03613
3040.84328 0.03646
3039.55751 0.03690
3038.27174 0.03720
3036.98597 0.03725
3035.70020 0.03714
3034.41443 0.03699
3033.12866 0.03678
3031.84289 0.03647
3030.55712 0.03611
3029.27136 0.03587
3027.98559 0.03583
3026.69982 0.03593
3025.41405 0.03608
3024.12828 0.03625
3022.84251 0.03640
3021.55674 0.03648
3020.27097 0.03649
3018.98521 0.03645
3017.69944 0.03648
3016.41367 0.03659
3015.12790 0.03672
3013.84213 0.03677
3012.55636 0.03672
3011.27059 0.03658
3009.98482 0.03640
3008.69905 0.03622
3007.41329 0.03600
3006.12752 0.03570
3004.84175 0.03530
3003.55598 0.03492
3002.27021 0.03489
3000.98444 0.03519
2999.69867 0.03525
2998.41290 0.03568
2997.12714 0.03605
2995.84137 0.03633
2994.55560 0.03652
2993.26983 0.03663
2991.98406 0.03668
2990.69829 0.03670
2989.41252 0.03667
2988.12675 0.03653
2986.84098 0.03633
2985.55522 0.03627
2984.26945 0.03657
2982.98368 0.03721
2981.69791 0.03793
2980.41214 0.03850
2979.12637 0.03888
2977.84060 0.03912
2976.55483 0.03929
2975.26907 0.03946
2973.98330 0.03980
2972.69753 0.04044
2971.41176 0.04135
2970.12599 0.04234
2968.84022 0.04321
2967.55445 0.04394
2966.26868 0.04462
2964.98291 0.04538
2963.69715 0.04620
2962.41138 0.04699
2961.12561 0.04769
2959.83984 0.04839
2958.55407 0.04915
2957.26830 0.04991
2955.98253 0.05056
2954.69676 0.05102
2953.41100 0.05130
2952.12523 0.05147
2950.83946 0.05158
2949.55369 0.05158
2948.26792 0.05148
2946.98215 0.05131
2945.69638 0.05115
2944.41061 0.05100
2943.12484 0.05083
2941.83908 0.05070
2940.55331 0.05079
2939.26754 0.05120
2937.98177 0.05178
2936.69600 0.05223
2935.41023 0.05243
2934.12446 0.05263
2932.83869 0.05316
2931.55293 0.05407
2930.26716 0.05506
2928.98139 0.05587
2927.69562 0.05653
2926.40985 0.05710
2925.12408 0.05742
2923.83831 0.05731
2922.55254 0.05685
2921.26677 0.05640
2919.98101 0.05611
2918.69524 0.05581
2917.40947 0.05530
2916.12370 0.05458
2914.83793 0.05382
2913.55216 0.05306
2912.26639 0.05232
2910.98062 0.05167
2909.69486 0.05120
2908.40909 0.05082
2907.12332 0.05033
2905.83755 0.04966
2904.55178 0.04899
2903.26601 0.04855
2901.98024 0.04841
2900.69447 0.04846
2899.40870 0.04847
2898.12294 0.04825
2896.83717 0.04774
2895.55140 0.04710
2894.26563 0.04649
2892.97986 0.04601
2891.69409 0.04559
2890.40832 0.04511
2889.12255 0.04452
2887.83678 0.04384
2886.55102 0.04316
2885.26525 0.04260
2883.97948 0.04224
2882.69371 0.04218
2881.40794 0.04237
2880.12217 0.04258
2878.83640 0.04256
2877.55063 0.04240
2876.26487 0.04253
2874.97910 0.04322
2873.69333 0.04425
2872.40756 0.04506
2871.12179 0.04542
2869.83602 0.04551
2868.55025 0.04548
2867.26448 0.04529
2865.97871 0.04484
2864.69295 0.04429
2863.40718 0.04391
2862.12141 0.04377
2860.83564 0.04377
2859.54987 0.04380
2858.26410 0.04385
2856.97833 0.04392
2855.69256 0.04400
2854.40680 0.04409
2853.12103 0.04412
2851.83526 0.04402
2850.54949 0.04375
2849.26372 0.04339
2847.97795 0.04294
2846.69218 0.04238
2845.40641 0.04176
2844.12064 0.04118
2842.83488 0.04068
2841.54911 0.04013
2840.26334 0.03937
2838.97757 0.03843
2837.69180 0.03749
2836.40603 0.03670
2835.12026 0.03611
2833.83449 0.03571
2832.54873 0.03547
2831.26296 0.03527
2829.97719 0.03501
2828.69142 0.03462
2827.40565 0.03425
2826.11988 0.03401
2824.83411 0.03394
2823.54834 0.03391
2822.26257 0.03381
2820.97681 0.03364
2819.69104 0.03340
2818.40527 0.03314
2817.11950 0.03293
2815.83373 0.03279
2814.54796 0.03268
2813.26219 0.03249
2811.97642 0.03223
2810.69066 0.03197
2809.40489 0.03182
2808.11912 0.03177
2806.83335 0.03180
2805.54758 0.03177
2804.26181 0.03158
2802.97604 0.03125
2801.69027 0.03097
2800.40450 0.03092
2799.11874 0.03106
2797.83297 0.03117
2796.54720 0.03111
2795.26143 0.03097
2793.97566 0.03087
2792.68989 0.03086
2791.40412 0.03094
2790.11835 0.03105
2788.83259 0.03112
2787.54682 0.03106
2786.26105 0.03081
2784.97528 0.03051
2783.68951 0.03035
2782.40374 0.03037
2781.11797 0.03047
2779.83220 0.03052
2778.54643 0.03051
2777.26067 0.03043
2775.97490 0.03030
2774.68913 0.03018
2773.40336 0.03014
2772.11759 0.03016
2770.83182 0.03015
2769.54605 0.03010
2768.26028 0.03012
2766.97452 0.03025
2765.68875 0.03036
2764.40298 0.03034
2763.11721 0.03022
2761.83144 0.03011
2760.54567 0.03000
2759.25990 0.02977
2757.97413 0.02943
2756.68836 0.02915
2755.40260 0.02916
2754.11683 0.02949
2752.83106 0.02988
2751.54529 0.03005
2750.25952 0.02988
2748.97375 0.02955
2747.68798 0.02925
2746.40221 0.02902
2745.11645 0.02881
2743.83068 0.02866
2742.54491 0.02868
2741.25914 0.02885
2739.97337 0.02901
2738.68760 0.02906
2737.40183 0.02907
2736.11606 0.02915
2734.83029 0.02925
2733.54453 0.02930
2732.25876 0.02931
2730.97299 0.02931
2729.68722 0.02924
2728.40145 0.02907
2727.11568 0.02883
2725.82991 0.02864
2724.54414 0.02853
2723.25838 0.02842
2721.97261 0.02828
2720.68684 0.02817
2719.40107 0.02817
2718.11530 0.02833
2716.82953 0.02857
2715.54376 0.02872
2714.25799 0.02872
2712.97222 0.02860
2711.68646 0.02847
2710.40069 0.02839
2709.11492 0.02833
2707.82915 0.02822
2706.54338 0.02805
2705.25761 0.02789
2703.97184 0.02783
2702.68607 0.02787
2701.40031 0.02792
2700.11454 0.02784
2698.82877 0.02762
2697.54300 0.02735
2696.25723 0.02717
2694.97146 0.02719
2693.68569 0.02737
2692.39992 0.02758
2691.11415 0.02765
2689.82839 0.02755
2688.54262 0.02737
2687.25685 0.02723
2685.97108 0.02710
2684.68531 0.02698
2683.39954 0.02689
2682.11377 0.02689
2680.82800 0.02697
2679.54224 0.02703
2678.25647 0.02699
2676.97070 0.02685
2675.68493 0.02671
2674.39916 0.02671
2673.11339 0.02684
2671.82762 0.02704
2670.54185 0.02723
2669.25608 0.02738
2667.97032 0.02742
2666.68455 0.02730
2665.39878 0.02703
2664.11301 0.02677
2662.82724 0.02669
2661.54147 0.02674
2660.25570 0.02678
2658.96993 0.02673
2657.68417 0.02669
2656.39840 0.02679
2655.11263 0.02705
2653.82686 0.02734
2652.54109 0.02751
2651.25532 0.02748
2649.96955 0.02723
2648.68378 0.02681
2647.39801 0.02636
2646.11225 0.02602
2644.82648 0.02591
2643.54071 0.02606
2642.25494 0.02635
2640.96917 0.02657
2639.68340 0.02658
2638.39763 0.02640
2637.11186 0.02613
2635.82609 0.02582
2634.54033 0.02551
2633.25456 0.02522
2631.96879 0.02510
2630.68302 0.02527
2629.39725 0.02569
2628.11148 0.02611
2626.82571 0.02619
2625.53994 0.02586
2624.25418 0.02530
2622.96841 0.02477
2621.68264 0.02440
2620.39687 0.02417
2619.11110 0.02400
2617.82533 0.02385
2616.53956 0.02371
2615.25379 0.02367
2613.96802 0.02387
2612.68226 0.02425
2611.39649 0.02453
2610.11072 0.02446
2608.82495 0.02409
2607.53918 0.02368
2606.25341 0.02345
2604.96764 0.02341
2603.68187 0.02346
2602.39611 0.02352
2601.11034 0.02362
2599.82457 0.02373
2598.53880 0.02371
2597.25303 0.02340
2595.96726 0.02285
2594.68149 0.02231
2593.39572 0.02202
2592.10995 0.02202
2590.82419 0.02218
2589.53842 0.02235
2588.25265 0.02250
2586.96688 0.02267
2585.68111 0.02287
2584.39534 0.02307
2583.10957 0.02316
2581.82380 0.02309
2580.53804 0.02292
2579.25227 0.02283
2577.96650 0.02292
2576.68073 0.02309
2575.39496 0.02314
2574.10919 0.02302
2572.82342 0.02279
2571.53765 0.02256
2570.25188 0.02235
2568.96612 0.02222
2567.68035 0.02230
2566.39458 0.02260
2565.10881 0.02295
2563.82304 0.02303
2562.53727 0.02267
2561.25150 0.02193
2559.96573 0.02109
2558.67997 0.02048
2557.39420 0.02029
2556.10843 0.02051
2554.82266 0.02093
2553.53689 0.02131
2552.25112 0.02151
2550.96535 0.02148
2549.67958 0.02123
2548.39381 0.02081
2547.10805 0.02033
2545.82228 0.01996
2544.53651 0.01994
2543.25074 0.02041
2541.96497 0.02126
2540.67920 0.02202
2539.39343 0.02218
2538.10766 0.02158
2536.82190 0.02059
2535.53613 0.01979
2534.25036 0.01948
2532.96459 0.01959
2531.67882 0.01980
2530.39305 0.01987
2529.10728 0.01975
2527.82151 0.01966
2526.53574 0.01987
2525.24998 0.02044
2523.96421 0.02113
2522.67844 0.02163
2521.39267 0.02177
2520.10690 0.02156
2518.82113 0.02119
2517.53536 0.02093
2516.24959 0.02093
2514.96383 0.02114
2513.67806 0.02131
2512.39229 0.02130
2511.10652 0.02116
2509.82075 0.02097
2508.53498 0.02064
2507.24921 0.02007
2505.96344 0.01941
2504.67767 0.01897
2503.39191 0.01893
2502.10614 0.01911
2500.82037 0.01931
2499.53460 0.01948
2498.24883 0.01973
2496.96306 0.02012
2495.67729 0.02059
2494.39152 0.02100
2493.10576 0.02126
2491.81999 0.02124
2490.53422 0.02099
2489.24845 0.02072
2487.96268 0.02063
2486.67691 0.02069
2485.39114 0.02066
2484.10537 0.02042
2482.81960 0.02010
2481.53384 0.01984
2480.24807 0.01957
2478.96230 0.01921
2477.67653 0.01885
2476.39076 0.01872
2475.10499 0.01893
2473.81922 0.01935
2472.53345 0.01975
2471.24769 0.01997
2469.96192 0.01996
2468.67615 0.01976
2467.39038 0.01950
2466.10461 0.01941
2464.81884 0.01966
2463.53307 0.02012
2462.24730 0.02044
2460.96153 0.02046
2459.67577 0.02032
2458.39000 0.02028
2457.10423 0.02039
2455.81846 0.02048
2454.53269 0.02041
2453.24692 0.02022
2451.96115 0.02010
2450.67538 0.02017
2449.38962 0.02034
2448.10385 0.02039
2446.81808 0.02016
2445.53231 0.01978
2444.24654 0.01949
2442.96077 0.01934
2441.67500 0.01921
2440.38923 0.01901
2439.10346 0.01884
2437.81770 0.01886
2436.53193 0.01904
2435.24616 0.01928
2433.96039 0.01955
2432.67462 0.01990
2431.38885 0.02029
2430.10308 0.02052
2428.81731 0.02047
2427.53155 0.02012
2426.24578 0.01953
2424.96001 0.01885
2423.67424 0.01830
2422.38847 0.01804
2421.10270 0.01807
2419.81693 0.01822
2418.53116 0.01835
2417.24539 0.01845
2415.95963 0.01863
2414.67386 0.01894
2413.38809 0.01928
2412.10232 0.01949
2410.81655 0.01950
2409.53078 0.01936
2408.24501 0.01910
2406.95924 0.01873
2405.67347 0.01830
2404.38771 0.01798
2403.10194 0.01797
2401.81617 0.01823
2400.53040 0.01855
2399.24463 0.01956
2397.95886 0.01900
2396.67309 0.01857
2395.38732 0.01867
2394.10156 0.01893
2392.81579 0.01908
2391.53002 0.01897
2390.24425 0.01862
2388.95848 0.01815
2387.67271 0.01776
2386.38694 0.01754
2385.10117 0.01748
2383.81540 0.01749
2382.52964 0.01755
2381.24387 0.01767
2379.95810 0.01781
2378.67233 0.01791
2377.38656 0.01789
2376.10079 0.01780
2374.81502 0.01781
2373.52925 0.01799
2372.24349 0.01830
2370.95772 0.01862
2369.67195 0.01892
2368.38618 0.01916
2367.10041 0.01927
2365.81464 0.01921
2364.52887 0.01910
2363.24310 0.01905
2361.95733 0.01905
2360.67157 0.01901
2359.38580 0.01897
2358.10003 0.01905
2356.81426 0.01926
2355.52849 0.01958
2354.24272 0.01990
2352.95695 0.02008
2351.67118 0.01995
2350.38542 0.01967
2349.09965 0.01951
2347.81388 0.01951
2346.52811 0.01941
2345.24234 0.01927
2343.95657 0.01945
2342.67080 0.01986
2341.38503 0.01988
2340.09926 0.01958
2338.81350 0.01987
2337.52773 0.02061
2336.24196 0.02053
2334.95619 0.01982
2333.67042 0.01980
2332.38465 0.02024
2331.09888 0.01996
2329.81311 0.01973
2328.52735 0.02039
2327.24158 0.02075
2325.95581 0.02088
2324.67004 0.02148
2323.38427 0.02174
2322.09850 0.02149
2320.81273 0.02156
2319.52696 0.02145
2318.24119 0.02110
2316.95543 0.02089
2315.66966 0.02040
2314.38389 0.01976
2313.09812 0.01937
2311.81235 0.01905
2310.52658 0.01895
2309.24081 0.01896
2307.95504 0.01892
2306.66928 0.01887
2305.38351 0.01866
2304.09774 0.01833
2302.81197 0.01803
2301.52620 0.01784
2300.24043 0.01786
2298.95466 0.01798
2297.66889 0.01811
2296.38312 0.01817
2295.09736 0.01814
2293.81159 0.01803
2292.52582 0.01789
2291.24005 0.01783
2289.95428 0.01794
2288.66851 0.01821
2287.38274 0.01850
2286.09697 0.01867
2284.81121 0.01866
2283.52544 0.01855
2282.23967 0.01837
2280.95390 0.01813
2279.66813 0.01777
2278.38236 0.01725
2277.09659 0.01662
2275.81082 0.01613
2274.52505 0.01612
2273.23929 0.01671
2271.95352 0.01753
2270.66775 0.01798
2269.38198 0.01762
2268.09621 0.01655
2266.81044 0.01540
2265.52467 0.01492
2264.23890 0.01537
2262.95314 0.01617
2261.66737 0.01640
2260.38160 0.01569
2259.09583 0.01455
2257.81006 0.01369
2256.52429 0.01339
2255.23852 0.01339
2253.95275 0.01347
2252.66698 0.01358
2251.38122 0.01360
2250.09545 0.01373
2248.80968 0.01504
2247.52391 0.01511
2246.23814 0.01481
2244.95237 0.01440
2243.66660 0.01404
2242.38083 0.01371
2241.09507 0.01333
2239.80930 0.01299
2238.52353 0.01300
2237.23776 0.01362
2235.95199 0.01465
2234.66622 0.01559
2233.38045 0.01606
2232.09468 0.01608
2230.80891 0.01586
2229.52315 0.01540
2228.23738 0.01459
2226.95161 0.01356
2225.66584 0.01265
2224.38007 0.01216
2223.09430 0.01207
2221.80853 0.01223
2220.52276 0.01255
2219.23700 0.01305
2217.95123 0.01358
2216.66546 0.01385
2215.37969 0.01372
2214.09392 0.01347
2212.80815 0.01345
2211.52238 0.01361
2210.23661 0.01362
2208.95084 0.01335
2207.66508 0.01299
2206.37931 0.01259
2205.09354 0.01203
2203.80777 0.01142
2202.52200 0.01110
2201.23623 0.01126
2199.95046 0.01172
2198.66469 0.01216
2197.37893 0.01240
2196.09316 0.01229
2194.80739 0.01174
2193.52162 0.01105
2192.23585 0.01083
2190.95008 0.01150
2189.66431 0.01274
2188.37854 0.01370
2187.09277 0.01360
2185.80701 0.01236
2184.52124 0.01060
2183.23547 0.00924
2181.94970 0.00890
2180.66393 0.00956
2179.37816 0.01063
2178.09239 0.01120
2176.80662 0.01059
2175.52085 0.00895
2174.23509 0.00729
2172.94932 0.00663
2171.66355 0.00722
2170.37778 0.00855
2169.09201 0.00982
2167.80624 0.01035
2166.52047 0.00997
2165.23470 0.00900
2163.94894 0.00797
2162.66317 0.00700
2161.37740 0.00589
2160.09163 0.00457
2158.80586 0.00344
2157.52009 0.00303
2156.23432 0.00341
2154.94855 0.00406
2153.66278 0.00429
2152.37702 0.00393
2151.09125 0.00352
2149.80548 0.00365
2148.51971 0.00427
2147.23394 0.00485
2145.94817 0.00513
2144.66240 0.00529
2143.37663 0.00557
2142.09087 0.00602
2140.80510 0.00649
2139.51933 0.00675
2138.23356 0.00668
2136.94779 0.00642
2135.66202 0.00634
2134.37625 0.00661
2133.09048 0.00699
2131.80471 0.00717
2130.51895 0.00710
2129.23318 0.00689
2127.94741 0.00670
2126.66164 0.00667
2125.37587 0.00691
2124.09010 0.00733
2122.80433 0.00779
2121.51856 0.00822
2120.23280 0.00872
2118.94703 0.00942
2117.66126 0.01027
2116.37549 0.01106
2115.08972 0.01154
2113.80395 0.01153
2112.51818 0.01112
2111.23241 0.01067
2109.94664 0.01047
2108.66088 0.01044
2107.37511 0.01022
2106.08934 0.00967
2104.80357 0.00905
2103.51780 0.00871
2102.23203 0.00874
2100.94626 0.00898
2099.66049 0.00872
2098.37473 0.00883
2097.08896 0.00861
2095.80319 0.00798
2094.51742 0.00749
2093.23165 0.00763
2091.94588 0.00837
2090.66011 0.00912
2089.37434 0.00927
2088.08857 0.00873
2086.80281 0.00793
2085.51704 0.00744
2084.23127 0.00750
2082.94550 0.00798
2081.65973 0.00854
2080.37396 0.00888
2079.08819 0.00886
2077.80242 0.00850
2076.51666 0.00793
2075.23089 0.00736
2073.94512 0.00703
2072.65935 0.00705
2071.37358 0.00731
2070.08781 0.00750
2068.80204 0.00748
2067.51627 0.00731
2066.23050 0.00717
2064.94474 0.00709
2063.65897 0.00703
2062.37320 0.00694
2061.08743 0.00691
2059.80166 0.00701
2058.51589 0.00725
2057.23012 0.00745
2055.94435 0.00745
2054.65859 0.00722
2053.37282 0.00700
2052.08705 0.00693
2050.80128 0.00682
2049.51551 0.00639
2048.22974 0.00562
2046.94397 0.00493
2045.65820 0.00468
2044.37243 0.00478
2043.08667 0.00484
2041.80090 0.00473
2040.51513 0.00480
2039.22936 0.00540
2037.94359 0.00635
2036.65782 0.00702
2035.37205 0.00693
2034.08628 0.00614
2032.80052 0.00499
2031.51475 0.00364
2030.22898 0.00222
2028.94321 0.00113
2027.65744 0.00085
2026.37167 0.00133
2025.08590 0.00190
2023.80013 0.00195
2022.51436 0.00156
2021.22860 0.00139
2019.94283 0.00196
2018.65706 0.00322
2017.37129 0.00463
2016.08552 0.00561
2014.79975 0.00596
2013.51398 0.00596
2012.22821 0.00602
2010.94245 0.00616
2009.65668 0.00606
2008.37091 0.00558
2007.08514 0.00500
2005.79937 0.00459
2004.51360 0.00426
2003.22783 0.00390
2001.94206 0.00373
2000.65629 0.00422
1999.37053 0.00538
1998.08476 0.00665
1996.79899 0.00737
1995.51322 0.00734
1994.22745 0.00695
1992.94168 0.00666
1991.65591 0.00664
1990.37014 0.00673
1989.08438 0.00673
1987.79861 0.00670
1986.51284 0.00683
1985.22707 0.00716
1983.94130 0.00748
1982.65553 0.00742
1981.36976 0.00670
1980.08399 0.00538
1978.79822 0.00390
1977.51246 0.00282
1976.22669 0.00243
1974.94092 0.00265
1973.65515 0.00338
1972.36938 0.00453
1971.08361 0.00592
1969.79784 0.00715
1968.51207 0.00787
1967.22631 0.00795
1965.94054 0.00762
1964.65477 0.00729
1963.36900 0.00725
1962.08323 0.00750
1960.79746 0.00786
1959.51169 0.00819
1958.22592 0.00843
1956.94015 0.00844
1955.65439 0.00806
1954.36862 0.00741
1953.08285 0.00689
1951.79708 0.00686
1950.51131 0.00733
1949.22554 0.00795
1947.93977 0.00832
1946.65400 0.00835
1945.36823 0.00827
1944.08247 0.00835
1942.79670 0.00861
1941.51093 0.00883
1940.22516 0.00881
1938.93939 0.00862
1937.65362 0.00844
1936.36785 0.00842
1935.08208 0.00860
1933.79632 0.00899
1932.51055 0.00956
1931.22478 0.01015
1929.93901 0.01059
1928.65324 0.01080
1927.36747 0.01077
1926.08170 0.01053
1924.79593 0.01023
1923.51016 0.01010
1922.22440 0.01026
1920.93863 0.01050
1919.65286 0.01051
1918.36709 0.01030
1917.08132 0.01013
1915.79555 0.01019
1914.50978 0.01037
1913.22401 0.01045
1911.93825 0.01027
1910.65248 0.00984
1909.36671 0.00936
1908.08094 0.00905
1906.79517 0.00897
1905.50940 0.00902
1904.22363 0.00911
1902.93786 0.00925
1901.65209 0.00949
1900.36633 0.00986
1899.08056 0.01030
1897.79479 0.01070
1896.50902 0.01104
1895.22325 0.01134
1893.93748 0.01164
1892.65171 0.01186
1891.36594 0.01183
1890.08018 0.01150
1888.79441 0.01098
1887.50864 0.01045
1886.22287 0.01001
1884.93710 0.00969
1883.65133 0.00942
1882.36556 0.00923
1881.07979 0.00919
1879.79402 0.00936
1878.50826 0.00975
1877.22249 0.01021
1875.93672 0.01053
1874.65095 0.01063
1873.36518 0.01056
1872.07941 0.01044
1870.79364 0.01031
1869.50787 0.01022
1868.22211 0.01017
1866.93634 0.01021
1865.65057 0.01035
1864.36480 0.01056
1863.07903 0.01076
1861.79326 0.01085
1860.50749 0.01078
1859.22172 0.01058
1857.93595 0.01039
1856.65019 0.01032
1855.36442 0.01043
1854.07865 0.01068
1852.79288 0.01095
1851.50711 0.01117
1850.22134 0.01129
1848.93557 0.01134
1847.64980 0.01139
1846.36404 0.01139
1845.07827 0.01132
1843.79250 0.01124
1842.50673 0.01118
1841.22096 0.01112
1839.93519 0.01104
1838.64942 0.01096
1837.36365 0.01093
1836.07788 0.01098
1834.79212 0.01117
1833.50635 0.01142
1832.22058 0.01162
1830.93481 0.01167
1829.64904 0.01164
1828.36327 0.01160
1827.07750 0.01151
1825.79173 0.01136
1824.50597 0.01123
1823.22020 0.01112
1821.93443 0.01094
1820.64866 0.01071
1819.36289 0.01058
1818.07712 0.01063
1816.79135 0.01087
1815.50558 0.01116
1814.21981 0.01133
1812.93405 0.01131
1811.64828 0.01122
1810.36251 0.01124
1809.07674 0.01139
1807.79097 0.01157
1806.50520 0.01169
1805.21943 0.01175
1803.93366 0.01179
1802.64790 0.01178
1801.36213 0.01169
1800.07636 0.01157
1798.79059 0.01147
1797.50482 0.01143
1796.21905 0.01148
1794.93328 0.01152
1793.64751 0.01151
1792.36174 0.01155
1791.07598 0.01175
1789.79021 0.01202
1788.50444 0.01222
1787.21867 0.01225
1785.93290 0.01220
1784.64713 0.01218
1783.36136 0.01224
1782.07559 0.01229
1780.78983 0.01231
1779.50406 0.01234
1778.21829 0.01243
1776.93252 0.01257
1775.64675 0.01265
1774.36098 0.01255
1773.07521 0.01235
1771.78944 0.01228
1770.50367 0.01236
1769.21791 0.01246
1767.93214 0.01256
1766.64637 0.01275
1765.36060 0.01299
1764.07483 0.01319
1762.78906 0.01332
1761.50329 0.01348
1760.21752 0.01361
1758.93176 0.01360
1757.64599 0.01346
1756.36022 0.01334
1755.07445 0.01329
1753.78868 0.01321
1752.50291 0.01306
1751.21714 0.01300
1749.93137 0.01315
1748.64560 0.01340
1747.35984 0.01359
1746.07407 0.01372
1744.78830 0.01381
1743.50253 0.01390
1742.21676 0.01398
1740.93099 0.01405
1739.64522 0.01423
1738.35945 0.01457
1737.07369 0.01484
1735.78792 0.01479
1734.50215 0.01462
1733.21638 0.01466
1731.93061 0.01492
1730.64484 0.01509
1729.35907 0.01515
1728.07330 0.01523
1726.78753 0.01540
1725.50177 0.01559
1724.21600 0.01582
1722.93023 0.01618
1721.64446 0.01663
1720.35869 0.01699
1719.07292 0.01712
1717.78715 0.01721
1716.50138 0.01745
1715.21561 0.01785
1713.92985 0.01827
1712.64408 0.01874
1711.35831 0.01928
1710.07254 0.01984
1708.78677 0.02037
1707.50100 0.02079
1706.21523 0.02118
1704.92946 0.02171
1703.64370 0.02233
1702.35793 0.02281
1701.07216 0.02322
1699.78639 0.02393
1698.50062 0.02480
1697.21485 0.02540
1695.92908 0.02582
1694.64331 0.02641
1693.35754 0.02705
1692.07178 0.02739
1690.78601 0.02754
1689.50024 0.02781
1688.21447 0.02820
1686.92870 0.02842
1685.64293 0.02845
1684.35716 0.02871
1683.07139 0.02941
1681.78563 0.03021
1680.49986 0.03081
1679.21409 0.03128
1677.92832 0.03169
1676.64255 0.03205
1675.35678 0.03250
1674.07101 0.03316
1672.78524 0.03383
1671.49947 0.03431
1670.21371 0.03468
1668.92794 0.03518
1667.64217 0.03585
1666.35640 0.03653
1665.07063 0.03703
1663.78486 0.03744
1662.49909 0.03792
1661.21332 0.03852
1659.92756 0.03911
1658.64179 0.03966
1657.35602 0.04021
1656.07025 0.04059
1654.78448 0.04063
1653.49871 0.04066
1652.21294 0.04118
1650.92717 0.04200
1649.64140 0.04246
1648.35564 0.04239
1647.06987 0.04224
1645.78410 0.04239
1644.49833 0.04280
1643.21256 0.04317
1641.92679 0.04335
1640.64102 0.04344
1639.35525 0.04355
1638.06949 0.04362
1636.78372 0.04368
1635.49795 0.04393
1634.21218 0.04445
1632.92641 0.04506
1631.64064 0.04553
1630.35487 0.04588
1629.06910 0.04621
1627.78333 0.04651
1626.49757 0.04662
1625.21180 0.04639
1623.92603 0.04585
1622.64026 0.04519
1621.35449 0.04455
1620.06872 0.04377
1618.78295 0.04271
1617.49718 0.04153
1616.21142 0.04061
1614.92565 0.04002
1613.63988 0.03953
1612.35411 0.03899
1611.06834 0.03848
1609.78257 0.03806
1608.49680 0.03771
1607.21103 0.03743
1605.92526 0.03720
1604.63950 0.03703
1603.35373 0.03690
1602.06796 0.03682
1600.78219 0.03677
1599.49642 0.03672
1598.21065 0.03669
1596.92488 0.03671
1595.63911 0.03682
1594.35335 0.03701
1593.06758 0.03722
1591.78181 0.03738
1590.49604 0.03749
1589.21027 0.03761
1587.92450 0.03776
1586.63873 0.03795
1585.35296 0.03816
1584.06719 0.03840
1582.78143 0.03869
1581.49566 0.03909
1580.20989 0.03959
1578.92412 0.04002
1577.63835 0.04028
1576.35258 0.04056
1575.06681 0.04110
1573.78104 0.04178
1572.49528 0.04227
1571.20951 0.04255
1569.92374 0.04285
1568.63797 0.04332
1567.35220 0.04382
1566.06643 0.04425
1564.78066 0.04465
1563.49489 0.04509
1562.20912 0.04537
1560.92336 0.04531
1559.63759 0.04517
1558.35182 0.04537
1557.06605 0.04582
1555.78028 0.04611
1554.49451 0.04615
1553.20874 0.04617
1551.92297 0.04625
1550.63721 0.04631
1549.35144 0.04635
1548.06567 0.04638
1546.77990 0.04635
1545.49413 0.04624
1544.20836 0.04609
1542.92259 0.04583
1541.63682 0.04534
1540.35105 0.04476
1539.06529 0.04441
1537.77952 0.04437
1536.49375 0.04430
1535.20798 0.04399
1533.92221 0.04362
1532.63644 0.04347
1531.35067 0.04352
1530.06490 0.04355
1528.77914 0.04349
1527.49337 0.04340
1526.20760 0.04337
1524.92183 0.04340
1523.63606 0.04337
1522.35029 0.04327
1521.06452 0.04334
1519.77875 0.04362
1518.49298 0.04386
1517.20722 0.04392
1515.92145 0.04396
1514.63568 0.04411
1513.34991 0.04434
1512.06414 0.04466
1510.77837 0.04505
1509.49260 0.04535
1508.20683 0.04542
1506.92107 0.04545
1505.63530 0.04574
1504.34953 0.04623
1503.06376 0.04662
1501.77799 0.04680
1500.49222 0.04690
1499.20645 0.04703
1497.92068 0.04712
1496.63491 0.04720
1495.34915 0.04737
1494.06338 0.04762
1492.77761 0.04783
1491.49184 0.04798
1490.20607 0.04821
1488.92030 0.04857
1487.63453 0.04901
1486.34876 0.04948
1485.06299 0.04996
1483.77723 0.05041
1482.49146 0.05084
1481.20569 0.05132
1479.91992 0.05190
1478.63415 0.05260
1477.34838 0.05342
1476.06261 0.05428
1474.77684 0.05509
1473.49108 0.05581
1472.20531 0.05661
1470.91954 0.05753
1469.63377 0.05846
1468.34800 0.05927
1467.06223 0.05996
1465.77646 0.06063
1464.49069 0.06139
1463.20492 0.06224
1461.91916 0.06307
1460.63339 0.06377
1459.34762 0.06423
1458.06185 0.06452
1456.77608 0.06492
1455.49031 0.06551
1454.20454 0.06605
1452.91877 0.06632
1451.63301 0.06641
1450.34724 0.06647
1449.06147 0.06651
1447.77570 0.06651
1446.48993 0.06643
1445.20416 0.06625
1443.91839 0.06600
1442.63262 0.06576
1441.34685 0.06557
1440.06109 0.06537
1438.77532 0.06504
1437.48955 0.06466
1436.20378 0.06445
1434.91801 0.06451
1433.63224 0.06467
1432.34647 0.06480
1431.06070 0.06494
1429.77494 0.06517
1428.48917 0.06552
1427.20340 0.06597
1425.91763 0.06649
1424.63186 0.06711
1423.34609 0.06782
1422.06032 0.06846
1420.77455 0.06894
1419.48878 0.06936
1418.20302 0.06990
1416.91725 0.07050
1415.63148 0.07099
1414.34571 0.07130
1413.05994 0.07145
1411.77417 0.07144
1410.48840 0.07125
1409.20263 0.07090
1407.91687 0.07044
1406.63110 0.06988
1405.34533 0.06926
1404.05956 0.06857
1402.77379 0.06777
1401.48802 0.06679
1400.20225 0.06569
1398.91648 0.06457
1397.63071 0.06349
1396.34495 0.06240
1395.05918 0.06127
1393.77341 0.06019
1392.48764 0.05920
1391.20187 0.05825
1389.91610 0.05729
1388.63033 0.05633
1387.34456 0.05538
1386.05880 0.05450
1384.77303 0.05364
1383.48726 0.05275
1382.20149 0.05182
1380.91572 0.05089
1379.62995 0.04995
1378.34418 0.04902
1377.05841 0.04807
1375.77264 0.04703
1374.48688 0.04588
1373.20111 0.04468
1371.91534 0.04347
1370.62957 0.04227
1369.34380 0.04114
1368.05803 0.04011
1366.77226 0.03918
1365.48649 0.03831
1364.20073 0.03745
1362.91496 0.03661
1361.62919 0.03583
1360.34342 0.03509
1359.05765 0.03442
1357.77188 0.03384
1356.48611 0.03335
1355.20034 0.03289
1353.91457 0.03243
1352.62881 0.03197
1351.34304 0.03155
1350.05727 0.03121
1348.77150 0.03094
1347.48573 0.03071
1346.19996 0.03049
1344.91419 0.03027
1343.62842 0.03004
1342.34266 0.02978
1341.05689 0.02947
1339.77112 0.02916
1338.48535 0.02890
1337.19958 0.02870
1335.91381 0.02852
1334.62804 0.02833
1333.34227 0.02815
1332.05650 0.02800
1330.77074 0.02788
1329.48497 0.02774
1328.19920 0.02755
1326.91343 0.02730
1325.62766 0.02703
1324.34189 0.02678
1323.05612 0.02656
1321.77035 0.02636
1320.48459 0.02620
1319.19882 0.02609
1317.91305 0.02600
1316.62728 0.02590
1315.34151 0.02574
1314.05574 0.02557
1312.76997 0.02544
1311.48420 0.02537
1310.19843 0.02532
1308.91267 0.02524
1307.62690 0.02509
1306.34113 0.02492
1305.05536 0.02475
1303.76959 0.02459
1302.48382 0.02445
1301.19805 0.02430
1299.91228 0.02416
1298.62652 0.02404
1297.34075 0.02393
1296.05498 0.02384
1294.76921 0.02374
1293.48344 0.02364
1292.19767 0.02355
1290.91190 0.02349
1289.62613 0.02342
1288.34036 0.02333
1287.05460 0.02321
1285.76883 0.02310
1284.48306 0.02304
1283.19729 0.02306
1281.91152 0.02312
1280.62575 0.02318
1279.33998 0.02316
1278.05421 0.02307
1276.76845 0.02294
1275.48268 0.02281
1274.19691 0.02270
1272.91114 0.02258
1271.62537 0.02247
1270.33960 0.02239
1269.05383 0.02239
1267.76806 0.02247
1266.48229 0.02259
1265.19653 0.02269
1263.91076 0.02273
1262.62499 0.02270
1261.33922 0.02264
1260.05345 0.02258
1258.76768 0.02255
1257.48191 0.02256
1256.19614 0.02260
1254.91037 0.02267
1253.62461 0.02274
1252.33884 0.02278
1251.05307 0.02279
1249.76730 0.02278
1248.48153 0.02277
1247.19576 0.02276
1245.90999 0.02277
1244.62422 0.02281
1243.33846 0.02286
1242.05269 0.02288
1240.76692 0.02286
1239.48115 0.02281
1238.19538 0.02277
1236.90961 0.02277
1235.62384 0.02284
1234.33807 0.02293
1233.05230 0.02300
1231.76654 0.02301
1230.48077 0.02296
1229.19500 0.02286
1227.90923 0.02274
1226.62346 0.02262
1225.33769 0.02251
1224.05192 0.02240
1222.76615 0.02229
1221.48039 0.02217
1220.19462 0.02205
1218.90885 0.02194
1217.62308 0.02183
1216.33731 0.02171
1215.05154 0.02160
1213.76577 0.02154
1212.48000 0.02151
1211.19423 0.02152
1209.90847 0.02155
1208.62270 0.02156
1207.33693 0.02157
1206.05116 0.02156
1204.76539 0.02155
1203.47962 0.02151
1202.19385 0.02139
1200.90808 0.02127
1199.62232 0.02145
1198.33655 0.02143
1197.05078 0.02136
1195.76501 0.02129
1194.47924 0.02127
1193.19347 0.02133
1191.90770 0.02144
1190.62193 0.02152
1189.33616 0.02156
1188.05040 0.02154
1186.76463 0.02150
1185.47886 0.02149
1184.19309 0.02149
1182.90732 0.02151
1181.62155 0.02154
1180.33578 0.02159
1179.05001 0.02167
1177.76425 0.02180
1176.47848 0.02195
1175.19271 0.02209
1173.90694 0.02220
1172.62117 0.02231
1171.33540 0.02241
1170.04963 0.02252
1168.76386 0.02263
1167.47809 0.02276
1166.19233 0.02290
1164.90656 0.02304
1163.62079 0.02315
1162.33502 0.02324
1161.04925 0.02332
1159.76348 0.02340
1158.47771 0.02350
1157.19194 0.02366
1155.90618 0.02389
1154.62041 0.02413
1153.33464 0.02434
1152.04887 0.02450
1150.76310 0.02463
1149.47733 0.02474
1148.19156 0.02486
1146.90579 0.02500
1145.62002 0.02520
1144.33426 0.02548
1143.04849 0.02584
1141.76272 0.02628
1140.47695 0.02682
1139.19118 0.02742
1137.90541 0.02807
1136.61964 0.02878
1135.33387 0.02958
1134.04811 0.03046
1132.76234 0.03137
1131.47657 0.03230
1130.19080 0.03327
1128.90503 0.03436
1127.61926 0.03567
1126.33349 0.03722
1125.04772 0.03896
1123.76195 0.04080
1122.47619 0.04271
1121.19042 0.04463
1119.90465 0.04653
1118.61888 0.04838
1117.33311 0.05026
1116.04734 0.05222
1114.76157 0.05431
1113.47580 0.05644
1112.19004 0.05850
1110.90427 0.06039
1109.61850 0.06214
1108.33273 0.06388
1107.04696 0.06567
1105.76119 0.06747
1104.47542 0.06922
1103.18965 0.07086
1101.90388 0.07236
1100.61812 0.07374
1099.33235 0.07510
1098.04658 0.07656
1096.76081 0.07810
1095.47504 0.07959
1094.18927 0.08090
1092.90350 0.08203
1091.61773 0.08306
1090.33197 0.08407
1089.04620 0.08510
1087.76043 0.08612
1086.47466 0.08716
1085.18889 0.08824
1083.90312 0.08936
1082.61735 0.09053
1081.33158 0.09174
1080.04581 0.09298
1078.76005 0.09428
1077.47428 0.09569
1076.18851 0.09725
1074.90274 0.09891
1073.61697 0.10059
1072.33120 0.10228
1071.04543 0.10400
1069.75966 0.10581
1068.47390 0.10772
1067.18813 0.10971
1065.90236 0.11172
1064.61659 0.11373
1063.33082 0.11575
1062.04505 0.11775
1060.75928 0.11972
1059.47351 0.12168
1058.18774 0.12361
1056.90198 0.12550
1055.61621 0.12733
1054.33044 0.12911
1053.04467 0.13088
1051.75890 0.13272
1050.47313 0.13468
1049.18736 0.13670
1047.90159 0.13873
1046.61583 0.14067
1045.33006 0.14251
1044.04429 0.14430
1042.75852 0.14606
1041.47275 0.14783
1040.18698 0.14967
1038.90121 0.15159
1037.61544 0.15353
1036.32967 0.15542
1035.04391 0.15719
1033.75814 0.15880
1032.47237 0.16020
1031.18660 0.16135
1029.90083 0.16227
1028.61506 0.16305
1027.32929 0.16371
1026.04352 0.16424
1024.75775 0.16461
1023.47199 0.16480
1022.18622 0.16477
1020.90045 0.16449
1019.61468 0.16392
1018.32891 0.16310
1017.04314 0.16206
1015.75737 0.16083
1014.47160 0.15940
1013.18584 0.15779
1011.90007 0.15596
1010.61430 0.15389
1009.32853 0.15157
1008.04276 0.14899
1006.75699 0.14618
1005.47122 0.14317
1004.18545 0.14000
1002.89968 0.13666
1001.61392 0.13316
1000.32815 0.12956
999.04238 0.12589
997.75661 0.12218
996.47084 0.11842
995.18507 0.11465
993.89930 0.11090
992.61353 0.10719
991.32777 0.10353
990.04200 0.09995
988.75623 0.09648
987.47046 0.09318
986.18469 0.09005
984.89892 0.08705
983.61315 0.08411
982.32738 0.08122
981.04161 0.07843
979.75585 0.07582
978.47008 0.07340
977.18431 0.07120
975.89854 0.06922
974.61277 0.06749
973.32700 0.06600
972.04123 0.06472
970.75546 0.06365
969.46970 0.06286
968.18393 0.06243
966.89816 0.06239
965.61239 0.06264
964.32662 0.06298
963.04085 0.06319
961.75508 0.06313
960.46931 0.06279
959.18354 0.06221
957.89778 0.06144
956.61201 0.06048
955.32624 0.05934
954.04047 0.05807
952.75470 0.05676
951.46893 0.05546
950.18316 0.05419
948.89739 0.05292
947.61163 0.05164
946.32586 0.05042
945.04009 0.04930
943.75432 0.04829
942.46855 0.04729
941.18278 0.04624
939.89701 0.04518
938.61124 0.04418
937.32547 0.04327
936.03971 0.04244
934.75394 0.04167
933.46817 0.04095
932.18240 0.04030
930.89663 0.03970
929.61086 0.03914
928.32509 0.03860
927.03932 0.03807
925.75356 0.03757
924.46779 0.03711
923.18202 0.03671
921.89625 0.03638
920.61048 0.03605
919.32471 0.03566
918.03894 0.03520
916.75317 0.03473
915.46740 0.03435
914.18164 0.03410
912.89587 0.03392
911.61010 0.03372
910.32433 0.03341
909.03856 0.03298
907.75279 0.03254
906.46702 0.03216
905.18125 0.03190
903.89549 0.03170
902.60972 0.03149
901.32395 0.03122
900.03818 0.03091
898.75241 0.03059
897.46664 0.03028
896.18087 0.03000
894.89510 0.02976
893.60933 0.02959
892.32357 0.02952
891.03780 0.02954
889.75203 0.02963
888.46626 0.02978
887.18049 0.03006
885.89472 0.03055
884.60895 0.03138
883.32318 0.03265
882.03742 0.03426
880.75165 0.03590
879.46588 0.03721
878.18011 0.03806
876.89434 0.03861
875.60857 0.03911
874.32280 0.03972
873.03703 0.04033
871.75126 0.04073
870.46550 0.04073
869.17973 0.04026
867.89396 0.03941
866.60819 0.03830
865.32242 0.03703
864.03665 0.03569
862.75088 0.03442
861.46511 0.03333
860.17935 0.03242
858.89358 0.03160
857.60781 0.03084
856.32204 0.03015
855.03627 0.02956
853.75050 0.02909
852.46473 0.02873
851.17896 0.02844
849.89319 0.02815
848.60743 0.02784
847.32166 0.02756
846.03589 0.02731
844.75012 0.02709
843.46435 0.02688
842.17858 0.02669
840.89281 0.02659
839.60704 0.02662
838.32128 0.02669
837.03551 0.02668
835.74974 0.02652
834.46397 0.02627
833.17820 0.02602
831.89243 0.02584
830.60666 0.02575
829.32089 0.02572
828.03512 0.02575
826.74936 0.02582
825.46359 0.02590
824.17782 0.02599
822.89205 0.02606
821.60628 0.02611
820.32051 0.02609
819.03474 0.02600
817.74897 0.02584
816.46321 0.02563
815.17744 0.02541
813.89167 0.02524
812.60590 0.02520
811.32013 0.02531
810.03436 0.02549
808.74859 0.02564
807.46282 0.02569
806.17705 0.02570
804.89129 0.02573
803.60552 0.02583
802.31975 0.02596
801.03398 0.02610
799.74821 0.02620
798.46244 0.02624
797.17667 0.02619
795.89090 0.02605
794.60513 0.02585
793.31937 0.02565
792.03360 0.02551
790.74783 0.02549
789.46206 0.02558
788.17629 0.02572
786.89052 0.02586
785.60475 0.02597
784.31898 0.02601
783.03322 0.02592
781.74745 0.02575
780.46168 0.02564
779.17591 0.02566
777.89014 0.02573
776.60437 0.02573
775.31860 0.02563
774.03283 0.02550
772.74706 0.02542
771.46130 0.02544
770.17553 0.02554
768.88976 0.02569
767.60399 0.02581
766.31822 0.02585
765.03245 0.02582
763.74668 0.02578
762.46091 0.02579
761.17515 0.02583
759.88938 0.02587
758.60361 0.02589
757.31784 0.02588
756.03207 0.02583
754.74630 0.02582
753.46053 0.02591
752.17476 0.02605
750.88899 0.02612
749.60323 0.02606
748.31746 0.02599
747.03169 0.02601
745.74592 0.02610
744.46015 0.02611
743.17438 0.02598
741.88861 0.02573
740.60284 0.02548
739.31708 0.02530
738.03131 0.02518
736.74554 0.02507
735.45977 0.02499
734.17400 0.02500
732.88823 0.02513
731.60246 0.02530
730.31669 0.02541
729.03092 0.02545
727.74516 0.02542
726.45939 0.02539
725.17362 0.02542
723.88785 0.02577
722.60208 0.02575
721.31631 0.02575
720.03054 0.02582
718.74477 0.02586
717.45901 0.02585
716.17324 0.02581
714.88747 0.02572
713.60170 0.02561
712.31593 0.02552
711.03016 0.02548
709.74439 0.02552
708.45862 0.02561
707.17285 0.02572
705.88709 0.02582
704.60132 0.02592
703.31555 0.02602
702.02978 0.02613
700.74401 0.02622
699.45824 0.02628
698.17247 0.02633
696.88670 0.02636
695.60094 0.02633
694.31517 0.02624
693.02940 0.02610
691.74363 0.02599
690.45786 0.02593
689.17209 0.02589
687.88632 0.02585
686.60055 0.02580
685.31478 0.02574
684.02902 0.02563
682.74325 0.02549
681.45748 0.02536
680.17171 0.02531
678.88594 0.02535
677.60017 0.02544
676.31440 0.02554
675.02863 0.02566
673.74287 0.02579
672.45710 0.02593
671.17133 0.02607
669.88556 0.02620
668.59979 0.02632
667.31402 0.02639
666.02825 0.02634
664.74248 0.02623
663.45671 0.02611
662.17095 0.02600
660.88518 0.02592
659.59941 0.02583
658.31364 0.02573
657.02787 0.02560
655.74210 0.02546
654.45633 0.02533
653.17056 0.02522
651.88480 0.02515
650.59903 0.02511
649.31326 0.02509
648.02749 0.02508
646.74172 0.02510
645.45595 0.02516
644.17018 0.02523
642.88441 0.02526
641.59864 0.02521
640.31288 0.02512
639.02711 0.02508
637.74134 0.02512
636.45557 0.02522
635.16980 0.02537
633.88403 0.02564
632.59826 0.02593
631.31249 0.02551
630.02673 0.02381
628.74096 0.02359
627.45519 0.02614
626.16942 0.02716
624.88365 0.02688
623.59788 0.02650
622.31211 0.02661
621.02634 0.02751
619.74057 0.02918
618.45481 0.03134
617.16904 0.03373
615.88327 0.03633
614.59750 0.03930
613.31173 0.04283
612.02596 0.04676
610.74019 0.05056
609.45442 0.05382
608.16866 0.05666
606.88289 0.05938
605.59712 0.06194
604.31135 0.06387
603.02558 0.06473
601.73981 0.06447
600.45404 0.06337
599.16827 0.06180
597.88250 0.06006
596.59674 0.05832
595.31097 0.05673
594.02520 0.05543
592.73943 0.05447
591.45366 0.05380
590.16789 0.05333
588.88212 0.05303
587.59635 0.05298
586.31059 0.05329
585.02482 0.05403
583.73905 0.05520
582.45328 0.05676
581.16751 0.05859
579.88174 0.06051
578.59597 0.06232
577.31020 0.06389
576.02443 0.06525
574.73867 0.06651
573.45290 0.06779
572.16713 0.06915
570.88136 0.07060
569.59559 0.07216
568.30982 0.07393
567.02405 0.07588
565.73828 0.07780
564.45251 0.07933
563.16675 0.08016
561.88098 0.08021
560.59521 0.07947
559.30944 0.07794
558.02367 0.07568
556.73790 0.07287
555.45213 0.06969
554.16636 0.06629
552.88060 0.06282
551.59483 0.05949
550.30906 0.05649
549.02329 0.05385
547.73752 0.05151
546.45175 0.04947
545.16598 0.04775
543.88021 0.04637
542.59444 0.04529
541.30868 0.04440
540.02291 0.04354
538.73714 0.04259
537.45137 0.04157
536.16560 0.04059
534.87983 0.03981
533.59406 0.03925
532.30829 0.03881
531.02253 0.03836
529.73676 0.03778
528.45099 0.03707
527.16522 0.03626
525.87945 0.03551
524.59368 0.03494
523.30791 0.03462
522.02214 0.03443
520.73637 0.03419
519.45061 0.03380
518.16484 0.03327
516.87907 0.03267
515.59330 0.03211
514.30753 0.03166
513.02176 0.03131
511.73599 0.03103
510.45022 0.03076
509.16446 0.03047
507.87869 0.03020
506.59292 0.02996
505.30715 0.02976
504.02138 0.02957
502.73561 0.02934
501.44984 0.02910
500.16407 0.02887
498.87830 0.02869
497.59254 0.02854
496.30677 0.02835
495.02100 0.02808
493.73523 0.02779
492.44946 0.02759
491.16369 0.02756
489.87792 0.02764
488.59215 0.02773
487.30639 0.02777
486.02062 0.02780
484.73485 0.02787
483.44908 0.02801
482.16331 0.02821
480.87754 0.02850
479.59177 0.02887
478.30600 0.02931
477.02023 0.02980
475.73447 0.03027
474.44870 0.03066
473.16293 0.03095
471.87716 0.03113
470.59139 0.03120
469.30562 0.03114
468.01985 0.03100
466.73408 0.03078
465.44832 0.03047
464.16255 0.03006
462.87678 0.02960
461.59101 0.02916
460.30524 0.02873
459.01947 0.02832
457.73370 0.02793
456.44793 0.02757
455.16216 0.02719
453.87640 0.02681
452.59063 0.02646
451.30486 0.02619
450.01909 0.02596
448.73332 0.02573
447.44755 0.02550
446.16178 0.02529
444.87601 0.02515
443.59025 0.02506
442.30448 0.02498
441.01871 0.02484
439.73294 0.02464
438.44717 0.02443
437.16140 0.02427
435.87563 0.02419
434.58986 0.02416
433.30409 0.02411
432.01833 0.02402
430.73256 0.02388
429.44679 0.02370
428.16102 0.02353
426.87525 0.02340
425.58948 0.02331
424.30371 0.02321
423.01794 0.02306
421.73218 0.02285
420.44641 0.02261
419.16064 0.02240
417.87487 0.02224
416.58910 0.02204
415.30333 0.02177
414.01756 0.02148
412.73179 0.02125
411.44602 0.02110
410.16026 0.02098
408.87449 0.02087
407.58872 0.02075
406.30295 0.02064
405.01718 0.02060
403.73141 0.02063
402.44564 0.02072
401.15987 0.02082
399.87411 0.02088
