3997.45528 0.04343
3996.16951 0.04392
3994.88374 0.04447
3993.59798 0.04514
3992.31221 0.04579
3991.02644 0.04610
3989.74067 0.04577
3988.45490 0.04490
3987.16913 0.04402
3985.88336 0.04366
3984.59759 0.04401
3983.31183 0.04481
3982.02606 0.04556
3980.74029 0.04585
3979.45452 0.04554
3978.16875 0.04477
3976.88298 0.04392
3975.59721 0.04337
3974.31144 0.04331
3973.02567 0.04361
3971.73991 0.04393
3970.45414 0.04396
3969.16837 0.04367
3967.88260 0.04328
3966.59683 0.04316
3965.31106 0.04339
3964.02529 0.04371
3962.73952 0.04373
3961.45376 0.04330
3960.16799 0.04263
3958.88222 0.04207
3957.59645 0.04190
3956.31068 0.04221
3955.02491 0.04281
3953.73914 0.04320
3952.45337 0.04308
3951.16760 0.04266
3949.88184 0.04247
3948.59607 0.04264
3947.31030 0.04297
3946.02453 0.04341
3944.73876 0.04410
3943.45299 0.04496
3942.16722 0.04548
3940.88145 0.04532
3939.59569 0.04474
3938.30992 0.04431
3937.02415 0.04434
3935.73838 0.04468
3934.45261 0.04501
3933.16684 0.04499
3931.88107 0.04436
3930.59530 0.04305
3929.30953 0.04144
3928.02377 0.04027
3926.73800 0.04010
3925.45223 0.04084
3924.16646 0.04185
3922.88069 0.04257
3921.59492 0.04286
3920.30915 0.04287
3919.02338 0.04285
3917.73762 0.04287
3916.45185 0.04281
3915.16608 0.04258
3913.88031 0.04235
3912.59454 0.04232
3911.30877 0.04249
3910.02300 0.04271
3908.73723 0.04297
3907.45146 0.04355
3906.16570 0.04459
3904.87993 0.04567
3903.59416 0.04598
3902.30839 0.04527
3901.02262 0.04421
3899.73685 0.04379
3898.45108 0.04435
3897.16531 0.04541
3895.87955 0.04616
3894.59378 0.04615
3893.30801 0.04551
3892.02224 0.04476
3890.73647 0.04432
3889.45070 0.04431
3888.16493 0.04469
3886.87916 0.04516
3885.59339 0.04525
3884.30763 0.04474
3883.02186 0.04388
3881.73609 0.04324
3880.45032 0.04310
3879.16455 0.04333
3877.87878 0.04358
3876.59301 0.04353
3875.30724 0.04307
3874.02148 0.04243
3872.73571 0.04206
3871.44994 0.04215
3870.16417 0.04243
3868.87840 0.04269
3867.59263 0.04325
3866.30686 0.04417
3865.02109 0.04468
3863.73532 0.04395
3862.44956 0.04231
3861.16379 0.04102
3859.87802 0.04099
3858.59225 0.04192
3857.30648 0.04276
3856.02071 0.04283
3854.73494 0.04210
3853.44917 0.04096
3852.16341 0.04005
3850.87764 0.03997
3849.59187 0.04073
3848.30610 0.04160
3847.02033 0.04196
3845.73456 0.04185
3844.44879 0.04176
3843.16302 0.04190
3841.87725 0.04203
3840.59149 0.04198
3839.30572 0.04186
3838.01995 0.04200
3836.73418 0.04270
3835.44841 0.04398
3834.16264 0.04535
3832.87687 0.04593
3831.59110 0.04529
3830.30534 0.04390
3829.01957 0.04257
3827.73380 0.04171
3826.44803 0.04116
3825.16226 0.04078
3823.87649 0.04082
3822.59072 0.04135
3821.30495 0.04187
3820.01918 0.04189
3818.73342 0.04160
3817.44765 0.04147
3816.16188 0.04133
3814.87611 0.04075
3813.59034 0.03990
3812.30457 0.03949
3811.01880 0.03987
3809.73303 0.04077
3808.44726 0.04150
3807.16150 0.04139
3805.87573 0.04054
3804.58996 0.03987
3803.30419 0.04023
3802.01842 0.04143
3800.73265 0.04259
3799.44688 0.04316
3798.16111 0.04308
3796.87535 0.04239
3795.58958 0.04129
3794.30381 0.04032
3793.01804 0.03990
3791.73227 0.04007
3790.44650 0.04056
3789.16073 0.04113
3787.87496 0.04147
3786.58919 0.04134
3785.30343 0.04078
3784.01766 0.04024
3782.73189 0.04012
3781.44612 0.04041
3780.16035 0.04061
3778.87458 0.04031
3777.58881 0.03954
3776.30304 0.03873
3775.01728 0.03831
3773.73151 0.03853
3772.44574 0.03939
3771.15997 0.04061
3769.87420 0.04171
3768.58843 0.04225
3767.30266 0.04202
3766.01689 0.04101
3764.73112 0.03961
3763.44536 0.03858
3762.15959 0.03852
3760.87382 0.03932
3759.58805 0.04025
3758.30228 0.04059
3757.01651 0.04013
3755.73074 0.03928
3754.44497 0.03873
3753.15921 0.03881
3751.87344 0.03926
3750.58767 0.03955
3749.30190 0.03939
3748.01613 0.03901
3746.73036 0.03914
3745.44459 0.04001
3744.15882 0.04101
3742.87305 0.04159
3741.58729 0.04175
3740.30152 0.04148
3739.01575 0.04067
3737.72998 0.03959
3736.44421 0.03894
3735.15844 0.03923
3733.87267 0.04018
3732.58690 0.04080
3731.30114 0.04022
3730.01537 0.03865
3728.72960 0.03701
3727.44383 0.03590
3726.15806 0.03530
3724.87229 0.03522
3723.58652 0.03586
3722.30075 0.03716
3721.01498 0.03876
3719.72922 0.04020
3718.44345 0.04118
3717.15768 0.04149
3715.87191 0.04108
3714.58614 0.04014
3713.30037 0.03906
3712.01460 0.03822
3710.72883 0.03779
3709.44307 0.03764
3708.15730 0.03756
3706.87153 0.03748
3705.58576 0.03746
3704.29999 0.03755
3703.01422 0.03757
3701.72845 0.03733
3700.44268 0.03682
3699.15691 0.03630
3697.87115 0.03625
3696.58538 0.03697
3695.29961 0.03830
3694.01384 0.03969
3692.72807 0.04068
3691.44230 0.04127
3690.15653 0.04160
3688.87076 0.04162
3687.58500 0.04121
3686.29923 0.04044
3685.01346 0.03940
3683.72769 0.03812
3682.44192 0.03703
3681.15615 0.03689
3679.87038 0.03806
3678.58461 0.04018
3677.29884 0.04252
3676.01308 0.04430
3674.72731 0.04491
3673.44154 0.04436
3672.15577 0.04315
3670.87000 0.04171
3669.58423 0.04031
3668.29846 0.03930
3667.01269 0.03890
3665.72693 0.03893
3664.44116 0.03912
3663.15539 0.03942
3661.86962 0.03990
3660.58385 0.04047
3659.29808 0.04098
3658.01231 0.04132
3656.72654 0.04145
3655.44077 0.04139
3654.15501 0.04139
3652.86924 0.04177
3651.58347 0.04245
3650.29770 0.04295
3649.01193 0.04289
3647.72616 0.04246
3646.44039 0.04207
3645.15462 0.04190
3643.86886 0.04181
3642.58309 0.04175
3641.29732 0.04192
3640.01155 0.04257
3638.72578 0.04365
3637.44001 0.04481
3636.15424 0.04572
3634.86847 0.04640
3633.58270 0.04708
3632.29694 0.04798
3631.01117 0.04896
3629.72540 0.04951
3628.43963 0.04922
3627.15386 0.04833
3625.86809 0.04757
3624.58232 0.04742
3623.29655 0.04783
3622.01079 0.04850
3620.72502 0.04917
3619.43925 0.04972
3618.15348 0.05005
3616.86771 0.05021
3615.58194 0.05026
3614.29617 0.05026
3613.01040 0.05031
3611.72463 0.05063
3610.43887 0.05132
3609.15310 0.05214
3607.86733 0.05262
3606.58156 0.05256
3605.29579 0.05219
3604.01002 0.05186
3602.72425 0.05169
3601.43848 0.05158
3600.15272 0.05140
3598.86695 0.05124
3597.58118 0.05131
3596.29541 0.05166
3595.00964 0.05222
3593.72387 0.05292
3592.43810 0.05382
3591.15233 0.05490
3589.86656 0.05590
3588.58080 0.05647
3587.29503 0.05636
3586.00926 0.05569
3584.72349 0.05486
3583.43772 0.05448
3582.15195 0.05491
3580.86618 0.05589
3579.58041 0.05669
3578.29464 0.05688
3577.00888 0.05673
3575.72311 0.05679
3574.43734 0.05713
3573.15157 0.05729
3571.86580 0.05712
3570.58003 0.05711
3569.29426 0.05775
3568.00849 0.05876
3566.72273 0.05935
3565.43696 0.05917
3564.15119 0.05861
3562.86542 0.05828
3561.57965 0.05837
3560.29388 0.05865
3559.00811 0.05880
3557.72234 0.05886
3556.43657 0.05920
3555.15081 0.06004
3553.86504 0.06102
3552.57927 0.06138
3551.29350 0.06078
3550.00773 0.05982
3548.72196 0.05954
3547.43619 0.06049
3546.15042 0.06227
3544.86466 0.06404
3543.57889 0.06521
3542.29312 0.06561
3541.00735 0.06526
3539.72158 0.06432
3538.43581 0.06323
3537.15004 0.06252
3535.86427 0.06242
3534.57850 0.06279
3533.29274 0.06351
3532.00697 0.06457
3530.72120 0.06576
3529.43543 0.06653
3528.14966 0.06648
3526.86389 0.06577
3525.57812 0.06506
3524.29235 0.06484
3523.00659 0.06508
3521.72082 0.06538
3520.43505 0.06541
3519.14928 0.06532
3517.86351 0.06545
3516.57774 0.06588
3515.29197 0.06623
3514.00620 0.06615
3512.72043 0.06584
3511.43467 0.06577
3510.14890 0.06613
3508.86313 0.06661
3507.57736 0.06690
3506.29159 0.06699
3505.00582 0.06721
3503.72005 0.06776
3502.43428 0.06852
3501.14852 0.06904
3499.86275 0.06899
3498.57698 0.06856
3497.29121 0.06837
3496.00544 0.06890
3494.71967 0.07008
3493.43390 0.07143
3492.14813 0.07243
3490.86236 0.07274
3489.57660 0.07232
3488.29083 0.07149
3487.00506 0.07074
3485.71929 0.07043
3484.43352 0.07065
3483.14775 0.07134
3481.86198 0.07234
3480.57621 0.07341
3479.29045 0.07435
3478.00468 0.07506
3476.71891 0.07556
3475.43314 0.07577
3474.14737 0.07549
3472.86160 0.07468
3471.57583 0.07352
3470.29006 0.07237
3469.00429 0.07153
3467.71853 0.07123
3466.43276 0.07160
3465.14699 0.07249
3463.86122 0.07353
3462.57545 0.07430
3461.28968 0.07456
3460.00391 0.07441
3458.71814 0.07417
3457.43238 0.07408
3456.14661 0.07422
3454.86084 0.07453
3453.57507 0.07482
3452.28930 0.07499
3451.00353 0.07513
3449.71776 0.07549
3448.43199 0.07610
3447.14622 0.07665
3445.86046 0.07674
3444.57469 0.07630
3443.28892 0.07571
3442.00315 0.07543
3440.71738 0.07562
3439.43161 0.07614
3438.14584 0.07677
3436.86007 0.07745
3435.57431 0.07824
3434.28854 0.07907
3433.00277 0.07970
3431.71700 0.07987
3430.43123 0.07961
3429.14546 0.07910
3427.85969 0.07858
3426.57392 0.07833
3425.28815 0.07854
3424.00239 0.07918
3422.71662 0.07986
3421.43085 0.08011
3420.14508 0.07970
3418.85931 0.07892
3417.57354 0.07834
3416.28777 0.07837
3415.00200 0.07890
3413.71624 0.07947
3412.43047 0.07976
3411.14470 0.07989
3409.85893 0.08020
3408.57316 0.08076
3407.28739 0.08121
3406.00162 0.08121
3404.71585 0.08080
3403.43008 0.08036
3402.14432 0.08010
3400.85855 0.07991
3399.57278 0.07968
3398.28701 0.07964
3397.00124 0.08001
3395.71547 0.08071
3394.42970 0.08134
3393.14393 0.08161
3391.85817 0.08158
3390.57240 0.08150
3389.28663 0.08148
3388.00086 0.08144
3386.71509 0.08129
3385.42932 0.08116
3384.14355 0.08130
3382.85778 0.08178
3381.57201 0.08241
3380.28625 0.08285
3379.00048 0.08289
3377.71471 0.08260
3376.42894 0.08230
3375.14317 0.08229
3373.85740 0.08261
3372.57163 0.08302
3371.28586 0.08323
3370.00010 0.08310
3368.71433 0.08270
3367.42856 0.08222
3366.14279 0.08192
3364.85702 0.08199
3363.57125 0.08232
3362.28548 0.08252
3360.99971 0.08224
3359.71394 0.08154
3358.42818 0.08078
3357.14241 0.08026
3355.85664 0.08000
3354.57087 0.07987
3353.28510 0.07974
3351.99933 0.07970
3350.71356 0.07985
3349.42779 0.08014
3348.14202 0.08037
3346.85626 0.08043
3345.57049 0.08047
3344.28472 0.08080
3342.99895 0.08150
3341.71318 0.08223
3340.42741 0.08255
3339.14164 0.08236
3337.85587 0.08194
3336.57011 0.08162
3335.28434 0.08146
3333.99857 0.08139
3332.71280 0.08144
3331.42703 0.08165
3330.14126 0.08192
3328.85549 0.08209
3327.56972 0.08209
3326.28395 0.08200
3324.99819 0.08192
3323.71242 0.08199
3322.42665 0.08224
3321.14088 0.08258
3319.85511 0.08274
3318.56934 0.08244
3317.28357 0.08157
3315.99780 0.08036
3314.71204 0.07935
3313.42627 0.07907
3312.14050 0.07963
3310.85473 0.08058
3309.56896 0.08131
3308.28319 0.08158
3306.99742 0.08166
3305.71165 0.08194
3304.42588 0.08242
3303.14012 0.08274
3301.85435 0.08256
3300.56858 0.08199
3299.28281 0.08148
3297.99704 0.08129
3296.71127 0.08122
3295.42550 0.08082
3294.13973 0.07994
3292.85397 0.07899
3291.56820 0.07856
3290.28243 0.07887
3288.99666 0.07949
3287.71089 0.07984
3286.42512 0.07977
3285.13935 0.07954
3283.85358 0.07940
3282.56781 0.07939
3281.28205 0.07948
3279.99628 0.07966
3278.71051 0.07984
3277.42474 0.07981
3276.13897 0.07950
3274.85320 0.07912
3273.56743 0.07899
3272.28166 0.07922
3270.99590 0.07959
3269.71013 0.07983
3268.42436 0.07978
3267.13859 0.07946
3265.85282 0.07901
3264.56705 0.07870
3263.28128 0.07869
3261.99551 0.07890
3260.70974 0.07901
3259.42398 0.07886
3258.13821 0.07864
3256.85244 0.07864
3255.56667 0.07881
3254.28090 0.07884
3252.99513 0.07856
3251.70936 0.07809
3250.42359 0.07770
3249.13783 0.07750
3247.85206 0.07750
3246.56629 0.07775
3245.28052 0.07832
3243.99475 0.07903
3242.70898 0.07947
3241.42321 0.07936
3240.13744 0.07888
3238.85167 0.07840
3237.56591 0.07799
3236.28014 0.07746
3234.99437 0.07676
3233.70860 0.07608
3232.42283 0.07565
3231.13706 0.07555
3229.85129 0.07578
3228.56552 0.07627
3227.27976 0.07683
3225.99399 0.07724
3224.70822 0.07735
3223.42245 0.07724
3222.13668 0.07709
3220.85091 0.07706
3219.56514 0.07728
3218.27937 0.07771
3216.99360 0.07816
3215.70784 0.07840
3214.42207 0.07830
3213.13630 0.07795
3211.85053 0.07767
3210.56476 0.07766
3209.27899 0.07783
3207.99322 0.07782
3206.70745 0.07748
3205.42169 0.07701
3204.13592 0.07670
3202.85015 0.07651
3201.56438 0.07611
3200.27861 0.07537
3198.99284 0.07467
3197.70707 0.07454
3196.42130 0.07507
3195.13553 0.07578
3193.84977 0.07613
3192.56400 0.07596
3191.27823 0.07549
3189.99246 0.07498
3188.70669 0.07463
3187.42092 0.07451
3186.13515 0.07455
3184.84938 0.07457
3183.56362 0.07439
3182.27785 0.07406
3180.99208 0.07373
3179.70631 0.07352
3178.42054 0.07350
3177.13477 0.07367
3175.84900 0.07403
3174.56323 0.07443
3173.27746 0.07471
3171.99170 0.07487
3170.70593 0.07508
3169.42016 0.07538
3168.13439 0.07551
3166.84862 0.07522
3165.56285 0.07469
3164.27708 0.07433
3162.99131 0.07432
3161.70555 0.07438
3160.41978 0.07421
3159.13401 0.07379
3157.84824 0.07337
3156.56247 0.07308
3155.27670 0.07281
3153.99093 0.07241
3152.70516 0.07188
3151.41939 0.07138
3150.13363 0.07109
3148.84786 0.07099
3147.56209 0.07100
3146.27632 0.07104
3144.99055 0.07108
3143.70478 0.07107
3142.41901 0.07105
3141.13324 0.07116
3139.84748 0.07138
3138.56171 0.07148
3137.27594 0.07122
3135.99017 0.07067
3134.70440 0.07014
3133.41863 0.06983
3132.13286 0.06968
3130.84709 0.06953
3129.56132 0.06940
3128.27556 0.06947
3126.98979 0.06984
3125.70402 0.07034
3124.41825 0.07065
3123.13248 0.07063
3121.84671 0.07044
3120.56094 0.07025
3119.27517 0.06999
3117.98940 0.06939
3116.70364 0.06847
3115.41787 0.06764
3114.13210 0.06736
3112.84633 0.06768
3111.56056 0.06830
3110.27479 0.06884
3108.98902 0.06908
3107.70325 0.06891
3106.41749 0.06832
3105.13172 0.06750
3103.84595 0.06677
3102.56018 0.06637
3101.27441 0.06634
3099.98864 0.06653
3098.70287 0.06683
3097.41710 0.06718
3096.13133 0.06752
3094.84557 0.06769
3093.55980 0.06753
3092.27403 0.06699
3090.98826 0.06630
3089.70249 0.06579
3088.41672 0.06566
3087.13095 0.06583
3085.84518 0.06607
3084.55942 0.06612
3083.27365 0.06594
3081.98788 0.06561
3080.70211 0.06525
3079.41634 0.06489
3078.13057 0.06451
3076.84480 0.06413
3075.55903 0.06383
3074.27326 0.06367
3072.98750 0.06364
3071.70173 0.06365
3070.41596 0.06364
3069.13019 0.06364
3067.84442 0.06373
3066.55865 0.06394
3065.27288 0.06411
3063.98711 0.06404
3062.70135 0.06374
3061.41558 0.06342
3060.12981 0.06329
3058.84404 0.06339
3057.55827 0.06356
3056.27250 0.06367
3054.98673 0.06373
3053.70096 0.06379
3052.41519 0.06376
3051.12943 0.06348
3049.84366 0.06300
3048.55789 0.06260
3047.27212 0.06258
3045.98635 0.06290
3044.70058 0.06325
3043.41481 0.06332
3042.12904 0.06304
3040.84328 0.06257
3039.55751 0.06215
3038.27174 0.06190
3036.98597 0.06182
3035.70020 0.06182
3034.41443 0.06182
3033.12866 0.06173
3031.84289 0.06146
3030.55712 0.06099
3029.27136 0.06048
3027.98559 0.06018
3026.69982 0.06023
3025.41405 0.06051
3024.12828 0.06081
3022.84251 0.06100
3021.55674 0.06107
3020.27097 0.06099
3018.98521 0.06070
3017.69944 0.06020
3016.41367 0.05963
3015.12790 0.05920
3013.84213 0.05905
3012.55636 0.05917
3011.27059 0.05949
3009.98482 0.05990
3008.69905 0.06030
3007.41329 0.06052
3006.12752 0.06042
3004.84175 0.06004
3003.55598 0.05958
3002.27021 0.05926
3000.98444 0.05914
2999.69867 0.05913
2998.41290 0.05911
2997.12714 0.05892
2995.84137 0.05849
2994.55560 0.05796
2993.26983 0.05772
2991.98406 0.05801
2990.69829 0.05864
2989.41252 0.05918
2988.12675 0.05937
2986.84098 0.05936
2985.55522 0.05947
2984.26945 0.05987
2982.98368 0.06042
2981.69791 0.06092
2980.41214 0.06127
2979.12637 0.06159
2977.84060 0.06203
2976.55483 0.06268
2975.26907 0.06347
2973.98330 0.06428
2972.69753 0.06501
2971.41176 0.06570
2970.12599 0.06648
2968.84022 0.06744
2967.55445 0.06852
2966.26868 0.06956
2964.98291 0.07043
2963.69715 0.07115
2962.41138 0.07182
2961.12561 0.07249
2959.83984 0.07313
2958.55407 0.07365
2957.26830 0.07413
2955.98253 0.07478
2954.69676 0.07575
2953.41100 0.07698
2952.12523 0.07827
2950.83946 0.07931
2949.55369 0.07986
2948.26792 0.07984
2946.98215 0.07944
2945.69638 0.07889
2944.41061 0.07843
2943.12484 0.07824
2941.83908 0.07835
2940.55331 0.07854
2939.26754 0.07855
2937.98177 0.07837
2936.69600 0.07825
2935.41023 0.07835
2934.12446 0.07856
2932.83869 0.07865
2931.55293 0.07851
2930.26716 0.07811
2928.98139 0.07736
2927.69562 0.07614
2926.40985 0.07438
2925.12408 0.07202
2923.83831 0.06899
2922.55254 0.06526
2921.26677 0.06094
2919.98101 0.05634
2918.69524 0.05212
2917.40947 0.04920
2916.12370 0.04850
2914.83793 0.05034
2913.55216 0.05413
2912.26639 0.05870
2910.98062 0.06284
2909.69486 0.06585
2908.40909 0.06764
2907.12332 0.06852
2905.83755 0.06894
2904.55178 0.06916
2903.26601 0.06920
2901.98024 0.06897
2900.69447 0.06849
2899.40870 0.06793
2898.12294 0.06754
2896.83717 0.06737
2895.55140 0.06729
2894.26563 0.06715
2892.97986 0.06689
2891.69409 0.06652
2890.40832 0.06615
2889.12255 0.06580
2887.83678 0.06552
2886.55102 0.06530
2885.26525 0.06519
2883.97948 0.06514
2882.69371 0.06511
2881.40794 0.06507
2880.12217 0.06511
2878.83640 0.06524
2877.55063 0.06544
2876.26487 0.06575
2874.97910 0.06626
2873.69333 0.06703
2872.40756 0.06793
2871.12179 0.06878
2869.83602 0.06943
2868.55025 0.06978
2867.26448 0.06974
2865.97871 0.06935
2864.69295 0.06871
2863.40718 0.06792
2862.12141 0.06699
2860.83564 0.06601
2859.54987 0.06507
2858.26410 0.06407
2856.97833 0.06262
2855.69256 0.06031
2854.40680 0.05700
2853.12103 0.05290
2851.83526 0.04859
2850.54949 0.04503
2849.26372 0.04335
2847.97795 0.04415
2846.69218 0.04700
2845.40641 0.05058
2844.12064 0.05367
2842.83488 0.05567
2841.54911 0.05661
2840.26334 0.05677
2838.97757 0.05653
2837.69180 0.05626
2836.40603 0.05615
2835.12026 0.05616
2833.83449 0.05609
2832.54873 0.05576
2831.26296 0.05520
2829.97719 0.05458
2828.69142 0.05401
2827.40565 0.05355
2826.11988 0.05314
2824.83411 0.05268
2823.54834 0.05213
2822.26257 0.05152
2820.97681 0.05094
2819.69104 0.05046
2818.40527 0.05013
2817.11950 0.04993
2815.83373 0.04985
2814.54796 0.04987
2813.26219 0.04995
2811.97642 0.05001
2810.69066 0.04994
2809.40489 0.04971
2808.11912 0.04943
2806.83335 0.04923
2805.54758 0.04917
2804.26181 0.04923
2802.97604 0.04940
2801.69027 0.04961
2800.40450 0.04968
2799.11874 0.04951
2797.83297 0.04919
2796.54720 0.04895
2795.26143 0.04886
2793.97566 0.04884
2792.68989 0.04878
2791.40412 0.04866
2790.11835 0.04855
2788.83259 0.04847
2787.54682 0.04837
2786.26105 0.04825
2784.97528 0.04824
2783.68951 0.04839
2782.40374 0.04861
2781.11797 0.04868
2779.83220 0.04854
2778.54643 0.04832
2777.26067 0.04811
2775.97490 0.04786
2774.68913 0.04747
2773.40336 0.04694
2772.11759 0.04644
2770.83182 0.04611
2769.54605 0.04596
2768.26028 0.04587
2766.97452 0.04577
2765.68875 0.04575
2764.40298 0.04586
2763.11721 0.04599
2761.83144 0.04595
2760.54567 0.04571
2759.25990 0.04544
2757.97413 0.04530
2756.68836 0.04531
2755.40260 0.04536
2754.11683 0.04536
2752.83106 0.04533
2751.54529 0.04533
2750.25952 0.04538
2748.97375 0.04543
2747.68798 0.04538
2746.40221 0.04520
2745.11645 0.04496
2743.83068 0.04480
2742.54491 0.04486
2741.25914 0.04515
2739.97337 0.04550
2738.68760 0.04566
2737.40183 0.04543
2736.11606 0.04486
2734.83029 0.04428
2733.54453 0.04399
2732.25876 0.04401
2730.97299 0.04410
2729.68722 0.04408
2728.40145 0.04404
2727.11568 0.04410
2725.82991 0.04423
2724.54414 0.04431
2723.25838 0.04431
2721.97261 0.04424
2720.68684 0.04417
2719.40107 0.04409
2718.11530 0.04404
2716.82953 0.04403
2715.54376 0.04401
2714.25799 0.04391
2712.97222 0.04369
2711.68646 0.04341
2710.40069 0.04319
2709.11492 0.04315
2707.82915 0.04328
2706.54338 0.04341
2705.25761 0.04336
2703.97184 0.04312
2702.68607 0.04282
2701.40031 0.04255
2700.11454 0.04236
2698.82877 0.04227
2697.54300 0.04235
2696.25723 0.04262
2694.97146 0.04296
2693.68569 0.04323
2692.39992 0.04332
2691.11415 0.04321
2689.82839 0.04301
2688.54262 0.04284
2687.25685 0.04275
2685.97108 0.04268
2684.68531 0.04251
2683.39954 0.04224
2682.11377 0.04195
2680.82800 0.04170
2679.54224 0.04148
2678.25647 0.04127
2676.97070 0.04112
2675.68493 0.04112
2674.39916 0.04122
2673.11339 0.04130
2671.82762 0.04130
2670.54185 0.04126
2669.25608 0.04124
2667.97032 0.04129
2666.68455 0.04142
2665.39878 0.04158
2664.11301 0.04163
2662.82724 0.04156
2661.54147 0.04150
2660.25570 0.04158
2658.96993 0.04170
2657.68417 0.04166
2656.39840 0.04137
2655.11263 0.04101
2653.82686 0.04079
2652.54109 0.04075
2651.25532 0.04075
2649.96955 0.04068
2648.68378 0.04054
2647.39801 0.04038
2646.11225 0.04029
2644.82648 0.04028
2643.54071 0.04028
2642.25494 0.04017
2640.96917 0.03990
2639.68340 0.03957
2638.39763 0.03929
2637.11186 0.03904
2635.82609 0.03877
2634.54033 0.03849
2633.25456 0.03822
2631.96879 0.03794
2630.68302 0.03768
2629.39725 0.03753
2628.11148 0.03756
2626.82571 0.03775
2625.53994 0.03804
2624.25418 0.03829
2622.96841 0.03829
2621.68264 0.03785
2620.39687 0.03710
2619.11110 0.03642
2617.82533 0.03604
2616.53956 0.03579
2615.25379 0.03545
2613.96802 0.03504
2612.68226 0.03472
2611.39649 0.03458
2610.11072 0.03458
2608.82495 0.03471
2607.53918 0.03500
2606.25341 0.03539
2604.96764 0.03570
2603.68187 0.03571
2602.39611 0.03530
2601.11034 0.03467
2599.82457 0.03416
2598.53880 0.03403
2597.25303 0.03420
2595.96726 0.03431
2594.68149 0.03410
2593.39572 0.03368
2592.10995 0.03352
2590.82419 0.03388
2589.53842 0.03451
2588.25265 0.03486
2586.96688 0.03471
2585.68111 0.03431
2584.39534 0.03403
2583.10957 0.03390
2581.82380 0.03371
2580.53804 0.03330
2579.25227 0.03282
2577.96650 0.03257
2576.68073 0.03270
2575.39496 0.03304
2574.10919 0.03330
2572.82342 0.03334
2571.53765 0.03321
2570.25188 0.03304
2568.96612 0.03294
2567.68035 0.03297
2566.39458 0.03314
2565.10881 0.03330
2563.82304 0.03330
2562.53727 0.03317
2561.25150 0.03308
2559.96573 0.03311
2558.67997 0.03313
2557.39420 0.03300
2556.10843 0.03276
2554.82266 0.03258
2553.53689 0.03255
2552.25112 0.03265
2550.96535 0.03280
2549.67958 0.03286
2548.39381 0.03277
2547.10805 0.03250
2545.82228 0.03214
2544.53651 0.03184
2543.25074 0.03172
2541.96497 0.03179
2540.67920 0.03197
2539.39343 0.03205
2538.10766 0.03194
2536.82190 0.03170
2535.53613 0.03147
2534.25036 0.03133
2532.96459 0.03125
2531.67882 0.03123
2530.39305 0.03128
2529.10728 0.03133
2527.82151 0.03126
2526.53574 0.03106
2525.24998 0.03083
2523.96421 0.03068
2522.67844 0.03061
2521.39267 0.03061
2520.10690 0.03068
2518.82113 0.03087
2517.53536 0.03109
2516.24959 0.03118
2514.96383 0.03098
2513.67806 0.03053
2512.39229 0.03013
2511.10652 0.03002
2509.82075 0.03020
2508.53498 0.03051
2507.24921 0.03085
2505.96344 0.03116
2504.67767 0.03137
2503.39191 0.03142
2502.10614 0.03133
2500.82037 0.03117
2499.53460 0.03103
2498.24883 0.03089
2496.96306 0.03076
2495.67729 0.03065
2494.39152 0.03058
2493.10576 0.03053
2491.81999 0.03040
2490.53422 0.03010
2489.24845 0.02973
2487.96268 0.02958
2486.67691 0.02983
2485.39114 0.03036
2484.10537 0.03087
2482.81960 0.03112
2481.53384 0.03110
2480.24807 0.03099
2478.96230 0.03094
2477.67653 0.03092
2476.39076 0.03071
2475.10499 0.03026
2473.81922 0.02979
2472.53345 0.02960
2471.24769 0.02976
2469.96192 0.03003
2468.67615 0.03017
2467.39038 0.03022
2466.10461 0.03035
2464.81884 0.03062
2463.53307 0.03084
2462.24730 0.03070
2460.96153 0.03012
2459.67577 0.02938
2458.39000 0.02894
2457.10423 0.02903
2455.81846 0.02940
2454.53269 0.02970
2453.24692 0.02978
2451.96115 0.02976
2450.67538 0.02980
2449.38962 0.02994
2448.10385 0.03000
2446.81808 0.02977
2445.53231 0.02923
2444.24654 0.02861
2442.96077 0.02815
2441.67500 0.02791
2440.38923 0.02786
2439.10346 0.02798
2437.81770 0.02826
2436.53193 0.02864
2435.24616 0.02895
2433.96039 0.02907
2432.67462 0.02898
2431.38885 0.02879
2430.10308 0.02860
2428.81731 0.02841
2427.53155 0.02818
2426.24578 0.02792
2424.96001 0.02777
2423.67424 0.02781
2422.38847 0.02797
2421.10270 0.02810
2419.81693 0.02805
2418.53116 0.02785
2417.24539 0.02765
2415.95963 0.02762
2414.67386 0.02789
2413.38809 0.02848
2412.10232 0.02920
2410.81655 0.02968
2409.53078 0.02970
2408.24501 0.02938
2406.95924 0.02901
2405.67347 0.02876
2404.38771 0.02854
2403.10194 0.02820
2401.81617 0.02775
2400.53040 0.02738
2399.24463 0.02716
2397.95886 0.02704
2396.67309 0.02688
2395.38732 0.02671
2394.10156 0.02673
2392.81579 0.02703
2391.53002 0.02742
2390.24425 0.02768
2388.95848 0.02774
2387.67271 0.02770
2386.38694 0.02764
2385.10117 0.02758
2383.81540 0.02752
2382.52964 0.02751
2381.24387 0.02758
2379.95810 0.02765
2378.67233 0.02760
2377.38656 0.02745
2376.10079 0.02729
2374.81502 0.02717
2373.52925 0.02710
2372.24349 0.02708
2370.95772 0.02713
2369.67195 0.02723
2368.38618 0.02734
2367.10041 0.02742
2365.81464 0.02754
2364.52887 0.02772
2363.24310 0.02794
2361.95733 0.02813
2360.67157 0.02821
2359.38580 0.02826
2358.10003 0.02837
2356.81426 0.02859
2355.52849 0.02888
2354.24272 0.02911
2352.95695 0.02914
2351.67118 0.02892
2350.38542 0.02859
2349.09965 0.02836
2347.81388 0.02825
2346.52811 0.02817
2345.24234 0.02810
2343.95657 0.02814
2342.67080 0.02819
2341.38503 0.02804
2340.09926 0.02784
2338.81350 0.02802
2337.52773 0.02850
2336.24196 0.02866
2334.95619 0.02849
2333.67042 0.02851
2332.38465 0.02863
2331.09888 0.02845
2329.81311 0.02834
2328.52735 0.02869
2327.24158 0.02913
2325.95581 0.02959
2324.67004 0.03008
2323.38427 0.03017
2322.09850 0.02980
2320.81273 0.02943
2319.52696 0.02898
2318.24119 0.02848
2316.95543 0.02812
2315.66966 0.02789
2314.38389 0.02787
2313.09812 0.02806
2311.81235 0.02820
2310.52658 0.02821
2309.24081 0.02808
2307.95504 0.02785
2306.66928 0.02763
2305.38351 0.02738
2304.09774 0.02701
2302.81197 0.02654
2301.52620 0.02611
2300.24043 0.02593
2298.95466 0.02599
2297.66889 0.02614
2296.38312 0.02618
2295.09736 0.02600
2293.81159 0.02570
2292.52582 0.02548
2291.24005 0.02548
2289.95428 0.02568
2288.66851 0.02588
2287.38274 0.02589
2286.09697 0.02561
2284.81121 0.02510
2283.52544 0.02454
2282.23967 0.02422
2280.95390 0.02434
2279.66813 0.02480
2278.38236 0.02522
2277.09659 0.02513
2275.81082 0.02438
2274.52505 0.02335
2273.23929 0.02267
2271.95352 0.02263
2270.66775 0.02307
2269.38198 0.02360
2268.09621 0.02396
2266.81044 0.02405
2265.52467 0.02386
2264.23890 0.02349
2262.95314 0.02311
2261.66737 0.02275
2260.38160 0.02235
2259.09583 0.02182
2257.81006 0.02120
2256.52429 0.02071
2255.23852 0.02059
2253.95275 0.02072
2252.66698 0.02063
2251.38122 0.01995
2250.09545 0.01900
2248.80968 0.01852
2247.52391 0.01877
2246.23814 0.01947
2244.95237 0.01990
2243.66660 0.01975
2242.38083 0.01942
2241.09507 0.01942
2239.80930 0.01976
2238.52353 0.02002
2237.23776 0.02011
2235.95199 0.02039
2234.66622 0.02107
2233.38045 0.02169
2232.09468 0.02164
2230.80891 0.02093
2229.52315 0.02016
2228.23738 0.01987
2226.95161 0.02009
2225.66584 0.02040
2224.38007 0.02023
2223.09430 0.01938
2221.80853 0.01828
2220.52276 0.01772
2219.23700 0.01809
2217.95123 0.01912
2216.66546 0.02016
2215.37969 0.02073
2214.09392 0.02064
2212.80815 0.01996
2211.52238 0.01882
2210.23661 0.01736
2208.95084 0.01590
2207.66508 0.01504
2206.37931 0.01524
2205.09354 0.01614
2203.80777 0.01672
2202.52200 0.01634
2201.23623 0.01530
2199.95046 0.01446
2198.66469 0.01444
2197.37893 0.01520
2196.09316 0.01621
2194.80739 0.01678
2193.52162 0.01650
2192.23585 0.01547
2190.95008 0.01416
2189.66431 0.01306
2188.37854 0.01245
2187.09277 0.01237
2185.80701 0.01263
2184.52124 0.01295
2183.23547 0.01308
2181.94970 0.01298
2180.66393 0.01286
2179.37816 0.01319
2178.09239 0.01418
2176.80662 0.01530
2175.52085 0.01569
2174.23509 0.01480
2172.94932 0.01283
2171.66355 0.01054
2170.37778 0.00888
2169.09201 0.00846
2167.80624 0.00897
2166.52047 0.00935
2165.23470 0.00887
2163.94894 0.00782
2162.66317 0.00691
2161.37740 0.00636
2160.09163 0.00586
2158.80586 0.00519
2157.52009 0.00464
2156.23432 0.00471
2154.94855 0.00555
2153.66278 0.00692
2152.37702 0.00836
2151.09125 0.00941
2149.80548 0.00972
2148.51971 0.00938
2147.23394 0.00900
2145.94817 0.00925
2144.66240 0.01010
2143.37663 0.01081
2142.09087 0.01079
2140.80510 0.01016
2139.51933 0.00951
2138.23356 0.00927
2136.94779 0.00948
2135.66202 0.00988
2134.37625 0.01029
2133.09048 0.01077
2131.80471 0.01143
2130.51895 0.01221
2129.23318 0.01292
2127.94741 0.01352
2126.66164 0.01409
2125.37587 0.01460
2124.09010 0.01491
2122.80433 0.01492
2121.51856 0.01475
2120.23280 0.01466
2118.94703 0.01497
2117.66126 0.01565
2116.37549 0.01632
2115.08972 0.01654
2113.80395 0.01626
2112.51818 0.01586
2111.23241 0.01568
2109.94664 0.01564
2108.66088 0.01544
2107.37511 0.01494
2106.08934 0.01428
2104.80357 0.01370
2103.51780 0.01335
2102.23203 0.01320
2100.94626 0.01313
2099.66049 0.01340
2098.37473 0.01336
2097.08896 0.01320
2095.80319 0.01325
2094.51742 0.01351
2093.23165 0.01372
2091.94588 0.01360
2090.66011 0.01313
2089.37434 0.01255
2088.08857 0.01215
2086.80281 0.01214
2085.51704 0.01243
2084.23127 0.01277
2082.94550 0.01292
2081.65973 0.01296
2080.37396 0.01314
2079.08819 0.01354
2077.80242 0.01390
2076.51666 0.01388
2075.23089 0.01352
2073.94512 0.01315
2072.65935 0.01306
2071.37358 0.01331
2070.08781 0.01367
2068.80204 0.01387
2067.51627 0.01373
2066.23050 0.01332
2064.94474 0.01278
2063.65897 0.01209
2062.37320 0.01118
2061.08743 0.01019
2059.80166 0.00951
2058.51589 0.00933
2057.23012 0.00940
2055.94435 0.00930
2054.65859 0.00894
2053.37282 0.00862
2052.08705 0.00874
2050.80128 0.00935
2049.51551 0.01006
2048.22974 0.01033
2046.94397 0.00990
2045.65820 0.00899
2044.37243 0.00806
2043.08667 0.00740
2041.80090 0.00694
2040.51513 0.00646
2039.22936 0.00569
2037.94359 0.00454
2036.65782 0.00319
2035.37205 0.00206
2034.08628 0.00169
2032.80052 0.00231
2031.51475 0.00365
2030.22898 0.00504
2028.94321 0.00597
2027.65744 0.00640
2026.37167 0.00652
2025.08590 0.00643
2023.80013 0.00617
2022.51436 0.00597
2021.22860 0.00614
2019.94283 0.00673
2018.65706 0.00741
2017.37129 0.00779
2016.08552 0.00775
2014.79975 0.00748
2013.51398 0.00723
2012.22821 0.00715
2010.94245 0.00716
2009.65668 0.00707
2008.37091 0.00686
2007.08514 0.00675
2005.79937 0.00693
2004.51360 0.00725
2003.22783 0.00740
2001.94206 0.00736
2000.65629 0.00741
1999.37053 0.00767
1998.08476 0.00791
1996.79899 0.00781
1995.51322 0.00739
1994.22745 0.00691
1992.94168 0.00670
1991.65591 0.00687
1990.37014 0.00730
1989.08438 0.00786
1987.79861 0.00852
1986.51284 0.00932
1985.22707 0.01017
1983.94130 0.01081
1982.65553 0.01107
1981.36976 0.01098
1980.08399 0.01065
1978.79822 0.01009
1977.51246 0.00938
1976.22669 0.00898
1974.94092 0.00945
1973.65515 0.01088
1972.36938 0.01275
1971.08361 0.01436
1969.79784 0.01532
1968.51207 0.01551
1967.22631 0.01502
1965.94054 0.01406
1964.65477 0.01302
1963.36900 0.01226
1962.08323 0.01191
1960.79746 0.01186
1959.51169 0.01188
1958.22592 0.01186
1956.94015 0.01191
1955.65439 0.01222
1954.36862 0.01272
1953.08285 0.01312
1951.79708 0.01311
1950.51131 0.01272
1949.22554 0.01227
1947.93977 0.01208
1946.65400 0.01227
1945.36823 0.01269
1944.08247 0.01310
1942.79670 0.01333
1941.51093 0.01330
1940.22516 0.01315
1938.93939 0.01302
1937.65362 0.01305
1936.36785 0.01329
1935.08208 0.01368
1933.79632 0.01409
1932.51055 0.01438
1931.22478 0.01448
1929.93901 0.01444
1928.65324 0.01437
1927.36747 0.01433
1926.08170 0.01436
1924.79593 0.01440
1923.51016 0.01431
1922.22440 0.01403
1920.93863 0.01374
1919.65286 0.01366
1918.36709 0.01382
1917.08132 0.01404
1915.79555 0.01429
1914.50978 0.01465
1913.22401 0.01512
1911.93825 0.01553
1910.65248 0.01570
1909.36671 0.01562
1908.08094 0.01546
1906.79517 0.01538
1905.50940 0.01546
1904.22363 0.01565
1902.93786 0.01583
1901.65209 0.01592
1900.36633 0.01588
1899.08056 0.01573
1897.79479 0.01553
1896.50902 0.01538
1895.22325 0.01539
1893.93748 0.01559
1892.65171 0.01590
1891.36594 0.01614
1890.08018 0.01614
1888.79441 0.01592
1887.50864 0.01569
1886.22287 0.01559
1884.93710 0.01561
1883.65133 0.01562
1882.36556 0.01558
1881.07979 0.01544
1879.79402 0.01520
1878.50826 0.01485
1877.22249 0.01456
1875.93672 0.01453
1874.65095 0.01483
1873.36518 0.01528
1872.07941 0.01558
1870.79364 0.01560
1869.50787 0.01545
1868.22211 0.01535
1866.93634 0.01545
1865.65057 0.01570
1864.36480 0.01600
1863.07903 0.01624
1861.79326 0.01637
1860.50749 0.01636
1859.22172 0.01624
1857.93595 0.01606
1856.65019 0.01591
1855.36442 0.01588
1854.07865 0.01598
1852.79288 0.01619
1851.50711 0.01639
1850.22134 0.01647
1848.93557 0.01638
1847.64980 0.01618
1846.36404 0.01603
1845.07827 0.01596
1843.79250 0.01592
1842.50673 0.01586
1841.22096 0.01582
1839.93519 0.01584
1838.64942 0.01586
1837.36365 0.01584
1836.07788 0.01577
1834.79212 0.01568
1833.50635 0.01561
1832.22058 0.01559
1830.93481 0.01564
1829.64904 0.01571
1828.36327 0.01577
1827.07750 0.01589
1825.79173 0.01611
1824.50597 0.01634
1823.22020 0.01653
1821.93443 0.01665
1820.64866 0.01671
1819.36289 0.01668
1818.07712 0.01655
1816.79135 0.01635
1815.50558 0.01620
1814.21981 0.01617
1812.93405 0.01627
1811.64828 0.01639
1810.36251 0.01648
1809.07674 0.01658
1807.79097 0.01674
1806.50520 0.01693
1805.21943 0.01707
1803.93366 0.01712
1802.64790 0.01708
1801.36213 0.01701
1800.07636 0.01696
1798.79059 0.01695
1797.50482 0.01698
1796.21905 0.01704
1794.93328 0.01716
1793.64751 0.01730
1792.36174 0.01740
1791.07598 0.01741
1789.79021 0.01741
1788.50444 0.01746
1787.21867 0.01757
1785.93290 0.01768
1784.64713 0.01773
1783.36136 0.01776
1782.07559 0.01781
1780.78983 0.01791
1779.50406 0.01803
1778.21829 0.01816
1776.93252 0.01827
1775.64675 0.01840
1774.36098 0.01859
1773.07521 0.01875
1771.78944 0.01874
1770.50367 0.01863
1769.21791 0.01859
1767.93214 0.01869
1766.64637 0.01885
1765.36060 0.01902
1764.07483 0.01917
1762.78906 0.01929
1761.50329 0.01933
1760.21752 0.01934
1758.93176 0.01943
1757.64599 0.01960
1756.36022 0.01975
1755.07445 0.01980
1753.78868 0.01978
1752.50291 0.01975
1751.21714 0.01970
1749.93137 0.01966
1748.64560 0.01974
1747.35984 0.01997
1746.07407 0.02024
1744.78830 0.02044
1743.50253 0.02055
1742.21676 0.02068
1740.93099 0.02087
1739.64522 0.02106
1738.35945 0.02117
1737.07369 0.02132
1735.78792 0.02161
1734.50215 0.02193
1733.21638 0.02206
1731.93061 0.02203
1730.64484 0.02205
1729.35907 0.02223
1728.07330 0.02248
1726.78753 0.02274
1725.50177 0.02301
1724.21600 0.02328
1722.93023 0.02356
1721.64446 0.02385
1720.35869 0.02421
1719.07292 0.02461
1717.78715 0.02495
1716.50138 0.02518
1715.21561 0.02537
1713.92985 0.02563
1712.64408 0.02597
1711.35831 0.02637
1710.07254 0.02678
1708.78677 0.02719
1707.50100 0.02755
1706.21523 0.02783
1704.92946 0.02804
1703.64370 0.02835
1702.35793 0.02896
1701.07216 0.02968
1699.78639 0.03013
1698.50062 0.03027
1697.21485 0.03035
1695.92908 0.03044
1694.64331 0.03043
1693.35754 0.03039
1692.07178 0.03052
1690.78601 0.03080
1689.50024 0.03109
1688.21447 0.03138
1686.92870 0.03181
1685.64293 0.03234
1684.35716 0.03274
1683.07139 0.03289
1681.78563 0.03292
1680.49986 0.03303
1679.21409 0.03324
1677.92832 0.03355
1676.64255 0.03397
1675.35678 0.03437
1674.07101 0.03465
1672.78524 0.03486
1671.49947 0.03515
1670.21371 0.03550
1668.92794 0.03581
1667.64217 0.03604
1666.35640 0.03627
1665.07063 0.03657
1663.78486 0.03690
1662.49909 0.03718
1661.21332 0.03740
1659.92756 0.03759
1658.64179 0.03776
1657.35602 0.03795
1656.07025 0.03827
1654.78448 0.03879
1653.49871 0.03927
1652.21294 0.03939
1650.92717 0.03924
1649.64140 0.03925
1648.35564 0.03957
1647.06987 0.03998
1645.78410 0.04022
1644.49833 0.04026
1643.21256 0.04027
1641.92679 0.04037
1640.64102 0.04054
1639.35525 0.04075
1638.06949 0.04104
1636.78372 0.04139
1635.49795 0.04162
1634.21218 0.04168
1632.92641 0.04167
1631.64064 0.04175
1630.35487 0.04193
1629.06910 0.04212
1627.78333 0.04231
1626.49757 0.04253
1625.21180 0.04283
1623.92603 0.04313
1622.64026 0.04334
1621.35449 0.04345
1620.06872 0.04362
1618.78295 0.04400
1617.49718 0.04452
1616.21142 0.04498
1614.92565 0.04531
1613.63988 0.04562
1612.35411 0.04601
1611.06834 0.04646
1609.78257 0.04691
1608.49680 0.04731
1607.21103 0.04765
1605.92526 0.04793
1604.63950 0.04819
1603.35373 0.04851
1602.06796 0.04889
1600.78219 0.04931
1599.49642 0.04973
1598.21065 0.05011
1596.92488 0.05042
1595.63911 0.05069
1594.35335 0.05093
1593.06758 0.05116
1591.78181 0.05140
1590.49604 0.05165
1589.21027 0.05188
1587.92450 0.05212
1586.63873 0.05234
1585.35296 0.05256
1584.06719 0.05278
1582.78143 0.05298
1581.49566 0.05316
1580.20989 0.05333
1578.92412 0.05363
1577.63835 0.05416
1576.35258 0.05478
1575.06681 0.05530
1573.78104 0.05577
1572.49528 0.05633
1571.20951 0.05701
1569.92374 0.05765
1568.63797 0.05812
1567.35220 0.05844
1566.06643 0.05867
1564.78066 0.05883
1563.49489 0.05895
1562.20912 0.05918
1560.92336 0.05963
1559.63759 0.06012
1558.35182 0.06041
1557.06605 0.06052
1555.78028 0.06064
1554.49451 0.06082
1553.20874 0.06094
1551.92297 0.06094
1550.63721 0.06083
1549.35144 0.06062
1548.06567 0.06025
1546.77990 0.05976
1545.49413 0.05918
1544.20836 0.05855
1542.92259 0.05794
1541.63682 0.05744
1540.35105 0.05703
1539.06529 0.05663
1537.77952 0.05626
1536.49375 0.05614
1535.20798 0.05631
1533.92221 0.05661
1532.63644 0.05682
1531.35067 0.05694
1530.06490 0.05714
1528.77914 0.05751
1527.49337 0.05803
1526.20760 0.05861
1524.92183 0.05925
1523.63606 0.06000
1522.35029 0.06089
1521.06452 0.06180
1519.77875 0.06268
1518.49298 0.06366
1517.20722 0.06485
1515.92145 0.06619
1514.63568 0.06761
1513.34991 0.06909
1512.06414 0.07058
1510.77837 0.07212
1509.49260 0.07380
1508.20683 0.07562
1506.92107 0.07741
1505.63530 0.07894
1504.34953 0.08025
1503.06376 0.08155
1501.77799 0.08295
1500.49222 0.08437
1499.20645 0.08571
1497.92068 0.08696
1496.63491 0.08809
1495.34915 0.08908
1494.06338 0.08999
1492.77761 0.09092
1491.49184 0.09191
1490.20607 0.09293
1488.92030 0.09396
1487.63453 0.09503
1486.34876 0.09622
1485.06299 0.09751
1483.77723 0.09890
1482.49146 0.10033
1481.20569 0.10174
1479.91992 0.10312
1478.63415 0.10446
1477.34838 0.10572
1476.06261 0.10684
1474.77684 0.10790
1473.49108 0.10897
1472.20531 0.11010
1470.91954 0.11125
1469.63377 0.11238
1468.34800 0.11342
1467.06223 0.11433
1465.77646 0.11512
1464.49069 0.11590
1463.20492 0.11678
1461.91916 0.11787
1460.63339 0.11918
1459.34762 0.12062
1458.06185 0.12202
1456.77608 0.12318
1455.49031 0.12407
1454.20454 0.12484
1452.91877 0.12561
1451.63301 0.12636
1450.34724 0.12697
1449.06147 0.12740
1447.77570 0.12761
1446.48993 0.12760
1445.20416 0.12742
1443.91839 0.12711
1442.63262 0.12670
1441.34685 0.12618
1440.06109 0.12559
1438.77532 0.12502
1437.48955 0.12453
1436.20378 0.12415
1434.91801 0.12400
1433.63224 0.12421
1432.34647 0.12482
1431.06070 0.12576
1429.77494 0.12697
1428.48917 0.12844
1427.20340 0.13012
1425.91763 0.13193
1424.63186 0.13376
1423.34609 0.13558
1422.06032 0.13743
1420.77455 0.13927
1419.48878 0.14098
1418.20302 0.14243
1416.91725 0.14362
1415.63148 0.14460
1414.34571 0.14536
1413.05994 0.14581
1411.77417 0.14592
1410.48840 0.14572
1409.20263 0.14522
1407.91687 0.14441
1406.63110 0.14327
1405.34533 0.14179
1404.05956 0.13999
1402.77379 0.13793
1401.48802 0.13567
1400.20225 0.13321
1398.91648 0.13056
1397.63071 0.12781
1396.34495 0.12500
1395.05918 0.12217
1393.77341 0.11928
1392.48764 0.11638
1391.20187 0.11357
1389.91610 0.11088
1388.63033 0.10825
1387.34456 0.10561
1386.05880 0.10295
1384.77303 0.10035
1383.48726 0.09787
1382.20149 0.09551
1380.91572 0.09320
1379.62995 0.09090
1378.34418 0.08854
1377.05841 0.08607
1375.77264 0.08343
1374.48688 0.08063
1373.20111 0.07774
1371.91534 0.07491
1370.62957 0.07226
1369.34380 0.06984
1368.05803 0.06764
1366.77226 0.06557
1365.48649 0.06360
1364.20073 0.06169
1362.91496 0.05983
1361.62919 0.05801
1360.34342 0.05628
1359.05765 0.05467
1357.77188 0.05321
1356.48611 0.05188
1355.20034 0.05067
1353.91457 0.04954
1352.62881 0.04848
1351.34304 0.04748
1350.05727 0.04651
1348.77150 0.04557
1347.48573 0.04466
1346.19996 0.04381
1344.91419 0.04302
1343.62842 0.04230
1342.34266 0.04166
1341.05689 0.04110
1339.77112 0.04058
1338.48535 0.04006
1337.19958 0.03954
1335.91381 0.03902
1334.62804 0.03850
1333.34227 0.03796
1332.05650 0.03742
1330.77074 0.03691
1329.48497 0.03646
1328.19920 0.03609
1326.91343 0.03577
1325.62766 0.03549
1324.34189 0.03522
1323.05612 0.03497
1321.77035 0.03473
1320.48459 0.03447
1319.19882 0.03418
1317.91305 0.03388
1316.62728 0.03358
1315.34151 0.03330
1314.05574 0.03302
1312.76997 0.03274
1311.48420 0.03248
1310.19843 0.03225
1308.91267 0.03206
1307.62690 0.03187
1306.34113 0.03164
1305.05536 0.03137
1303.76959 0.03112
1302.48382 0.03091
1301.19805 0.03075
1299.91228 0.03062
1298.62652 0.03047
1297.34075 0.03029
1296.05498 0.03009
1294.76921 0.02989
1293.48344 0.02972
1292.19767 0.02958
1290.91190 0.02943
1289.62613 0.02925
1288.34036 0.02901
1287.05460 0.02876
1285.76883 0.02856
1284.48306 0.02841
1283.19729 0.02830
1281.91152 0.02817
1280.62575 0.02798
1279.33998 0.02774
1278.05421 0.02750
1276.76845 0.02733
1275.48268 0.02724
1274.19691 0.02718
1272.91114 0.02707
1271.62537 0.02689
1270.33960 0.02671
1269.05383 0.02660
1267.76806 0.02655
1266.48229 0.02648
1265.19653 0.02634
1263.91076 0.02616
1262.62499 0.02599
1261.33922 0.02584
1260.05345 0.02567
1258.76768 0.02550
1257.48191 0.02534
1256.19614 0.02524
1254.91037 0.02517
1253.62461 0.02509
1252.33884 0.02497
1251.05307 0.02485
1249.76730 0.02476
1248.48153 0.02469
1247.19576 0.02460
1245.90999 0.02447
1244.62422 0.02433
1243.33846 0.02422
1242.05269 0.02416
1240.76692 0.02412
1239.48115 0.02405
1238.19538 0.02394
1236.90961 0.02381
1235.62384 0.02370
1234.33807 0.02366
1233.05230 0.02368
1231.76654 0.02371
1230.48077 0.02374
1229.19500 0.02374
1227.90923 0.02372
1226.62346 0.02367
1225.33769 0.02360
1224.05192 0.02348
1222.76615 0.02334
1221.48039 0.02322
1220.19462 0.02315
1218.90885 0.02314
1217.62308 0.02316
1216.33731 0.02324
1215.05154 0.02336
1213.76577 0.02349
1212.48000 0.02356
1211.19423 0.02356
1209.90847 0.02349
1208.62270 0.02343
1207.33693 0.02342
1206.05116 0.02347
1204.76539 0.02358
1203.47962 0.02370
1202.19385 0.02380
1200.90808 0.02381
1199.62232 0.02372
1198.33655 0.02367
1197.05078 0.02367
1195.76501 0.02376
1194.47924 0.02390
1193.19347 0.02399
1191.90770 0.02399
1190.62193 0.02395
1189.33616 0.02395
1188.05040 0.02403
1186.76463 0.02414
1185.47886 0.02420
1184.19309 0.02421
1182.90732 0.02424
1181.62155 0.02434
1180.33578 0.02450
1179.05001 0.02470
1177.76425 0.02488
1176.47848 0.02499
1175.19271 0.02505
1173.90694 0.02508
1172.62117 0.02514
1171.33540 0.02526
1170.04963 0.02543
1168.76386 0.02558
1167.47809 0.02568
1166.19233 0.02576
1164.90656 0.02588
1163.62079 0.02611
1162.33502 0.02645
1161.04925 0.02683
1159.76348 0.02717
1158.47771 0.02743
1157.19194 0.02759
1155.90618 0.02771
1154.62041 0.02787
1153.33464 0.02814
1152.04887 0.02853
1150.76310 0.02902
1149.47733 0.02959
1148.19156 0.03022
1146.90579 0.03089
1145.62002 0.03159
1144.33426 0.03230
1143.04849 0.03309
1141.76272 0.03404
1140.47695 0.03517
1139.19118 0.03642
1137.90541 0.03775
1136.61964 0.03920
1135.33387 0.04085
1134.04811 0.04275
1132.76234 0.04488
1131.47657 0.04719
1130.19080 0.04971
1128.90503 0.05250
1127.61926 0.05564
1126.33349 0.05912
1125.04772 0.06288
1123.76195 0.06690
1122.47619 0.07115
1121.19042 0.07557
1119.90465 0.08013
1118.61888 0.08479
1117.33311 0.08953
1116.04734 0.09426
1114.76157 0.09892
1113.47580 0.10349
1112.19004 0.10801
1110.90427 0.11250
1109.61850 0.11691
1108.33273 0.12113
1107.04696 0.12514
1105.76119 0.12898
1104.47542 0.13276
1103.18965 0.13652
1101.90388 0.14021
1100.61812 0.14377
1099.33235 0.14716
1098.04658 0.15043
1096.76081 0.15357
1095.47504 0.15657
1094.18927 0.15944
1092.90350 0.16219
1091.61773 0.16485
1090.33197 0.16741
1089.04620 0.16982
1087.76043 0.17202
1086.47466 0.17407
1085.18889 0.17613
1083.90312 0.17835
1082.61735 0.18081
1081.33158 0.18346
1080.04581 0.18628
1078.76005 0.18932
1077.47428 0.19260
1076.18851 0.19610
1074.90274 0.19979
1073.61697 0.20366
1072.33120 0.20776
1071.04543 0.21211
1069.75966 0.21667
1068.47390 0.22138
1067.18813 0.22623
1065.90236 0.23121
1064.61659 0.23634
1063.33082 0.24157
1062.04505 0.24684
1060.75928 0.25210
1059.47351 0.25733
1058.18774 0.26258
1056.90198 0.26792
1055.61621 0.27332
1054.33044 0.27872
1053.04467 0.28412
1051.75890 0.28955
1050.47313 0.29507
1049.18736 0.30068
1047.90159 0.30639
1046.61583 0.31219
1045.33006 0.31813
1044.04429 0.32422
1042.75852 0.33045
1041.47275 0.33679
1040.18698 0.34322
1038.90121 0.34973
1037.61544 0.35630
1036.32967 0.36294
1035.04391 0.36960
1033.75814 0.37621
1032.47237 0.38258
1031.18660 0.38853
1029.90083 0.39393
1028.61506 0.39877
1027.32929 0.40305
1026.04352 0.40684
1024.75775 0.41014
1023.47199 0.41290
1022.18622 0.41501
1020.90045 0.41629
1019.61468 0.41661
1018.32891 0.41590
1017.04314 0.41413
1015.75737 0.41135
1014.47160 0.40764
1013.18584 0.40301
1011.90007 0.39747
1010.61430 0.39104
1009.32853 0.38374
1008.04276 0.37554
1006.75699 0.36646
1005.47122 0.35659
1004.18545 0.34607
1002.89968 0.33504
1001.61392 0.32366
1000.32815 0.31202
999.04238 0.30018
997.75661 0.28820
996.47084 0.27619
995.18507 0.26426
993.89930 0.25253
992.61353 0.24109
991.32777 0.23001
990.04200 0.21935
988.75623 0.20923
987.47046 0.19974
986.18469 0.19086
984.89892 0.18249
983.61315 0.17449
982.32738 0.16688
981.04161 0.15975
979.75585 0.15321
978.47008 0.14730
977.18431 0.14201
975.89854 0.13732
974.61277 0.13327
973.32700 0.12993
972.04123 0.12736
970.75546 0.12563
969.46970 0.12480
968.18393 0.12489
966.89816 0.12582
965.61239 0.12740
964.32662 0.12932
963.04085 0.13120
961.75508 0.13263
960.46931 0.13324
959.18354 0.13279
957.89778 0.13116
956.61201 0.12849
955.32624 0.12505
954.04047 0.12125
952.75470 0.11740
951.46893 0.11369
950.18316 0.11015
948.89739 0.10671
947.61163 0.10332
946.32586 0.09998
945.04009 0.09672
943.75432 0.09356
942.46855 0.09052
941.18278 0.08763
939.89701 0.08494
938.61124 0.08247
937.32547 0.08022
936.03971 0.07817
934.75394 0.07631
933.46817 0.07461
932.18240 0.07304
930.89663 0.07153
929.61086 0.07006
928.32509 0.06862
927.03932 0.06730
925.75356 0.06611
924.46779 0.06505
923.18202 0.06409
921.89625 0.06319
920.61048 0.06233
919.32471 0.06151
918.03894 0.06073
916.75317 0.06003
915.46740 0.05939
914.18164 0.05876
912.89587 0.05813
911.61010 0.05753
910.32433 0.05697
909.03856 0.05639
907.75279 0.05580
906.46702 0.05526
905.18125 0.05478
903.89549 0.05430
902.60972 0.05377
901.32395 0.05321
900.03818 0.05271
898.75241 0.05231
897.46664 0.05199
896.18087 0.05169
894.89510 0.05140
893.60933 0.05113
892.32357 0.05090
891.03780 0.05076
889.75203 0.05087
888.46626 0.05143
887.18049 0.05258
885.89472 0.05441
884.60895 0.05701
883.32318 0.06049
882.03742 0.06473
880.75165 0.06912
879.46588 0.07281
878.18011 0.07544
876.89434 0.07734
875.60857 0.07923
874.32280 0.08140
873.03703 0.08345
871.75126 0.08465
870.46550 0.08450
869.17973 0.08303
867.89396 0.08053
866.60819 0.07732
865.32242 0.07368
864.03665 0.06989
862.75088 0.06625
861.46511 0.06299
860.17935 0.06022
858.89358 0.05794
857.60781 0.05607
856.32204 0.05448
855.03627 0.05313
853.75050 0.05198
852.46473 0.05100
851.17896 0.05017
849.89319 0.04944
848.60743 0.04878
847.32166 0.04817
846.03589 0.04764
844.75012 0.04722
843.46435 0.04685
842.17858 0.04646
840.89281 0.04605
839.60704 0.04568
838.32128 0.04539
837.03551 0.04518
835.74974 0.04499
834.46397 0.04479
833.17820 0.04457
831.89243 0.04432
830.60666 0.04406
829.32089 0.04379
828.03512 0.04350
826.74936 0.04322
825.46359 0.04298
824.17782 0.04285
822.89205 0.04280
821.60628 0.04277
820.32051 0.04268
819.03474 0.04252
817.74897 0.04233
816.46321 0.04215
815.17744 0.04202
813.89167 0.04201
812.60590 0.04210
811.32013 0.04218
810.03436 0.04214
808.74859 0.04200
807.46282 0.04184
806.17705 0.04173
804.89129 0.04166
803.60552 0.04164
802.31975 0.04165
801.03398 0.04167
799.74821 0.04167
798.46244 0.04165
797.17667 0.04159
795.89090 0.04152
794.60513 0.04140
793.31937 0.04124
792.03360 0.04109
790.74783 0.04101
789.46206 0.04101
788.17629 0.04103
786.89052 0.04106
785.60475 0.04109
784.31898 0.04111
783.03322 0.04103
781.74745 0.04082
780.46168 0.04055
779.17591 0.04038
777.89014 0.04038
776.60437 0.04048
775.31860 0.04055
774.03283 0.04052
772.74706 0.04046
771.46130 0.04042
770.17553 0.04038
768.88976 0.04027
767.60399 0.04013
766.31822 0.03999
765.03245 0.03989
763.74668 0.03982
762.46091 0.03978
761.17515 0.03984
759.88938 0.04005
758.60361 0.04034
757.31784 0.04057
756.03207 0.04062
754.74630 0.04051
753.46053 0.04032
752.17476 0.04012
750.88899 0.03992
749.60323 0.03972
748.31746 0.03956
747.03169 0.03942
745.74592 0.03931
744.46015 0.03923
743.17438 0.03918
741.88861 0.03917
740.60284 0.03910
739.31708 0.03893
738.03131 0.03869
736.74554 0.03849
735.45977 0.03844
734.17400 0.03851
732.88823 0.03862
731.60246 0.03864
730.31669 0.03851
729.03092 0.03827
727.74516 0.03805
726.45939 0.03795
725.17362 0.03793
723.88785 0.03786
722.60208 0.03787
721.31631 0.03794
720.03054 0.03807
718.74477 0.03825
717.45901 0.03846
716.17324 0.03866
714.88747 0.03878
713.60170 0.03880
712.31593 0.03869
711.03016 0.03849
709.74439 0.03825
708.45862 0.03803
707.17285 0.03787
705.88709 0.03778
704.60132 0.03776
703.31555 0.03778
702.02978 0.03779
700.74401 0.03779
699.45824 0.03783
698.17247 0.03792
696.88670 0.03805
695.60094 0.03819
694.31517 0.03832
693.02940 0.03841
691.74363 0.03845
690.45786 0.03847
689.17209 0.03845
687.88632 0.03838
686.60055 0.03824
685.31478 0.03805
684.02902 0.03782
682.74325 0.03757
681.45748 0.03734
680.17171 0.03718
678.88594 0.03708
677.60017 0.03701
676.31440 0.03698
675.02863 0.03698
673.74287 0.03703
672.45710 0.03714
671.17133 0.03734
669.88556 0.03760
668.59979 0.03786
667.31402 0.03801
666.02825 0.03794
664.74248 0.03770
663.45671 0.03739
662.17095 0.03715
660.88518 0.03701
659.59941 0.03697
658.31364 0.03699
657.02787 0.03702
655.74210 0.03704
654.45633 0.03704
653.17056 0.03704
651.88480 0.03704
650.59903 0.03709
649.31326 0.03723
648.02749 0.03746
646.74172 0.03774
645.45595 0.03801
644.17018 0.03821
642.88441 0.03835
641.59864 0.03843
640.31288 0.03854
639.02711 0.03874
637.74134 0.03908
636.45557 0.03950
635.16980 0.03995
633.88403 0.04036
632.59826 0.04075
631.31249 0.04128
630.02673 0.04228
628.74096 0.04372
627.45519 0.04462
626.16942 0.04673
624.88365 0.04969
623.59788 0.05282
622.31211 0.05615
621.02634 0.05983
619.74057 0.06365
618.45481 0.06722
617.16904 0.07055
615.88327 0.07388
614.59750 0.07749
613.31173 0.08178
612.02596 0.08735
610.74019 0.09441
609.45442 0.10231
608.16866 0.11000
606.88289 0.11707
605.59712 0.12373
604.31135 0.12972
603.02558 0.13395
601.73981 0.13536
600.45404 0.13405
599.16827 0.13101
597.88250 0.12714
596.59674 0.12286
595.31097 0.11840
594.02520 0.11408
592.73943 0.11033
591.45366 0.10750
590.16789 0.10572
588.88212 0.10498
587.59635 0.10521
586.31059 0.10630
585.02482 0.10813
583.73905 0.11055
582.45328 0.11344
581.16751 0.11672
579.88174 0.12037
578.59597 0.12436
577.31020 0.12857
576.02443 0.13279
574.73867 0.13688
573.45290 0.14083
572.16713 0.14480
570.88136 0.14907
569.59559 0.15390
568.30982 0.15940
567.02405 0.16544
565.73828 0.17172
564.45251 0.17763
563.16675 0.18230
561.88098 0.18480
560.59521 0.18452
559.30944 0.18140
558.02367 0.17577
556.73790 0.16811
555.45213 0.15899
554.16636 0.14910
552.88060 0.13917
551.59483 0.12975
550.30906 0.12106
549.02329 0.11313
547.73752 0.10594
546.45175 0.09958
545.16598 0.09411
543.88021 0.08950
542.59444 0.08551
541.30868 0.08189
540.02291 0.07847
538.73714 0.07527
537.45137 0.07229
536.16560 0.06953
534.87983 0.06698
533.59406 0.06471
532.30829 0.06280
531.02253 0.06118
529.73676 0.05971
528.45099 0.05827
527.16522 0.05683
525.87945 0.05543
524.59368 0.05410
523.30791 0.05288
522.02214 0.05178
520.73637 0.05078
519.45061 0.04987
518.16484 0.04899
516.87907 0.04810
515.59330 0.04713
514.30753 0.04611
513.02176 0.04511
511.73599 0.04416
510.45022 0.04329
509.16446 0.04247
507.87869 0.04171
506.59292 0.04103
505.30715 0.04046
504.02138 0.04004
502.73561 0.03970
501.44984 0.03936
500.16407 0.03901
498.87830 0.03867
497.59254 0.03831
496.30677 0.03788
495.02100 0.03735
493.73523 0.03678
492.44946 0.03631
491.16369 0.03600
489.87792 0.03585
488.59215 0.03578
487.30639 0.03572
486.02062 0.03561
484.73485 0.03542
483.44908 0.03521
482.16331 0.03508
480.87754 0.03512
479.59177 0.03534
478.30600 0.03569
477.02023 0.03611
475.73447 0.03656
474.44870 0.03700
473.16293 0.03731
471.87716 0.03742
470.59139 0.03733
469.30562 0.03715
468.01985 0.03696
466.73408 0.03677
465.44832 0.03650
464.16255 0.03614
462.87678 0.03574
461.59101 0.03536
460.30524 0.03497
459.01947 0.03453
457.73370 0.03402
456.44793 0.03352
455.16216 0.03310
453.87640 0.03273
452.59063 0.03237
451.30486 0.03196
450.01909 0.03153
448.73332 0.03114
447.44755 0.03081
446.16178 0.03055
444.87601 0.03036
443.59025 0.03019
442.30448 0.03000
441.01871 0.02981
439.73294 0.02961
438.44717 0.02942
437.16140 0.02923
435.87563 0.02908
434.58986 0.02899
433.30409 0.02896
432.01833 0.02892
430.73256 0.02880
429.44679 0.02858
428.16102 0.02828
426.87525 0.02797
425.58948 0.02773
424.30371 0.02757
423.01794 0.02746
421.73218 0.02738
420.44641 0.02729
419.16064 0.02717
417.87487 0.02697
416.58910 0.02673
415.30333 0.02648
414.01756 0.02629
412.73179 0.02617
411.44602 0.02612
410.16026 0.02611
408.87449 0.02608
407.58872 0.02602
406.30295 0.02597
405.01718 0.02593
403.73141 0.02593
402.44564 0.02595
401.15987 0.02602
399.87411 0.02615
