3997.45528	0.04444
3996.16951	0.04492
3994.88374	0.04500
3993.59798	0.04444
3992.31221	0.04352
3991.02644	0.04274
3989.74067	0.04236
3988.45490	0.04223
3987.16913	0.04212
3985.88336	0.04198
3984.59759	0.04196
3983.31183	0.04210
3982.02606	0.04225
3980.74029	0.04236
3979.45452	0.04262
3978.16875	0.04331
3976.88298	0.04435
3975.59721	0.04528
3974.31144	0.04571
3973.02567	0.04565
3971.73991	0.04546
3970.45414	0.04540
3969.16837	0.04546
3967.88260	0.04540
3966.59683	0.04514
3965.31106	0.04486
3964.02529	0.04475
3962.73952	0.04465
3961.45376	0.04417
3960.16799	0.04325
3958.88222	0.04241
3957.59645	0.04232
3956.31068	0.04303
3955.02491	0.04400
3953.73914	0.04464
3952.45337	0.04486
3951.16760	0.04494
3949.88184	0.04512
3948.59607	0.04538
3947.31030	0.04563
3946.02453	0.04576
3944.73876	0.04560
3943.45299	0.04494
3942.16722	0.04379
3940.88145	0.04263
3939.59569	0.04203
3938.30992	0.04213
3937.02415	0.04255
3935.73838	0.04285
3934.45261	0.04290
3933.16684	0.04284
3931.88107	0.04290
3930.59530	0.04327
3929.30953	0.04388
3928.02377	0.04443
3926.73800	0.04456
3925.45223	0.04421
3924.16646	0.04368
3922.88069	0.04350
3921.59492	0.04394
3920.30915	0.04477
3919.02338	0.04549
3917.73762	0.04570
3916.45185	0.04537
3915.16608	0.04481
3913.88031	0.04438
3912.59454	0.04423
3911.30877	0.04428
3910.02300	0.04442
3908.73723	0.04456
3907.45146	0.04471
3906.16570	0.04490
3904.87993	0.04493
3903.59416	0.04441
3902.30839	0.04313
3901.02262	0.04163
3899.73685	0.04078
3898.45108	0.04096
3897.16531	0.04181
3895.87955	0.04267
3894.59378	0.04329
3893.30801	0.04378
3892.02224	0.04419
3890.73647	0.04427
3889.45070	0.04390
3888.16493	0.04334
3886.87916	0.04287
3885.59339	0.04257
3884.30763	0.04246
3883.02186	0.04272
3881.73609	0.04334
3880.45032	0.04399
3879.16455	0.04433
3877.87878	0.04435
3876.59301	0.04421
3875.30724	0.04394
3874.02148	0.04341
3872.73571	0.04279
3871.44994	0.04241
3870.16417	0.04234
3868.87840	0.04243
3867.59263	0.04266
3866.30686	0.04302
3865.02109	0.04317
3863.73532	0.04286
3862.44956	0.04225
3861.16379	0.04175
3859.87802	0.04156
3858.59225	0.04163
3857.30648	0.04186
3856.02071	0.04228
3854.73494	0.04274
3853.44917	0.04278
3852.16341	0.04220
3850.87764	0.04136
3849.59187	0.04077
3848.30610	0.04075
3847.02033	0.04139
3845.73456	0.04252
3844.44879	0.04368
3843.16302	0.04426
3841.87725	0.04402
3840.59149	0.04321
3839.30572	0.04220
3838.01995	0.04114
3836.73418	0.04011
3835.44841	0.03942
3834.16264	0.03935
3832.87687	0.03982
3831.59110	0.04055
3830.30534	0.04133
3829.01957	0.04192
3827.73380	0.04207
3826.44803	0.04167
3825.16226	0.04112
3823.87649	0.04114
3822.59072	0.04198
3821.30495	0.04305
3820.01918	0.04371
3818.73342	0.04393
3817.44765	0.04391
3816.16188	0.04345
3814.87611	0.04257
3813.59034	0.04183
3812.30457	0.04168
3811.01880	0.04189
3809.73303	0.04218
3808.44726	0.04259
3807.16150	0.04302
3805.87573	0.04334
3804.58996	0.04371
3803.30419	0.04430
3802.01842	0.04470
3800.73265	0.04429
3799.44688	0.04323
3798.16111	0.04232
3796.87535	0.04190
3795.58958	0.04166
3794.30381	0.04134
3793.01804	0.04104
3791.73227	0.04106
3790.44650	0.04141
3789.16073	0.04177
3787.87496	0.04188
3786.58919	0.04182
3785.30343	0.04182
3784.01766	0.04193
3782.73189	0.04192
3781.44612	0.04167
3780.16035	0.04122
3778.87458	0.04064
3777.58881	0.04001
3776.30304	0.03945
3775.01728	0.03909
3773.73151	0.03894
3772.44574	0.03891
3771.15997	0.03890
3769.87420	0.03891
3768.58843	0.03913
3767.30266	0.03972
3766.01689	0.04048
3764.73112	0.04096
3763.44536	0.04094
3762.15959	0.04054
3760.87382	0.03994
3759.58805	0.03931
3758.30228	0.03881
3757.01651	0.03856
3755.73074	0.03859
3754.44497	0.03886
3753.15921	0.03917
3751.87344	0.03923
3750.58767	0.03893
3749.30190	0.03845
3748.01613	0.03829
3746.73036	0.03893
3745.44459	0.04001
3744.15882	0.04048
3742.87305	0.04013
3741.58729	0.03985
3740.30152	0.04002
3739.01575	0.04013
3737.72998	0.03977
3736.44421	0.03922
3735.15844	0.03903
3733.87267	0.03939
3732.58690	0.03990
3731.30114	0.03998
3730.01537	0.03969
3728.72960	0.03969
3727.44383	0.04028
3726.15806	0.04102
3724.87229	0.04126
3723.58652	0.04071
3722.30075	0.03966
3721.01498	0.03868
3719.72922	0.03823
3718.44345	0.03844
3717.15768	0.03908
3715.87191	0.03984
3714.58614	0.04043
3713.30037	0.04052
3712.01460	0.04009
3710.72883	0.03952
3709.44307	0.03925
3708.15730	0.03937
3706.87153	0.03949
3705.58576	0.03933
3704.29999	0.03899
3703.01422	0.03867
3701.72845	0.03851
3700.44268	0.03849
3699.15691	0.03851
3697.87115	0.03849
3696.58538	0.03842
3695.29961	0.03832
3694.01384	0.03830
3692.72807	0.03861
3691.44230	0.03917
3690.15653	0.03972
3688.87076	0.04001
3687.58500	0.03985
3686.29923	0.03924
3685.01346	0.03870
3683.72769	0.03853
3682.44192	0.03867
3681.15615	0.03905
3679.87038	0.03955
3678.58461	0.04014
3677.29884	0.04076
3676.01308	0.04080
3674.72731	0.03977
3673.44154	0.03820
3672.15577	0.03726
3670.87000	0.03742
3669.58423	0.03818
3668.29846	0.03897
3667.01269	0.03966
3665.72693	0.04028
3664.44116	0.04084
3663.15539	0.04127
3661.86962	0.04152
3660.58385	0.04153
3659.29808	0.04132
3658.01231	0.04101
3656.72654	0.04071
3655.44077	0.04053
3654.15501	0.04063
3652.86924	0.04092
3651.58347	0.04094
3650.29770	0.04027
3649.01193	0.03905
3647.72616	0.03792
3646.44039	0.03746
3645.15462	0.03784
3643.86886	0.03885
3642.58309	0.04008
3641.29732	0.04117
3640.01155	0.04197
3638.72578	0.04245
3637.44001	0.04260
3636.15424	0.04240
3634.86847	0.04194
3633.58270	0.04140
3632.29694	0.04093
3631.01117	0.04064
3629.72540	0.04058
3628.43963	0.04080
3627.15386	0.04154
3625.86809	0.04290
3624.58232	0.04453
3623.29655	0.04579
3622.01079	0.04635
3620.72502	0.04626
3619.43925	0.04577
3618.15348	0.04524
3616.86771	0.04510
3615.58194	0.04546
3614.29617	0.04602
3613.01040	0.04630
3611.72463	0.04607
3610.43887	0.04552
3609.15310	0.04500
3607.86733	0.04483
3606.58156	0.04518
3605.29579	0.04594
3604.01002	0.04681
3602.72425	0.04761
3601.43848	0.04842
3600.15272	0.04924
3598.86695	0.04994
3597.58118	0.05037
3596.29541	0.05056
3595.00964	0.05048
3593.72387	0.05015
3592.43810	0.04989
3591.15233	0.05016
3589.86656	0.05096
3588.58080	0.05174
3587.29503	0.05190
3586.00926	0.05133
3584.72349	0.05054
3583.43772	0.05025
3582.15195	0.05066
3580.86618	0.05134
3579.58041	0.05180
3578.29464	0.05195
3577.00888	0.05202
3575.72311	0.05221
3574.43734	0.05243
3573.15157	0.05252
3571.86580	0.05249
3570.58003	0.05245
3569.29426	0.05248
3568.00849	0.05251
3566.72273	0.05246
3565.43696	0.05247
3564.15119	0.05282
3562.86542	0.05361
3561.57965	0.05453
3560.29388	0.05514
3559.00811	0.05518
3557.72234	0.05488
3556.43657	0.05467
3555.15081	0.05478
3553.86504	0.05503
3552.57927	0.05510
3551.29350	0.05494
3550.00773	0.05491
3548.72196	0.05547
3547.43619	0.05674
3546.15042	0.05833
3544.86466	0.05963
3543.57889	0.06021
3542.29312	0.06009
3541.00735	0.05966
3539.72158	0.05933
3538.43581	0.05925
3537.15004	0.05934
3535.86427	0.05953
3534.57850	0.05986
3533.29274	0.06033
3532.00697	0.06079
3530.72120	0.06098
3529.43543	0.06077
3528.14966	0.06045
3526.86389	0.06056
3525.57812	0.06133
3524.29235	0.06241
3523.00659	0.06324
3521.72082	0.06356
3520.43505	0.06354
3519.14928	0.06347
3517.86351	0.06346
3516.57774	0.06350
3515.29197	0.06346
3514.00620	0.06324
3512.72043	0.06277
3511.43467	0.06212
3510.14890	0.06149
3508.86313	0.06119
3507.57736	0.06148
3506.29159	0.06233
3505.00582	0.06335
3503.72005	0.06417
3502.43428	0.06464
3501.14852	0.06484
3499.86275	0.06487
3498.57698	0.06474
3497.29121	0.06450
3496.00544	0.06423
3494.71967	0.06413
3493.43390	0.06436
3492.14813	0.06496
3490.86236	0.06573
3489.57660	0.06633
3488.29083	0.06659
3487.00506	0.06662
3485.71929	0.06671
3484.43352	0.06702
3483.14775	0.06752
3481.86198	0.06801
3480.57621	0.06838
3479.29045	0.06871
3478.00468	0.06912
3476.71891	0.06963
3475.43314	0.07012
3474.14737	0.07042
3472.86160	0.07048
3471.57583	0.07036
3470.29006	0.07014
3469.00429	0.06984
3467.71853	0.06954
3466.43276	0.06934
3465.14699	0.06933
3463.86122	0.06945
3462.57545	0.06960
3461.28968	0.06977
3460.00391	0.07006
3458.71814	0.07057
3457.43238	0.07128
3456.14661	0.07200
3454.86084	0.07252
3453.57507	0.07279
3452.28930	0.07287
3451.00353	0.07280
3449.71776	0.07260
3448.43199	0.07232
3447.14622	0.07214
3445.86046	0.07212
3444.57469	0.07222
3443.28892	0.07228
3442.00315	0.07228
3440.71738	0.07231
3439.43161	0.07251
3438.14584	0.07300
3436.86007	0.07373
3435.57431	0.07450
3434.28854	0.07496
3433.00277	0.07495
3431.71700	0.07464
3430.43123	0.07437
3429.14546	0.07427
3427.85969	0.07428
3426.57392	0.07433
3425.28815	0.07449
3424.00239	0.07487
3422.71662	0.07544
3421.43085	0.07599
3420.14508	0.07627
3418.85931	0.07628
3417.57354	0.07629
3416.28777	0.07659
3415.00200	0.07711
3413.71624	0.07741
3412.43047	0.07710
3411.14470	0.07631
3409.85893	0.07564
3408.57316	0.07564
3407.28739	0.07629
3406.00162	0.07715
3404.71585	0.07781
3403.43008	0.07825
3402.14432	0.07859
3400.85855	0.07887
3399.57278	0.07902
3398.28701	0.07899
3397.00124	0.07876
3395.71547	0.07846
3394.42970	0.07830
3393.14393	0.07839
3391.85817	0.07859
3390.57240	0.07865
3389.28663	0.07848
3388.00086	0.07822
3386.71509	0.07803
3385.42932	0.07785
3384.14355	0.07764
3382.85778	0.07749
3381.57201	0.07762
3380.28625	0.07816
3379.00048	0.07902
3377.71471	0.07997
3376.42894	0.08078
3375.14317	0.08124
3373.85740	0.08124
3372.57163	0.08091
3371.28586	0.08055
3370.00010	0.08041
3368.71433	0.08052
3367.42856	0.08075
3366.14279	0.08091
3364.85702	0.08092
3363.57125	0.08074
3362.28548	0.08041
3360.99971	0.08003
3359.71394	0.07975
3358.42818	0.07959
3357.14241	0.07950
3355.85664	0.07952
3354.57087	0.07974
3353.28510	0.08022
3351.99933	0.08079
3350.71356	0.08127
3349.42779	0.08162
3348.14202	0.08181
3346.85626	0.08178
3345.57049	0.08149
3344.28472	0.08109
3342.99895	0.08084
3341.71318	0.08086
3340.42741	0.08102
3339.14164	0.08106
3337.85587	0.08086
3336.57011	0.08061
3335.28434	0.08059
3333.99857	0.08083
3332.71280	0.08106
3331.42703	0.08101
3330.14126	0.08075
3328.85549	0.08054
3327.56972	0.08061
3326.28395	0.08094
3324.99819	0.08134
3323.71242	0.08168
3322.42665	0.08186
3321.14088	0.08184
3319.85511	0.08161
3318.56934	0.08127
3317.28357	0.08108
3315.99780	0.08125
3314.71204	0.08174
3313.42627	0.08228
3312.14050	0.08262
3310.85473	0.08272
3309.56896	0.08267
3308.28319	0.08261
3306.99742	0.08260
3305.71165	0.08264
3304.42588	0.08268
3303.14012	0.08269
3301.85435	0.08270
3300.56858	0.08275
3299.28281	0.08278
3297.99704	0.08263
3296.71127	0.08215
3295.42550	0.08145
3294.13973	0.08080
3292.85397	0.08047
3291.56820	0.08049
3290.28243	0.08073
3288.99666	0.08103
3287.71089	0.08128
3286.42512	0.08136
3285.13935	0.08116
3283.85358	0.08074
3282.56781	0.08037
3281.28205	0.08036
3279.99628	0.08080
3278.71051	0.08151
3277.42474	0.08214
3276.13897	0.08237
3274.85320	0.08201
3273.56743	0.08114
3272.28166	0.08010
3270.99590	0.07926
3269.71013	0.07879
3268.42436	0.07861
3267.13859	0.07865
3265.85282	0.07895
3264.56705	0.07953
3263.28128	0.08025
3261.99551	0.08087
3260.70974	0.08129
3259.42398	0.08144
3258.13821	0.08115
3256.85244	0.08029
3255.56667	0.07908
3254.28090	0.07797
3252.99513	0.07723
3251.70936	0.07680
3250.42359	0.07667
3249.13783	0.07695
3247.85206	0.07773
3246.56629	0.07872
3245.28052	0.07946
3243.99475	0.07970
3242.70898	0.07955
3241.42321	0.07931
3240.13744	0.07922
3238.85167	0.07931
3237.56591	0.07945
3236.28014	0.07948
3234.99437	0.07932
3233.70860	0.07893
3232.42283	0.07838
3231.13706	0.07785
3229.85129	0.07759
3228.56552	0.07766
3227.27976	0.07784
3225.99399	0.07791
3224.70822	0.07785
3223.42245	0.07783
3222.13668	0.07787
3220.85091	0.07777
3219.56514	0.07735
3218.27937	0.07669
3216.99360	0.07610
3215.70784	0.07584
3214.42207	0.07589
3213.13630	0.07596
3211.85053	0.07576
3210.56476	0.07532
3209.27899	0.07496
3207.99322	0.07506
3206.70745	0.07561
3205.42169	0.07619
3204.13592	0.07632
3202.85015	0.07586
3201.56438	0.07511
3200.27861	0.07458
3198.99284	0.07450
3197.70707	0.07475
3196.42130	0.07511
3195.13553	0.07551
3193.84977	0.07595
3192.56400	0.07634
3191.27823	0.07648
3189.99246	0.07625
3188.70669	0.07574
3187.42092	0.07516
3186.13515	0.07468
3184.84938	0.07438
3183.56362	0.07422
3182.27785	0.07409
3180.99208	0.07393
3179.70631	0.07378
3178.42054	0.07369
3177.13477	0.07361
3175.84900	0.07342
3174.56323	0.07308
3173.27746	0.07267
3171.99170	0.07231
3170.70593	0.07213
3169.42016	0.07214
3168.13439	0.07219
3166.84862	0.07208
3165.56285	0.07176
3164.27708	0.07148
3162.99131	0.07144
3161.70555	0.07158
3160.41978	0.07169
3159.13401	0.07168
3157.84824	0.07159
3156.56247	0.07149
3155.27670	0.07136
3153.99093	0.07109
3152.70516	0.07060
3151.41939	0.07000
3150.13363	0.06959
3148.84786	0.06964
3147.56209	0.07012
3146.27632	0.07073
3144.99055	0.07107
3143.70478	0.07095
3142.41901	0.07040
3141.13324	0.06969
3139.84748	0.06910
3138.56171	0.06878
3137.27594	0.06864
3135.99017	0.06849
3134.70440	0.06833
3133.41863	0.06828
3132.13286	0.06844
3130.84709	0.06874
3129.56132	0.06902
3128.27556	0.06916
3126.98979	0.06917
3125.70402	0.06911
3124.41825	0.06901
3123.13248	0.06883
3121.84671	0.06848
3120.56094	0.06795
3119.27517	0.06729
3117.98940	0.06664
3116.70364	0.06614
3115.41787	0.06597
3114.13210	0.06618
3112.84633	0.06667
3111.56056	0.06721
3110.27479	0.06756
3108.98902	0.06756
3107.70325	0.06719
3106.41749	0.06657
3105.13172	0.06602
3103.84595	0.06589
3102.56018	0.06622
3101.27441	0.06675
3099.98864	0.06718
3098.70287	0.06744
3097.41710	0.06758
3096.13133	0.06755
3094.84557	0.06729
3093.55980	0.06689
3092.27403	0.06655
3090.98826	0.06635
3089.70249	0.06625
3088.41672	0.06619
3087.13095	0.06620
3085.84518	0.06627
3084.55942	0.06634
3083.27365	0.06635
3081.98788	0.06633
3080.70211	0.06629
3079.41634	0.06620
3078.13057	0.06602
3076.84480	0.06583
3075.55903	0.06575
3074.27326	0.06579
3072.98750	0.06584
3071.70173	0.06575
3070.41596	0.06553
3069.13019	0.06527
3067.84442	0.06509
3066.55865	0.06504
3065.27288	0.06513
3063.98711	0.06534
3062.70135	0.06557
3061.41558	0.06568
3060.12981	0.06562
3058.84404	0.06547
3057.55827	0.06536
3056.27250	0.06530
3054.98673	0.06520
3053.70096	0.06495
3052.41519	0.06451
3051.12943	0.06389
3049.84366	0.06314
3048.55789	0.06248
3047.27212	0.06220
3045.98635	0.06241
3044.70058	0.06291
3043.41481	0.06335
3042.12904	0.06348
3040.84328	0.06336
3039.55751	0.06325
3038.27174	0.06340
3036.98597	0.06381
3035.70020	0.06423
3034.41443	0.06436
3033.12866	0.06408
3031.84289	0.06352
3030.55712	0.06288
3029.27136	0.06232
3027.98559	0.06188
3026.69982	0.06158
3025.41405	0.06147
3024.12828	0.06152
3022.84251	0.06159
3021.55674	0.06148
3020.27097	0.06116
3018.98521	0.06081
3017.69944	0.06061
3016.41367	0.06052
3015.12790	0.06036
3013.84213	0.06005
3012.55636	0.05973
3011.27059	0.05955
3009.98482	0.05952
3008.69905	0.05952
3007.41329	0.05953
3006.12752	0.05961
3004.84175	0.05980
3003.55598	0.05999
3002.27021	0.06009
3000.98444	0.06010
2999.69867	0.06012
2998.41290	0.06024
2997.12714	0.06043
2995.84137	0.06061
2994.55560	0.06064
2993.26983	0.06044
2991.98406	0.06009
2990.69829	0.05981
2989.41252	0.05977
2988.12675	0.05992
2986.84098	0.06004
2985.55522	0.05997
2984.26945	0.05971
2982.98368	0.05937
2981.69791	0.05907
2980.41214	0.05888
2979.12637	0.05885
2977.84060	0.05888
2976.55483	0.05880
2975.26907	0.05857
2973.98330	0.05838
2972.69753	0.05844
2971.41176	0.05881
2970.12599	0.05935
2968.84022	0.05983
2967.55445	0.06006
2966.26868	0.06007
2964.98291	0.05999
2963.69715	0.05989
2962.41138	0.05976
2961.12561	0.05963
2959.83984	0.05958
2958.55407	0.05970
2957.26830	0.06000
2955.98253	0.06039
2954.69676	0.06073
2953.41100	0.06094
2952.12523	0.06098
2950.83946	0.06097
2949.55369	0.06103
2948.26792	0.06118
2946.98215	0.06130
2945.69638	0.06129
2944.41061	0.06119
2943.12484	0.06108
2941.83908	0.06101
2940.55331	0.06091
2939.26754	0.06070
2937.98177	0.06038
2936.69600	0.06006
2935.41023	0.05976
2934.12446	0.05946
2932.83869	0.05911
2931.55293	0.05864
2930.26716	0.05801
2928.98139	0.05728
2927.69562	0.05655
2926.40985	0.05584
2925.12408	0.05506
2923.83831	0.05413
2922.55254	0.05302
2921.26677	0.05179
2919.98101	0.05061
2918.69524	0.04975
2917.40947	0.04943
2916.12370	0.04971
2914.83793	0.05048
2913.55216	0.05161
2912.26639	0.05291
2910.98062	0.05413
2909.69486	0.05506
2908.40909	0.05565
2907.12332	0.05601
2905.83755	0.05630
2904.55178	0.05655
2903.26601	0.05675
2901.98024	0.05691
2900.69447	0.05710
2899.40870	0.05736
2898.12294	0.05762
2896.83717	0.05775
2895.55140	0.05767
2894.26563	0.05744
2892.97986	0.05725
2891.69409	0.05716
2890.40832	0.05706
2889.12255	0.05684
2887.83678	0.05658
2886.55102	0.05645
2885.26525	0.05652
2883.97948	0.05670
2882.69371	0.05684
2881.40794	0.05689
2880.12217	0.05683
2878.83640	0.05673
2877.55063	0.05669
2876.26487	0.05677
2874.97910	0.05691
2873.69333	0.05703
2872.40756	0.05712
2871.12179	0.05716
2869.83602	0.05708
2868.55025	0.05681
2867.26448	0.05642
2865.97871	0.05601
2864.69295	0.05564
2863.40718	0.05532
2862.12141	0.05503
2860.83564	0.05474
2859.54987	0.05434
2858.26410	0.05368
2856.97833	0.05266
2855.69256	0.05140
2854.40680	0.05008
2853.12103	0.04884
2851.83526	0.04779
2850.54949	0.04708
2849.26372	0.04689
2847.97795	0.04730
2846.69218	0.04820
2845.40641	0.04934
2844.12064	0.05048
2842.83488	0.05145
2841.54911	0.05219
2840.26334	0.05269
2838.97757	0.05297
2837.69180	0.05308
2836.40603	0.05307
2835.12026	0.05298
2833.83449	0.05277
2832.54873	0.05240
2831.26296	0.05193
2829.97719	0.05150
2828.69142	0.05125
2827.40565	0.05121
2826.11988	0.05128
2824.83411	0.05134
2823.54834	0.05135
2822.26257	0.05135
2820.97681	0.05139
2819.69104	0.05147
2818.40527	0.05153
2817.11950	0.05144
2815.83373	0.05115
2814.54796	0.05075
2813.26219	0.05040
2811.97642	0.05022
2810.69066	0.05018
2809.40489	0.05021
2808.11912	0.05023
2806.83335	0.05021
2805.54758	0.05016
2804.26181	0.05009
2802.97604	0.04998
2801.69027	0.04982
2800.40450	0.04962
2799.11874	0.04944
2797.83297	0.04927
2796.54720	0.04910
2795.26143	0.04896
2793.97566	0.04896
2792.68989	0.04915
2791.40412	0.04943
2790.11835	0.04962
2788.83259	0.04957
2787.54682	0.04925
2786.26105	0.04874
2784.97528	0.04819
2783.68951	0.04778
2782.40374	0.04763
2781.11797	0.04777
2779.83220	0.04809
2778.54643	0.04840
2777.26067	0.04853
2775.97490	0.04846
2774.68913	0.04826
2773.40336	0.04804
2772.11759	0.04787
2770.83182	0.04773
2769.54605	0.04756
2768.26028	0.04730
2766.97452	0.04706
2765.68875	0.04703
2764.40298	0.04725
2763.11721	0.04751
2761.83144	0.04760
2760.54567	0.04746
2759.25990	0.04720
2757.97413	0.04696
2756.68836	0.04681
2755.40260	0.04680
2754.11683	0.04692
2752.83106	0.04707
2751.54529	0.04708
2750.25952	0.04690
2748.97375	0.04661
2747.68798	0.04640
2746.40221	0.04632
2745.11645	0.04628
2743.83068	0.04621
2742.54491	0.04613
2741.25914	0.04607
2739.97337	0.04599
2738.68760	0.04585
2737.40183	0.04571
2736.11606	0.04564
2734.83029	0.04564
2733.54453	0.04565
2732.25876	0.04563
2730.97299	0.04558
2729.68722	0.04544
2728.40145	0.04518
2727.11568	0.04491
2725.82991	0.04475
2724.54414	0.04474
2723.25838	0.04471
2721.97261	0.04460
2720.68684	0.04451
2719.40107	0.04458
2718.11530	0.04474
2716.82953	0.04473
2715.54376	0.04443
2714.25799	0.04406
2712.97222	0.04392
2711.68646	0.04415
2710.40069	0.04454
2709.11492	0.04483
2707.82915	0.04490
2706.54338	0.04479
2705.25761	0.04462
2703.97184	0.04442
2702.68607	0.04422
2701.40031	0.04401
2700.11454	0.04382
2698.82877	0.04367
2697.54300	0.04357
2696.25723	0.04350
2694.97146	0.04347
2693.68569	0.04349
2692.39992	0.04355
2691.11415	0.04365
2689.82839	0.04375
2688.54262	0.04381
2687.25685	0.04377
2685.97108	0.04362
2684.68531	0.04338
2683.39954	0.04313
2682.11377	0.04287
2680.82800	0.04261
2679.54224	0.04240
2678.25647	0.04228
2676.97070	0.04230
2675.68493	0.04240
2674.39916	0.04249
2673.11339	0.04247
2671.82762	0.04239
2670.54185	0.04239
2669.25608	0.04256
2667.97032	0.04282
2666.68455	0.04303
2665.39878	0.04315
2664.11301	0.04315
2662.82724	0.04300
2661.54147	0.04268
2660.25570	0.04227
2658.96993	0.04195
2657.68417	0.04181
2656.39840	0.04186
2655.11263	0.04202
2653.82686	0.04217
2652.54109	0.04215
2651.25532	0.04187
2649.96955	0.04145
2648.68378	0.04104
2647.39801	0.04073
2646.11225	0.04046
2644.82648	0.04027
2643.54071	0.04022
2642.25494	0.04028
2640.96917	0.04029
2639.68340	0.04015
2638.39763	0.03993
2637.11186	0.03977
2635.82609	0.03970
2634.54033	0.03969
2633.25456	0.03967
2631.96879	0.03960
2630.68302	0.03950
2629.39725	0.03933
2628.11148	0.03903
2626.82571	0.03862
2625.53994	0.03824
2624.25418	0.03807
2622.96841	0.03811
2621.68264	0.03822
2620.39687	0.03828
2619.11110	0.03822
2617.82533	0.03804
2616.53956	0.03781
2615.25379	0.03758
2613.96802	0.03734
2612.68226	0.03705
2611.39649	0.03674
2610.11072	0.03650
2608.82495	0.03641
2607.53918	0.03644
2606.25341	0.03658
2604.96764	0.03678
2603.68187	0.03697
2602.39611	0.03703
2601.11034	0.03688
2599.82457	0.03655
2598.53880	0.03622
2597.25303	0.03608
2595.96726	0.03616
2594.68149	0.03624
2593.39572	0.03611
2592.10995	0.03583
2590.82419	0.03561
2589.53842	0.03552
2588.25265	0.03539
2586.96688	0.03505
2585.68111	0.03466
2584.39534	0.03451
2583.10957	0.03475
2581.82380	0.03513
2580.53804	0.03524
2579.25227	0.03496
2577.96650	0.03450
2576.68073	0.03419
2575.39496	0.03408
2574.10919	0.03406
2572.82342	0.03411
2571.53765	0.03428
2570.25188	0.03446
2568.96612	0.03441
2567.68035	0.03406
2566.39458	0.03362
2565.10881	0.03341
2563.82304	0.03355
2562.53727	0.03393
2561.25150	0.03433
2559.96573	0.03453
2558.67997	0.03445
2557.39420	0.03416
2556.10843	0.03381
2554.82266	0.03354
2553.53689	0.03333
2552.25112	0.03307
2550.96535	0.03275
2549.67958	0.03259
2548.39381	0.03280
2547.10805	0.03336
2545.82228	0.03393
2544.53651	0.03416
2543.25074	0.03396
2541.96497	0.03351
2540.67920	0.03316
2539.39343	0.03309
2538.10766	0.03323
2536.82190	0.03336
2535.53613	0.03331
2534.25036	0.03309
2532.96459	0.03282
2531.67882	0.03263
2530.39305	0.03261
2529.10728	0.03273
2527.82151	0.03294
2526.53574	0.03315
2525.24998	0.03328
2523.96421	0.03327
2522.67844	0.03316
2521.39267	0.03307
2520.10690	0.03307
2518.82113	0.03311
2517.53536	0.03308
2516.24959	0.03299
2514.96383	0.03291
2513.67806	0.03290
2512.39229	0.03292
2511.10652	0.03289
2509.82075	0.03284
2508.53498	0.03286
2507.24921	0.03293
2505.96344	0.03284
2504.67767	0.03241
2503.39191	0.03173
2502.10614	0.03117
2500.82037	0.03106
2499.53460	0.03137
2498.24883	0.03173
2496.96306	0.03182
2495.67729	0.03166
2494.39152	0.03153
2493.10576	0.03164
2491.81999	0.03198
2490.53422	0.03242
2489.24845	0.03276
2487.96268	0.03278
2486.67691	0.03242
2485.39114	0.03184
2484.10537	0.03125
2482.81960	0.03078
2481.53384	0.03045
2480.24807	0.03030
2478.96230	0.03030
2477.67653	0.03034
2476.39076	0.03033
2475.10499	0.03028
2473.81922	0.03026
2472.53345	0.03031
2471.24769	0.03041
2469.96192	0.03051
2468.67615	0.03061
2467.39038	0.03068
2466.10461	0.03064
2464.81884	0.03044
2463.53307	0.03023
2462.24730	0.03025
2460.96153	0.03060
2459.67577	0.03104
2458.39000	0.03123
2457.10423	0.03106
2455.81846	0.03081
2454.53269	0.03074
2453.24692	0.03083
2451.96115	0.03082
2450.67538	0.03064
2449.38962	0.03043
2448.10385	0.03030
2446.81808	0.03022
2445.53231	0.03013
2444.24654	0.03009
2442.96077	0.03024
2441.67500	0.03055
2440.38923	0.03087
2439.10346	0.03101
2437.81770	0.03093
2436.53193	0.03072
2435.24616	0.03046
2433.96039	0.03021
2432.67462	0.03000
2431.38885	0.02988
2430.10308	0.02980
2428.81731	0.02973
2427.53155	0.02976
2426.24578	0.02992
2424.96001	0.03011
2423.67424	0.03019
2422.38847	0.03021
2421.10270	0.03030
2419.81693	0.03049
2418.53116	0.03059
2417.24539	0.03053
2415.95963	0.03039
2414.67386	0.03024
2413.38809	0.03001
2412.10232	0.02967
2410.81655	0.02932
2409.53078	0.02914
2408.24501	0.02919
2406.95924	0.02941
2405.67347	0.02966
2404.38771	0.02985
2403.10194	0.02994
2401.81617	0.02995
2400.53040	0.02989
2399.24463	0.02977
2397.95886	0.02964
2396.67309	0.02958
2395.38732	0.02960
2394.10156	0.02970
2392.81579	0.02985
2391.53002	0.03000
2390.24425	0.03009
2388.95848	0.03010
2387.67271	0.03009
2386.38694	0.03014
2385.10117	0.03030
2383.81540	0.03050
2382.52964	0.03064
2381.24387	0.03075
2379.95810	0.03095
2378.67233	0.03133
2377.38656	0.03188
2376.10079	0.03234
2374.81502	0.03252
2373.52925	0.03264
2372.24349	0.03264
2370.95772	0.03292
2369.67195	0.03302
2368.38618	0.03314
2367.10041	0.03371
2365.81464	0.03486
2364.52887	0.03548
2363.24310	0.03568
2361.95733	0.03577
2360.67157	0.03609
2359.38580	0.03576
2358.10003	0.03533
2356.81426	0.03502
2355.52849	0.03474
2354.24272	0.03450
2352.95695	0.03382
2351.67118	0.03331
2350.38542	0.03351
2349.09965	0.03355
2347.81388	0.03265
2346.52811	0.03217
2345.24234	0.03256
2343.95657	0.03312
2342.67080	0.03280
2341.38503	0.03282
2340.09926	0.03370
2338.81350	0.03399
2337.52773	0.03360
2336.24196	0.03372
2334.95619	0.03431
2333.67042	0.03426
2332.38465	0.03297
2331.09888	0.03340
2329.81311	0.03445
2328.52735	0.03349
2327.24158	0.03438
2325.95581	0.03599
2324.67004	0.03503
2323.38427	0.03447
2322.09850	0.03486
2320.81273	0.03309
2319.52696	0.03245
2318.24119	0.03257
2316.95543	0.03133
2315.66966	0.03097
2314.38389	0.03077
2313.09812	0.02987
2311.81235	0.02974
2310.52658	0.02925
2309.24081	0.02894
2307.95504	0.02917
2306.66928	0.02897
2305.38351	0.02904
2304.09774	0.02901
2302.81197	0.02879
2301.52620	0.02868
2300.24043	0.02835
2298.95466	0.02812
2297.66889	0.02795
2296.38312	0.02792
2295.09736	0.02798
2293.81159	0.02785
2292.52582	0.02762
2291.24005	0.02738
2289.95428	0.02729
2288.66851	0.02726
2287.38274	0.02716
2286.09697	0.02693
2284.81121	0.02664
2283.52544	0.02638
2282.23967	0.02624
2280.95390	0.02627
2279.66813	0.02638
2278.38236	0.02637
2277.09659	0.02602
2275.81082	0.02537
2274.52505	0.02472
2273.23929	0.02441
2271.95352	0.02450
2270.66775	0.02476
2269.38198	0.02488
2268.09621	0.02473
2266.81044	0.02438
2265.52467	0.02405
2264.23890	0.02393
2262.95314	0.02414
2261.66737	0.02452
2260.38160	0.02467
2259.09583	0.02438
2257.81006	0.02376
2256.52429	0.02307
2255.23852	0.02252
2253.95275	0.02235
2252.66698	0.02263
2251.38122	0.02317
2250.09545	0.02361
2248.80968	0.02357
2247.52391	0.02307
2246.23814	0.02221
2244.95237	0.02129
2243.66660	0.02062
2242.38083	0.02038
2241.09507	0.02042
2239.80930	0.02041
2238.52353	0.02015
2237.23776	0.01972
2235.95199	0.01941
2234.66622	0.01943
2233.38045	0.01972
2232.09468	0.01991
2230.80891	0.01948
2229.52315	0.01827
2228.23738	0.01679
2226.95161	0.01584
2225.66584	0.01572
2224.38007	0.01591
2223.09430	0.01586
2221.80853	0.01565
2220.52276	0.01574
2219.23700	0.01616
2217.95123	0.01646
2216.66546	0.01649
2215.37969	0.01667
2214.09392	0.01732
2212.80815	0.01814
2211.52238	0.01860
2210.23661	0.01870
2208.95084	0.01892
2207.66508	0.01935
2206.37931	0.01940
2205.09354	0.01858
2203.80777	0.01723
2202.52200	0.01626
2201.23623	0.01613
2199.95046	0.01650
2198.66469	0.01685
2197.37893	0.01696
2196.09316	0.01683
2194.80739	0.01636
2193.52162	0.01559
2192.23585	0.01495
2190.95008	0.01496
2189.66431	0.01559
2188.37854	0.01628
2187.09277	0.01662
2185.80701	0.01678
2184.52124	0.01701
2183.23547	0.01717
2181.94970	0.01684
2180.66393	0.01591
2179.37816	0.01466
2178.09239	0.01347
2176.80662	0.01272
2175.52085	0.01271
2174.23509	0.01352
2172.94932	0.01475
2171.66355	0.01580
2170.37778	0.01626
2169.09201	0.01608
2167.80624	0.01533
2166.52047	0.01406
2165.23470	0.01233
2163.94894	0.01035
2162.66317	0.00835
2161.37740	0.00652
2160.09163	0.00512
2158.80586	0.00455
2157.52009	0.00489
2156.23432	0.00574
2154.94855	0.00648
2153.66278	0.00685
2152.37702	0.00700
2151.09125	0.00728
2149.80548	0.00799
2148.51971	0.00912
2147.23394	0.01036
2145.94817	0.01142
2144.66240	0.01227
2143.37663	0.01288
2142.09087	0.01301
2140.80510	0.01262
2139.51933	0.01215
2138.23356	0.01213
2136.94779	0.01262
2135.66202	0.01338
2134.37625	0.01423
2133.09048	0.01506
2131.80471	0.01562
2130.51895	0.01570
2129.23318	0.01540
2127.94741	0.01502
2126.66164	0.01470
2125.37587	0.01440
2124.09010	0.01421
2122.80433	0.01433
2121.51856	0.01486
2120.23280	0.01564
2118.94703	0.01637
2117.66126	0.01690
2116.37549	0.01720
2115.08972	0.01728
2113.80395	0.01714
2112.51818	0.01685
2111.23241	0.01654
2109.94664	0.01640
2108.66088	0.01654
2107.37511	0.01689
2106.08934	0.01719
2104.80357	0.01730
2103.51780	0.01721
2102.23203	0.01680
2100.94626	0.01578
2099.66049	0.01361
2098.37473	0.01190
2097.08896	0.01134
2095.80319	0.01182
2094.51742	0.01277
2093.23165	0.01354
2091.94588	0.01379
2090.66011	0.01369
2089.37434	0.01360
2088.08857	0.01385
2086.80281	0.01442
2085.51704	0.01504
2084.23127	0.01536
2082.94550	0.01521
2081.65973	0.01468
2080.37396	0.01401
2079.08819	0.01347
2077.80242	0.01317
2076.51666	0.01307
2075.23089	0.01299
2073.94512	0.01281
2072.65935	0.01245
2071.37358	0.01196
2070.08781	0.01146
2068.80204	0.01117
2067.51627	0.01133
2066.23050	0.01210
2064.94474	0.01333
2063.65897	0.01457
2062.37320	0.01536
2061.08743	0.01545
2059.80166	0.01491
2058.51589	0.01396
2057.23012	0.01282
2055.94435	0.01170
2054.65859	0.01079
2053.37282	0.01017
2052.08705	0.00971
2050.80128	0.00913
2049.51551	0.00828
2048.22974	0.00723
2046.94397	0.00638
2045.65820	0.00614
2044.37243	0.00645
2043.08667	0.00670
2041.80090	0.00630
2040.51513	0.00525
2039.22936	0.00412
2037.94359	0.00335
2036.65782	0.00299
2035.37205	0.00289
2034.08628	0.00285
2032.80052	0.00275
2031.51475	0.00273
2030.22898	0.00327
2028.94321	0.00464
2027.65744	0.00644
2026.37167	0.00782
2025.08590	0.00815
2023.80013	0.00751
2022.51436	0.00650
2021.22860	0.00582
2019.94283	0.00587
2018.65706	0.00644
2017.37129	0.00692
2016.08552	0.00680
2014.79975	0.00611
2013.51398	0.00538
2012.22821	0.00520
2010.94245	0.00555
2009.65668	0.00580
2008.37091	0.00534
2007.08514	0.00438
2005.79937	0.00379
2004.51360	0.00423
2003.22783	0.00558
2001.94206	0.00720
2000.65629	0.00864
1999.37053	0.00979
1998.08476	0.01066
1996.79899	0.01122
1995.51322	0.01153
1994.22745	0.01183
1992.94168	0.01235
1991.65591	0.01303
1990.37014	0.01356
1989.08438	0.01364
1987.79861	0.01314
1986.51284	0.01220
1985.22707	0.01126
1983.94130	0.01083
1982.65553	0.01098
1981.36976	0.01120
1980.08399	0.01094
1978.79822	0.01014
1977.51246	0.00925
1976.22669	0.00879
1974.94092	0.00891
1973.65515	0.00936
1972.36938	0.00966
1971.08361	0.00941
1969.79784	0.00866
1968.51207	0.00788
1967.22631	0.00756
1965.94054	0.00775
1964.65477	0.00808
1963.36900	0.00812
1962.08323	0.00776
1960.79746	0.00728
1959.51169	0.00720
1958.22592	0.00787
1956.94015	0.00924
1955.65439	0.01085
1954.36862	0.01210
1953.08285	0.01258
1951.79708	0.01237
1950.51131	0.01193
1949.22554	0.01175
1947.93977	0.01196
1946.65400	0.01229
1945.36823	0.01239
1944.08247	0.01218
1942.79670	0.01190
1941.51093	0.01179
1940.22516	0.01186
1938.93939	0.01197
1937.65362	0.01211
1936.36785	0.01238
1935.08208	0.01275
1933.79632	0.01301
1932.51055	0.01306
1931.22478	0.01306
1929.93901	0.01327
1928.65324	0.01372
1927.36747	0.01421
1926.08170	0.01457
1924.79593	0.01481
1923.51016	0.01503
1922.22440	0.01529
1920.93863	0.01546
1919.65286	0.01542
1918.36709	0.01519
1917.08132	0.01499
1915.79555	0.01503
1914.50978	0.01538
1913.22401	0.01586
1911.93825	0.01621
1910.65248	0.01627
1909.36671	0.01606
1908.08094	0.01573
1906.79517	0.01544
1905.50940	0.01532
1904.22363	0.01541
1902.93786	0.01569
1901.65209	0.01601
1900.36633	0.01622
1899.08056	0.01628
1897.79479	0.01628
1896.50902	0.01632
1895.22325	0.01646
1893.93748	0.01659
1892.65171	0.01662
1891.36594	0.01651
1890.08018	0.01636
1888.79441	0.01626
1887.50864	0.01620
1886.22287	0.01605
1884.93710	0.01570
1883.65133	0.01524
1882.36556	0.01490
1881.07979	0.01486
1879.79402	0.01510
1878.50826	0.01546
1877.22249	0.01576
1875.93672	0.01597
1874.65095	0.01613
1873.36518	0.01629
1872.07941	0.01645
1870.79364	0.01653
1869.50787	0.01647
1868.22211	0.01628
1866.93634	0.01606
1865.65057	0.01592
1864.36480	0.01590
1863.07903	0.01600
1861.79326	0.01617
1860.50749	0.01634
1859.22172	0.01646
1857.93595	0.01652
1856.65019	0.01656
1855.36442	0.01657
1854.07865	0.01652
1852.79288	0.01643
1851.50711	0.01636
1850.22134	0.01638
1848.93557	0.01646
1847.64980	0.01655
1846.36404	0.01661
1845.07827	0.01665
1843.79250	0.01667
1842.50673	0.01670
1841.22096	0.01677
1839.93519	0.01683
1838.64942	0.01680
1837.36365	0.01673
1836.07788	0.01672
1834.79212	0.01676
1833.50635	0.01675
1832.22058	0.01667
1830.93481	0.01653
1829.64904	0.01638
1828.36327	0.01624
1827.07750	0.01619
1825.79173	0.01621
1824.50597	0.01623
1823.22020	0.01619
1821.93443	0.01611
1820.64866	0.01602
1819.36289	0.01596
1818.07712	0.01602
1816.79135	0.01623
1815.50558	0.01650
1814.21981	0.01673
1812.93405	0.01689
1811.64828	0.01697
1810.36251	0.01700
1809.07674	0.01697
1807.79097	0.01693
1806.50520	0.01693
1805.21943	0.01701
1803.93366	0.01717
1802.64790	0.01737
1801.36213	0.01749
1800.07636	0.01745
1798.79059	0.01727
1797.50482	0.01703
1796.21905	0.01682
1794.93328	0.01674
1793.64751	0.01681
1792.36174	0.01695
1791.07598	0.01705
1789.79021	0.01708
1788.50444	0.01711
1787.21867	0.01717
1785.93290	0.01726
1784.64713	0.01733
1783.36136	0.01735
1782.07559	0.01734
1780.78983	0.01729
1779.50406	0.01718
1778.21829	0.01703
1776.93252	0.01695
1775.64675	0.01700
1774.36098	0.01716
1773.07521	0.01730
1771.78944	0.01733
1770.50367	0.01734
1769.21791	0.01745
1767.93214	0.01757
1766.64637	0.01756
1765.36060	0.01744
1764.07483	0.01737
1762.78906	0.01738
1761.50329	0.01737
1760.21752	0.01726
1758.93176	0.01710
1757.64599	0.01694
1756.36022	0.01677
1755.07445	0.01658
1753.78868	0.01643
1752.50291	0.01634
1751.21714	0.01622
1749.93137	0.01603
1748.64560	0.01578
1747.35984	0.01549
1746.07407	0.01517
1744.78830	0.01485
1743.50253	0.01462
1742.21676	0.01452
1740.93099	0.01452
1739.64522	0.01453
1738.35945	0.01455
1737.07369	0.01470
1735.78792	0.01509
1734.50215	0.01557
1733.21638	0.01590
1731.93061	0.01609
1730.64484	0.01626
1729.35907	0.01645
1728.07330	0.01662
1726.78753	0.01684
1725.50177	0.01717
1724.21600	0.01755
1722.93023	0.01789
1721.64446	0.01817
1720.35869	0.01846
1719.07292	0.01883
1717.78715	0.01918
1716.50138	0.01944
1715.21561	0.01969
1713.92985	0.02005
1712.64408	0.02054
1711.35831	0.02111
1710.07254	0.02170
1708.78677	0.02228
1707.50100	0.02286
1706.21523	0.02341
1704.92946	0.02391
1703.64370	0.02445
1702.35793	0.02518
1701.07216	0.02606
1699.78639	0.02685
1698.50062	0.02760
1697.21485	0.02853
1695.92908	0.02954
1694.64331	0.03037
1693.35754	0.03107
1692.07178	0.03188
1690.78601	0.03281
1689.50024	0.03368
1688.21447	0.03451
1686.92870	0.03546
1685.64293	0.03656
1684.35716	0.03758
1683.07139	0.03839
1681.78563	0.03916
1680.49986	0.04002
1679.21409	0.04096
1677.92832	0.04196
1676.64255	0.04301
1675.35678	0.04399
1674.07101	0.04479
1672.78524	0.04553
1671.49947	0.04637
1670.21371	0.04729
1668.92794	0.04816
1667.64217	0.04890
1666.35640	0.04959
1665.07063	0.05035
1663.78486	0.05114
1662.49909	0.05188
1661.21332	0.05253
1659.92756	0.05310
1658.64179	0.05359
1657.35602	0.05402
1656.07025	0.05451
1654.78448	0.05519
1653.49871	0.05583
1652.21294	0.05612
1650.92717	0.05613
1649.64140	0.05628
1648.35564	0.05673
1647.06987	0.05728
1645.78410	0.05764
1644.49833	0.05777
1643.21256	0.05781
1641.92679	0.05783
1640.64102	0.05781
1639.35525	0.05774
1638.06949	0.05768
1636.78372	0.05762
1635.49795	0.05744
1634.21218	0.05709
1632.92641	0.05673
1631.64064	0.05649
1630.35487	0.05637
1629.06910	0.05620
1627.78333	0.05591
1626.49757	0.05554
1625.21180	0.05520
1623.92603	0.05496
1622.64026	0.05472
1621.35449	0.05439
1620.06872	0.05405
1618.78295	0.05383
1617.49718	0.05374
1616.21142	0.05365
1614.92565	0.05348
1613.63988	0.05334
1612.35411	0.05328
1611.06834	0.05327
1609.78257	0.05325
1608.49680	0.05327
1607.21103	0.05334
1605.92526	0.05344
1604.63950	0.05351
1603.35373	0.05353
1602.06796	0.05355
1600.78219	0.05363
1599.49642	0.05380
1598.21065	0.05403
1596.92488	0.05427
1595.63911	0.05448
1594.35335	0.05467
1593.06758	0.05487
1591.78181	0.05508
1590.49604	0.05526
1589.21027	0.05541
1587.92450	0.05554
1586.63873	0.05571
1585.35296	0.05595
1584.06719	0.05624
1582.78143	0.05657
1581.49566	0.05686
1580.20989	0.05708
1578.92412	0.05735
1577.63835	0.05777
1576.35258	0.05825
1575.06681	0.05860
1573.78104	0.05884
1572.49528	0.05914
1571.20951	0.05951
1569.92374	0.05988
1568.63797	0.06018
1567.35220	0.06044
1566.06643	0.06071
1564.78066	0.06089
1563.49489	0.06097
1562.20912	0.06109
1560.92336	0.06140
1559.63759	0.06178
1558.35182	0.06201
1557.06605	0.06208
1555.78028	0.06219
1554.49451	0.06233
1553.20874	0.06239
1551.92297	0.06237
1550.63721	0.06235
1549.35144	0.06234
1548.06567	0.06231
1546.77990	0.06224
1545.49413	0.06210
1544.20836	0.06181
1542.92259	0.06144
1541.63682	0.06111
1540.35105	0.06083
1539.06529	0.06052
1537.77952	0.06015
1536.49375	0.05989
1535.20798	0.05983
1533.92221	0.05982
1532.63644	0.05970
1531.35067	0.05951
1530.06490	0.05939
1528.77914	0.05944
1527.49337	0.05963
1526.20760	0.05985
1524.92183	0.06008
1523.63606	0.06037
1522.35029	0.06074
1521.06452	0.06110
1519.77875	0.06143
1518.49298	0.06187
1517.20722	0.06248
1515.92145	0.06315
1514.63568	0.06384
1513.34991	0.06454
1512.06414	0.06525
1510.77837	0.06595
1509.49260	0.06671
1508.20683	0.06763
1506.92107	0.06863
1505.63530	0.06953
1504.34953	0.07033
1503.06376	0.07112
1501.77799	0.07192
1500.49222	0.07266
1499.20645	0.07330
1497.92068	0.07390
1496.63491	0.07445
1495.34915	0.07492
1494.06338	0.07539
1492.77761	0.07595
1491.49184	0.07659
1490.20607	0.07723
1488.92030	0.07785
1487.63453	0.07851
1486.34876	0.07926
1485.06299	0.08009
1483.77723	0.08099
1482.49146	0.08196
1481.20569	0.08298
1479.91992	0.08400
1478.63415	0.08500
1477.34838	0.08596
1476.06261	0.08687
1474.77684	0.08776
1473.49108	0.08860
1472.20531	0.08935
1470.91954	0.09001
1469.63377	0.09064
1468.34800	0.09132
1467.06223	0.09202
1465.77646	0.09269
1464.49069	0.09326
1463.20492	0.09374
1461.91916	0.09425
1460.63339	0.09493
1459.34762	0.09584
1458.06185	0.09686
1456.77608	0.09778
1455.49031	0.09849
1454.20454	0.09911
1452.91877	0.09976
1451.63301	0.10031
1450.34724	0.10063
1449.06147	0.10069
1447.77570	0.10056
1446.48993	0.10037
1445.20416	0.10022
1443.91839	0.10009
1442.63262	0.09993
1441.34685	0.09969
1440.06109	0.09951
1438.77532	0.09952
1437.48955	0.09970
1436.20378	0.09993
1434.91801	0.10019
1433.63224	0.10061
1432.34647	0.10129
1431.06070	0.10219
1429.77494	0.10320
1428.48917	0.10430
1427.20340	0.10550
1425.91763	0.10680
1424.63186	0.10816
1423.34609	0.10953
1422.06032	0.11089
1420.77455	0.11221
1419.48878	0.11339
1418.20302	0.11431
1416.91725	0.11501
1415.63148	0.11561
1414.34571	0.11610
1413.05994	0.11643
1411.77417	0.11655
1410.48840	0.11643
1409.20263	0.11606
1407.91687	0.11544
1406.63110	0.11457
1405.34533	0.11345
1404.05956	0.11207
1402.77379	0.11051
1401.48802	0.10885
1400.20225	0.10709
1398.91648	0.10520
1397.63071	0.10318
1396.34495	0.10110
1395.05918	0.09899
1393.77341	0.09682
1392.48764	0.09458
1391.20187	0.09234
1389.91610	0.09015
1388.63033	0.08804
1387.34456	0.08596
1386.05880	0.08388
1384.77303	0.08181
1383.48726	0.07975
1382.20149	0.07769
1380.91572	0.07565
1379.62995	0.07367
1378.34418	0.07178
1377.05841	0.06992
1375.77264	0.06805
1374.48688	0.06614
1373.20111	0.06422
1371.91534	0.06235
1370.62957	0.06058
1369.34380	0.05893
1368.05803	0.05735
1366.77226	0.05585
1365.48649	0.05444
1364.20073	0.05312
1362.91496	0.05187
1361.62919	0.05064
1360.34342	0.04947
1359.05765	0.04841
1357.77188	0.04750
1356.48611	0.04672
1355.20034	0.04602
1353.91457	0.04534
1352.62881	0.04468
1351.34304	0.04405
1350.05727	0.04347
1348.77150	0.04291
1347.48573	0.04235
1346.19996	0.04179
1344.91419	0.04122
1343.62842	0.04068
1342.34266	0.04017
1341.05689	0.03969
1339.77112	0.03921
1338.48535	0.03871
1337.19958	0.03823
1335.91381	0.03777
1334.62804	0.03732
1333.34227	0.03688
1332.05650	0.03644
1330.77074	0.03603
1329.48497	0.03562
1328.19920	0.03523
1326.91343	0.03484
1325.62766	0.03447
1324.34189	0.03413
1323.05612	0.03379
1321.77035	0.03344
1320.48459	0.03309
1319.19882	0.03275
1317.91305	0.03246
1316.62728	0.03219
1315.34151	0.03193
1314.05574	0.03164
1312.76997	0.03130
1311.48420	0.03093
1310.19843	0.03057
1308.91267	0.03026
1307.62690	0.03002
1306.34113	0.02980
1305.05536	0.02956
1303.76959	0.02930
1302.48382	0.02903
1301.19805	0.02875
1299.91228	0.02848
1298.62652	0.02824
1297.34075	0.02805
1296.05498	0.02790
1294.76921	0.02778
1293.48344	0.02765
1292.19767	0.02752
1290.91190	0.02740
1289.62613	0.02729
1288.34036	0.02719
1287.05460	0.02709
1285.76883	0.02702
1284.48306	0.02699
1283.19729	0.02697
1281.91152	0.02689
1280.62575	0.02672
1279.33998	0.02649
1278.05421	0.02625
1276.76845	0.02606
1275.48268	0.02594
1274.19691	0.02586
1272.91114	0.02580
1271.62537	0.02572
1270.33960	0.02561
1269.05383	0.02546
1267.76806	0.02529
1266.48229	0.02513
1265.19653	0.02501
1263.91076	0.02492
1262.62499	0.02483
1261.33922	0.02474
1260.05345	0.02468
1258.76768	0.02465
1257.48191	0.02465
1256.19614	0.02466
1254.91037	0.02465
1253.62461	0.02458
1252.33884	0.02446
1251.05307	0.02435
1249.76730	0.02429
1248.48153	0.02426
1247.19576	0.02425
1245.90999	0.02424
1244.62422	0.02423
1243.33846	0.02420
1242.05269	0.02413
1240.76692	0.02402
1239.48115	0.02388
1238.19538	0.02372
1236.90961	0.02356
1235.62384	0.02342
1234.33807	0.02330
1233.05230	0.02319
1231.76654	0.02307
1230.48077	0.02292
1229.19500	0.02274
1227.90923	0.02254
1226.62346	0.02234
1225.33769	0.02219
1224.05192	0.02209
1222.76615	0.02200
1221.48039	0.02188
1220.19462	0.02171
1218.90885	0.02153
1217.62308	0.02137
1216.33731	0.02122
1215.05154	0.02108
1213.76577	0.02096
1212.48000	0.02087
1211.19423	0.02081
1209.90847	0.02076
1208.62270	0.02071
1207.33693	0.02066
1206.05116	0.02062
1204.76539	0.02058
1203.47962	0.02052
1202.19385	0.02042
1200.90808	0.02031
1199.62232	0.02026
1198.33655	0.02018
1197.05078	0.02015
1195.76501	0.02016
1194.47924	0.02015
1193.19347	0.02013
1191.90770	0.02010
1190.62193	0.02004
1189.33616	0.01991
1188.05040	0.01971
1186.76463	0.01949
1185.47886	0.01932
1184.19309	0.01921
1182.90732	0.01917
1181.62155	0.01913
1180.33578	0.01909
1179.05001	0.01904
1177.76425	0.01900
1176.47848	0.01900
1175.19271	0.01902
1173.90694	0.01907
1172.62117	0.01915
1171.33540	0.01928
1170.04963	0.01944
1168.76386	0.01964
1167.47809	0.01989
1166.19233	0.02017
1164.90656	0.02044
1163.62079	0.02067
1162.33502	0.02084
1161.04925	0.02100
1159.76348	0.02120
1158.47771	0.02144
1157.19194	0.02173
1155.90618	0.02207
1154.62041	0.02247
1153.33464	0.02292
1152.04887	0.02337
1150.76310	0.02380
1149.47733	0.02422
1148.19156	0.02469
1146.90579	0.02526
1145.62002	0.02596
1144.33426	0.02677
1143.04849	0.02766
1141.76272	0.02857
1140.47695	0.02951
1139.19118	0.03052
1137.90541	0.03164
1136.61964	0.03292
1135.33387	0.03437
1134.04811	0.03600
1132.76234	0.03778
1131.47657	0.03964
1130.19080	0.04160
1128.90503	0.04374
1127.61926	0.04615
1126.33349	0.04887
1125.04772	0.05185
1123.76195	0.05498
1122.47619	0.05822
1121.19042	0.06156
1119.90465	0.06502
1118.61888	0.06864
1117.33311	0.07236
1116.04734	0.07608
1114.76157	0.07978
1113.47580	0.08351
1112.19004	0.08734
1110.90427	0.09128
1109.61850	0.09522
1108.33273	0.09905
1107.04696	0.10270
1105.76119	0.10622
1104.47542	0.10969
1103.18965	0.11316
1101.90388	0.11664
1100.61812	0.12011
1099.33235	0.12353
1098.04658	0.12686
1096.76081	0.13005
1095.47504	0.13307
1094.18927	0.13591
1092.90350	0.13855
1091.61773	0.14098
1090.33197	0.14317
1089.04620	0.14519
1087.76043	0.14720
1086.47466	0.14932
1085.18889	0.15157
1083.90312	0.15392
1082.61735	0.15635
1081.33158	0.15894
1080.04581	0.16177
1078.76005	0.16481
1077.47428	0.16799
1076.18851	0.17127
1074.90274	0.17464
1073.61697	0.17807
1072.33120	0.18154
1071.04543	0.18509
1069.75966	0.18881
1068.47390	0.19278
1067.18813	0.19698
1065.90236	0.20131
1064.61659	0.20568
1063.33082	0.21000
1062.04505	0.21424
1060.75928	0.21842
1059.47351	0.22256
1058.18774	0.22667
1056.90198	0.23072
1055.61621	0.23468
1054.33044	0.23861
1053.04467	0.24261
1051.75890	0.24676
1050.47313	0.25105
1049.18736	0.25542
1047.90159	0.25979
1046.61583	0.26413
1045.33006	0.26847
1044.04429	0.27283
1042.75852	0.27724
1041.47275	0.28169
1040.18698	0.28618
1038.90121	0.29071
1037.61544	0.29528
1036.32967	0.29983
1035.04391	0.30423
1033.75814	0.30839
1032.47237	0.31225
1031.18660	0.31583
1029.90083	0.31919
1028.61506	0.32232
1027.32929	0.32510
1026.04352	0.32741
1024.75775	0.32916
1023.47199	0.33035
1022.18622	0.33104
1020.90045	0.33127
1019.61468	0.33106
1018.32891	0.33040
1017.04314	0.32922
1015.75737	0.32745
1014.47160	0.32503
1013.18584	0.32199
1011.90007	0.31836
1010.61430	0.31418
1009.32853	0.30942
1008.04276	0.30408
1006.75699	0.29825
1005.47122	0.29206
1004.18545	0.28555
1002.89968	0.27872
1001.61392	0.27153
1000.32815	0.26404
999.04238	0.25629
997.75661	0.24834
996.47084	0.24022
995.18507	0.23202
993.89930	0.22384
992.61353	0.21571
991.32777	0.20770
990.04200	0.19990
988.75623	0.19239
987.47046	0.18522
986.18469	0.17830
984.89892	0.17158
983.61315	0.16503
982.32738	0.15866
981.04161	0.15254
979.75585	0.14678
978.47008	0.14146
977.18431	0.13662
975.89854	0.13226
974.61277	0.12844
973.32700	0.12520
972.04123	0.12258
970.75546	0.12060
969.46970	0.11929
968.18393	0.11871
966.89816	0.11880
965.61239	0.11938
964.32662	0.12018
963.04085	0.12094
961.75508	0.12142
960.46931	0.12138
959.18354	0.12062
957.89778	0.11903
956.61201	0.11674
955.32624	0.11402
954.04047	0.11119
952.75470	0.10835
951.46893	0.10550
950.18316	0.10262
948.89739	0.09982
947.61163	0.09720
946.32586	0.09476
945.04009	0.09242
943.75432	0.09006
942.46855	0.08768
941.18278	0.08532
939.89701	0.08300
938.61124	0.08078
937.32547	0.07869
936.03971	0.07677
934.75394	0.07500
933.46817	0.07332
932.18240	0.07173
930.89663	0.07024
929.61086	0.06885
928.32509	0.06753
927.03932	0.06630
925.75356	0.06518
924.46779	0.06417
923.18202	0.06322
921.89625	0.06229
920.61048	0.06139
919.32471	0.06056
918.03894	0.05977
916.75317	0.05900
915.46740	0.05821
914.18164	0.05738
912.89587	0.05655
911.61010	0.05576
910.32433	0.05505
909.03856	0.05444
907.75279	0.05389
906.46702	0.05334
905.18125	0.05278
903.89549	0.05224
902.60972	0.05177
901.32395	0.05140
900.03818	0.05107
898.75241	0.05068
897.46664	0.05016
896.18087	0.04952
894.89510	0.04892
893.60933	0.04848
892.32357	0.04827
891.03780	0.04826
889.75203	0.04842
888.46626	0.04879
887.18049	0.04949
885.89472	0.05063
884.60895	0.05237
883.32318	0.05473
882.03742	0.05753
880.75165	0.06036
879.46588	0.06283
878.18011	0.06485
876.89434	0.06666
875.60857	0.06853
874.32280	0.07044
873.03703	0.07202
871.75126	0.07284
870.46550	0.07267
869.17973	0.07158
867.89396	0.06979
866.60819	0.06758
865.32242	0.06516
864.03665	0.06268
862.75088	0.06027
861.46511	0.05800
860.17935	0.05597
858.89358	0.05420
857.60781	0.05266
856.32204	0.05132
855.03627	0.05018
853.75050	0.04923
852.46473	0.04846
851.17896	0.04783
849.89319	0.04728
848.60743	0.04675
847.32166	0.04621
846.03589	0.04573
844.75012	0.04534
843.46435	0.04504
842.17858	0.04473
840.89281	0.04438
839.60704	0.04401
838.32128	0.04365
837.03551	0.04330
835.74974	0.04295
834.46397	0.04262
833.17820	0.04232
831.89243	0.04206
830.60666	0.04179
829.32089	0.04152
828.03512	0.04128
826.74936	0.04111
825.46359	0.04096
824.17782	0.04080
822.89205	0.04059
821.60628	0.04035
820.32051	0.04015
819.03474	0.04002
817.74897	0.03997
816.46321	0.03998
815.17744	0.04006
813.89167	0.04018
812.60590	0.04027
811.32013	0.04028
810.03436	0.04018
808.74859	0.04003
807.46282	0.03991
806.17705	0.03987
804.89129	0.03986
803.60552	0.03979
802.31975	0.03964
801.03398	0.03947
799.74821	0.03933
798.46244	0.03924
797.17667	0.03922
795.89090	0.03927
794.60513	0.03936
793.31937	0.03945
792.03360	0.03950
790.74783	0.03950
789.46206	0.03944
788.17629	0.03932
786.89052	0.03919
785.60475	0.03907
784.31898	0.03897
783.03322	0.03891
781.74745	0.03885
780.46168	0.03882
779.17591	0.03884
777.89014	0.03889
776.60437	0.03893
775.31860	0.03892
774.03283	0.03887
772.74706	0.03884
771.46130	0.03886
770.17553	0.03890
768.88976	0.03888
767.60399	0.03882
766.31822	0.03878
765.03245	0.03876
763.74668	0.03876
762.46091	0.03875
761.17515	0.03877
759.88938	0.03887
758.60361	0.03905
757.31784	0.03924
756.03207	0.03939
754.74630	0.03943
753.46053	0.03934
752.17476	0.03917
750.88899	0.03898
749.60323	0.03885
748.31746	0.03877
747.03169	0.03871
745.74592	0.03871
744.46015	0.03872
743.17438	0.03868
741.88861	0.03852
740.60284	0.03828
739.31708	0.03810
738.03131	0.03802
736.74554	0.03804
735.45977	0.03812
734.17400	0.03821
732.88823	0.03829
731.60246	0.03831
730.31669	0.03828
729.03092	0.03825
727.74516	0.03828
726.45939	0.03837
725.17362	0.03849
723.88785	0.03859
722.60208	0.03853
721.31631	0.03830
720.03054	0.03803
718.74477	0.03787
717.45901	0.03781
716.17324	0.03790
714.88747	0.03808
713.60170	0.03824
712.31593	0.03833
711.03016	0.03834
709.74439	0.03828
708.45862	0.03821
707.17285	0.03812
705.88709	0.03802
704.60132	0.03793
703.31555	0.03789
702.02978	0.03790
700.74401	0.03794
699.45824	0.03797
698.17247	0.03795
696.88670	0.03793
695.60094	0.03792
694.31517	0.03792
693.02940	0.03791
691.74363	0.03789
690.45786	0.03791
689.17209	0.03799
687.88632	0.03813
686.60055	0.03823
685.31478	0.03822
684.02902	0.03811
682.74325	0.03793
681.45748	0.03777
680.17171	0.03763
678.88594	0.03753
677.60017	0.03744
676.31440	0.03741
675.02863	0.03747
673.74287	0.03764
672.45710	0.03799
671.17133	0.03868
669.88556	0.03928
668.59979	0.03852
667.31402	0.03838
666.02825	0.03943
664.74248	0.03878
663.45671	0.03802
662.17095	0.03769
660.88518	0.03751
659.59941	0.03735
658.31364	0.03714
657.02787	0.03692
655.74210	0.03674
654.45633	0.03666
653.17056	0.03663
651.88480	0.03663
650.59903	0.03662
649.31326	0.03657
648.02749	0.03652
646.74172	0.03643
645.45595	0.03633
644.17018	0.03628
642.88441	0.03631
641.59864	0.03642
640.31288	0.03657
639.02711	0.03676
637.74134	0.03699
636.45557	0.03725
635.16980	0.03754
633.88403	0.03785
632.59826	0.03819
631.31249	0.03849
630.02673	0.03843
628.74096	0.03823
627.45519	0.03923
626.16942	0.03897
624.88365	0.03805
623.59788	0.03797
622.31211	0.03983
621.02634	0.04383
619.74057	0.04923
618.45481	0.05505
617.16904	0.06061
615.88327	0.06550
614.59750	0.06956
613.31173	0.07330
612.02596	0.07813
610.74019	0.08555
609.45442	0.09532
608.16866	0.10493
606.88289	0.11181
605.59712	0.11555
604.31135	0.11747
603.02558	0.11879
601.73981	0.11961
600.45404	0.11935
599.16827	0.11757
597.88250	0.11440
596.59674	0.11040
595.31097	0.10626
594.02520	0.10258
592.73943	0.09974
591.45366	0.09782
590.16789	0.09673
588.88212	0.09640
587.59635	0.09678
586.31059	0.09787
585.02482	0.09966
583.73905	0.10214
582.45328	0.10523
581.16751	0.10877
579.88174	0.11255
578.59597	0.11635
577.31020	0.11994
576.02443	0.12321
574.73867	0.12623
573.45290	0.12922
572.16713	0.13245
570.88136	0.13603
569.59559	0.13990
568.30982	0.14402
567.02405	0.14837
565.73828	0.15284
564.45251	0.15705
563.16675	0.16038
561.88098	0.16214
560.59521	0.16184
559.30944	0.15932
558.02367	0.15473
556.73790	0.14846
555.45213	0.14106
554.16636	0.13321
552.88060	0.12555
551.59483	0.11847
550.30906	0.11204
549.02329	0.10615
547.73752	0.10068
546.45175	0.09569
545.16598	0.09126
543.88021	0.08744
542.59444	0.08416
541.30868	0.08121
540.02291	0.07841
538.73714	0.07572
537.45137	0.07321
536.16560	0.07097
534.87983	0.06894
533.59406	0.06705
532.30829	0.06521
531.02253	0.06343
529.73676	0.06171
528.45099	0.06007
527.16522	0.05852
525.87945	0.05709
524.59368	0.05580
523.30791	0.05462
522.02214	0.05345
520.73637	0.05223
519.45061	0.05101
518.16484	0.04987
516.87907	0.04886
515.59330	0.04796
514.30753	0.04715
513.02176	0.04643
511.73599	0.04578
510.45022	0.04515
509.16446	0.04453
507.87869	0.04391
506.59292	0.04331
505.30715	0.04273
504.02138	0.04216
502.73561	0.04158
501.44984	0.04097
500.16407	0.04037
498.87830	0.03983
497.59254	0.03943
496.30677	0.03919
495.02100	0.03899
493.73523	0.03872
492.44946	0.03831
491.16369	0.03782
489.87792	0.03734
488.59215	0.03695
487.30639	0.03670
486.02062	0.03660
484.73485	0.03660
483.44908	0.03665
482.16331	0.03669
480.87754	0.03675
479.59177	0.03687
478.30600	0.03708
477.02023	0.03734
475.73447	0.03760
474.44870	0.03779
473.16293	0.03789
471.87716	0.03790
470.59139	0.03787
469.30562	0.03777
468.01985	0.03756
466.73408	0.03725
465.44832	0.03685
464.16255	0.03640
462.87678	0.03590
461.59101	0.03536
460.30524	0.03481
459.01947	0.03428
457.73370	0.03380
456.44793	0.03339
455.16216	0.03306
453.87640	0.03276
452.59063	0.03240
451.30486	0.03198
450.01909	0.03153
448.73332	0.03115
447.44755	0.03090
446.16178	0.03077
444.87601	0.03070
443.59025	0.03063
442.30448	0.03049
441.01871	0.03029
439.73294	0.03003
438.44717	0.02976
437.16140	0.02952
435.87563	0.02935
434.58986	0.02925
433.30409	0.02918
432.01833	0.02907
430.73256	0.02888
429.44679	0.02863
428.16102	0.02838
426.87525	0.02814
425.58948	0.02790
424.30371	0.02766
423.01794	0.02741
421.73218	0.02721
420.44641	0.02706
419.16064	0.02693
417.87487	0.02676
416.58910	0.02655
415.30333	0.02638
414.01756	0.02628
412.73179	0.02625
411.44602	0.02622
410.16026	0.02617
408.87449	0.02611
407.58872	0.02612
406.30295	0.02619
405.01718	0.02631
403.73141	0.02641
402.44564	0.02646
401.15987	0.02649
399.87411	0.02656
