3997.45528 0.04991
3996.16951 0.04903
3994.88374 0.04815
3993.59798 0.04711
3992.31221 0.04635
3991.02644 0.04640
3989.74067 0.04736
3988.45490 0.04882
3987.16913 0.05019
3985.88336 0.05099
3984.59759 0.05103
3983.31183 0.05045
3982.02606 0.04958
3980.74029 0.04879
3979.45452 0.04830
3978.16875 0.04816
3976.88298 0.04824
3975.59721 0.04822
3974.31144 0.04788
3973.02567 0.04735
3971.73991 0.04713
3970.45414 0.04759
3969.16837 0.04853
3967.88260 0.04930
3966.59683 0.04935
3965.31106 0.04876
3964.02529 0.04803
3962.73952 0.04766
3961.45376 0.04779
3960.16799 0.04839
3958.88222 0.04926
3957.59645 0.04998
3956.31068 0.04991
3955.02491 0.04883
3953.73914 0.04727
3952.45337 0.04623
3951.16760 0.04640
3949.88184 0.04771
3948.59607 0.04960
3947.31030 0.05138
3946.02453 0.05247
3944.73876 0.05257
3943.45299 0.05194
3942.16722 0.05118
3940.88145 0.05056
3939.59569 0.04988
3938.30992 0.04899
3937.02415 0.04816
3935.73838 0.04775
3934.45261 0.04789
3933.16684 0.04842
3931.88107 0.04910
3930.59530 0.04977
3929.30953 0.05025
3928.02377 0.05042
3926.73800 0.05019
3925.45223 0.04961
3924.16646 0.04882
3922.88069 0.04802
3921.59492 0.04758
3920.30915 0.04800
3919.02338 0.04943
3917.73762 0.05124
3916.45185 0.05242
3915.16608 0.05243
3913.88031 0.05157
3912.59454 0.05057
3911.30877 0.04996
3910.02300 0.04987
3908.73723 0.05025
3907.45146 0.05090
3906.16570 0.05148
3904.87993 0.05164
3903.59416 0.05116
3902.30839 0.05006
3901.02262 0.04873
3899.73685 0.04773
3898.45108 0.04732
3897.16531 0.04710
3895.87955 0.04661
3894.59378 0.04589
3893.30801 0.04537
3892.02224 0.04529
3890.73647 0.04544
3889.45070 0.04539
3888.16493 0.04496
3886.87916 0.04452
3885.59339 0.04452
3884.30763 0.04483
3883.02186 0.04491
3881.73609 0.04464
3880.45032 0.04448
3879.16455 0.04493
3877.87878 0.04601
3876.59301 0.04743
3875.30724 0.04874
3874.02148 0.04937
3872.73571 0.04888
3871.44994 0.04749
3870.16417 0.04615
3868.87840 0.04554
3867.59263 0.04534
3866.30686 0.04497
3865.02109 0.04453
3863.73532 0.04450
3862.44956 0.04492
3861.16379 0.04551
3859.87802 0.04601
3858.59225 0.04639
3857.30648 0.04663
3856.02071 0.04664
3854.73494 0.04653
3853.44917 0.04677
3852.16341 0.04756
3850.87764 0.04843
3849.59187 0.04871
3848.30610 0.04823
3847.02033 0.04736
3845.73456 0.04671
3844.44879 0.04665
3843.16302 0.04713
3841.87725 0.04783
3840.59149 0.04838
3839.30572 0.04848
3838.01995 0.04812
3836.73418 0.04740
3835.44841 0.04637
3834.16264 0.04505
3832.87687 0.04370
3831.59110 0.04268
3830.30534 0.04219
3829.01957 0.04220
3827.73380 0.04259
3826.44803 0.04333
3825.16226 0.04427
3823.87649 0.04497
3822.59072 0.04511
3821.30495 0.04495
3820.01918 0.04499
3818.73342 0.04533
3817.44765 0.04583
3816.16188 0.04652
3814.87611 0.04722
3813.59034 0.04746
3812.30457 0.04706
3811.01880 0.04650
3809.73303 0.04616
3808.44726 0.04608
3807.16150 0.04626
3805.87573 0.04665
3804.58996 0.04686
3803.30419 0.04648
3802.01842 0.04573
3800.73265 0.04519
3799.44688 0.04494
3798.16111 0.04473
3796.87535 0.04460
3795.58958 0.04480
3794.30381 0.04529
3793.01804 0.04582
3791.73227 0.04618
3790.44650 0.04623
3789.16073 0.04605
3787.87496 0.04595
3786.58919 0.04616
3785.30343 0.04655
3784.01766 0.04678
3782.73189 0.04668
3781.44612 0.04650
3780.16035 0.04663
3778.87458 0.04716
3777.58881 0.04770
3776.30304 0.04776
3775.01728 0.04719
3773.73151 0.04632
3772.44574 0.04554
3771.15997 0.04514
3769.87420 0.04522
3768.58843 0.04564
3767.30266 0.04612
3766.01689 0.04646
3764.73112 0.04663
3763.44536 0.04649
3762.15959 0.04583
3760.87382 0.04475
3759.58805 0.04365
3758.30228 0.04292
3757.01651 0.04276
3755.73074 0.04310
3754.44497 0.04371
3753.15921 0.04436
3751.87344 0.04485
3750.58767 0.04503
3749.30190 0.04494
3748.01613 0.04469
3746.73036 0.04416
3745.44459 0.04364
3744.15882 0.04396
3742.87305 0.04509
3741.58729 0.04576
3740.30152 0.04508
3739.01575 0.04332
3737.72998 0.04147
3736.44421 0.04042
3735.15844 0.04041
3733.87267 0.04095
3732.58690 0.04147
3731.30114 0.04178
3730.01537 0.04184
3728.72960 0.04175
3727.44383 0.04195
3726.15806 0.04263
3724.87229 0.04316
3723.58652 0.04281
3722.30075 0.04180
3721.01498 0.04107
3719.72922 0.04120
3718.44345 0.04193
3717.15768 0.04270
3715.87191 0.04309
3714.58614 0.04301
3713.30037 0.04277
3712.01460 0.04284
3710.72883 0.04343
3709.44307 0.04434
3708.15730 0.04523
3706.87153 0.04581
3705.58576 0.04587
3704.29999 0.04541
3703.01422 0.04483
3701.72845 0.04458
3700.44268 0.04456
3699.15691 0.04415
3697.87115 0.04293
3696.58538 0.04127
3695.29961 0.03999
3694.01384 0.03970
3692.72807 0.04050
3691.44230 0.04179
3690.15653 0.04258
3688.87076 0.04224
3687.58500 0.04111
3686.29923 0.04005
3685.01346 0.03966
3683.72769 0.03991
3682.44192 0.04039
3681.15615 0.04083
3679.87038 0.04133
3678.58461 0.04189
3677.29884 0.04215
3676.01308 0.04204
3674.72731 0.04193
3673.44154 0.04194
3672.15577 0.04189
3670.87000 0.04181
3669.58423 0.04189
3668.29846 0.04209
3667.01269 0.04226
3665.72693 0.04237
3664.44116 0.04240
3663.15539 0.04236
3661.86962 0.04246
3660.58385 0.04289
3659.29808 0.04339
3658.01231 0.04361
3656.72654 0.04371
3655.44077 0.04419
3654.15501 0.04502
3652.86924 0.04546
3651.58347 0.04502
3650.29770 0.04399
3649.01193 0.04304
3647.72616 0.04258
3646.44039 0.04267
3645.15462 0.04317
3643.86886 0.04393
3642.58309 0.04481
3641.29732 0.04560
3640.01155 0.04620
3638.72578 0.04665
3637.44001 0.04689
3636.15424 0.04661
3634.86847 0.04568
3633.58270 0.04460
3632.29694 0.04412
3631.01117 0.04443
3629.72540 0.04506
3628.43963 0.04545
3627.15386 0.04533
3625.86809 0.04488
3624.58232 0.04465
3623.29655 0.04492
3622.01079 0.04542
3620.72502 0.04578
3619.43925 0.04609
3618.15348 0.04666
3616.86771 0.04750
3615.58194 0.04828
3614.29617 0.04875
3613.01040 0.04900
3611.72463 0.04914
3610.43887 0.04913
3609.15310 0.04902
3607.86733 0.04905
3606.58156 0.04938
3605.29579 0.04993
3604.01002 0.05047
3602.72425 0.05093
3601.43848 0.05138
3600.15272 0.05191
3598.86695 0.05254
3597.58118 0.05315
3596.29541 0.05353
3595.00964 0.05347
3593.72387 0.05298
3592.43810 0.05237
3591.15233 0.05218
3589.86656 0.05272
3588.58080 0.05385
3587.29503 0.05490
3586.00926 0.05511
3584.72349 0.05422
3583.43772 0.05265
3582.15195 0.05125
3580.86618 0.05074
3579.58041 0.05138
3578.29464 0.05286
3577.00888 0.05449
3575.72311 0.05561
3574.43734 0.05594
3573.15157 0.05566
3571.86580 0.05514
3570.58003 0.05452
3569.29426 0.05382
3568.00849 0.05318
3566.72273 0.05293
3565.43696 0.05325
3564.15119 0.05395
3562.86542 0.05472
3561.57965 0.05534
3560.29388 0.05581
3559.00811 0.05621
3557.72234 0.05669
3556.43657 0.05728
3555.15081 0.05783
3553.86504 0.05803
3552.57927 0.05778
3551.29350 0.05730
3550.00773 0.05697
3548.72196 0.05699
3547.43619 0.05728
3546.15042 0.05761
3544.86466 0.05791
3543.57889 0.05826
3542.29312 0.05873
3541.00735 0.05919
3539.72158 0.05945
3538.43581 0.05941
3537.15004 0.05922
3535.86427 0.05902
3534.57850 0.05890
3533.29274 0.05888
3532.00697 0.05902
3530.72120 0.05942
3529.43543 0.06005
3528.14966 0.06080
3526.86389 0.06155
3525.57812 0.06219
3524.29235 0.06255
3523.00659 0.06243
3521.72082 0.06181
3520.43505 0.06093
3519.14928 0.06015
3517.86351 0.05977
3516.57774 0.05991
3515.29197 0.06045
3514.00620 0.06111
3512.72043 0.06163
3511.43467 0.06193
3510.14890 0.06202
3508.86313 0.06196
3507.57736 0.06179
3506.29159 0.06156
3505.00582 0.06130
3503.72005 0.06107
3502.43428 0.06095
3501.14852 0.06103
3499.86275 0.06142
3498.57698 0.06216
3497.29121 0.06319
3496.00544 0.06424
3494.71967 0.06491
3493.43390 0.06493
3492.14813 0.06445
3490.86236 0.06391
3489.57660 0.06379
3488.29083 0.06426
3487.00506 0.06509
3485.71929 0.06598
3484.43352 0.06667
3483.14775 0.06702
3481.86198 0.06690
3480.57621 0.06629
3479.29045 0.06542
3478.00468 0.06464
3476.71891 0.06425
3475.43314 0.06434
3474.14737 0.06487
3472.86160 0.06572
3471.57583 0.06666
3470.29006 0.06737
3469.00429 0.06758
3467.71853 0.06725
3466.43276 0.06659
3465.14699 0.06593
3463.86122 0.06555
3462.57545 0.06551
3461.28968 0.06569
3460.00391 0.06591
3458.71814 0.06613
3457.43238 0.06638
3456.14661 0.06666
3454.86084 0.06687
3453.57507 0.06695
3452.28930 0.06700
3451.00353 0.06715
3449.71776 0.06734
3448.43199 0.06733
3447.14622 0.06693
3445.86046 0.06633
3444.57469 0.06603
3443.28892 0.06649
3442.00315 0.06768
3440.71738 0.06902
3439.43161 0.06996
3438.14584 0.07034
3436.86007 0.07034
3435.57431 0.07001
3434.28854 0.06930
3433.00277 0.06836
3431.71700 0.06766
3430.43123 0.06760
3429.14546 0.06815
3427.85969 0.06887
3426.57392 0.06939
3425.28815 0.06966
3424.00239 0.06987
3422.71662 0.07014
3421.43085 0.07048
3420.14508 0.07081
3418.85931 0.07107
3417.57354 0.07123
3416.28777 0.07140
3415.00200 0.07171
3413.71624 0.07215
3412.43047 0.07251
3411.14470 0.07249
3409.85893 0.07203
3408.57316 0.07143
3407.28739 0.07113
3406.00162 0.07139
3404.71585 0.07201
3403.43008 0.07264
3402.14432 0.07311
3400.85855 0.07345
3399.57278 0.07324
3398.28701 0.07260
3397.00124 0.07218
3395.71547 0.07205
3394.42970 0.07198
3393.14393 0.07178
3391.85817 0.07148
3390.57240 0.07132
3389.28663 0.07153
3388.00086 0.07210
3386.71509 0.07291
3385.42932 0.07381
3384.14355 0.07463
3382.85778 0.07520
3381.57201 0.07541
3380.28625 0.07530
3379.00048 0.07499
3377.71471 0.07468
3376.42894 0.07450
3375.14317 0.07447
3373.85740 0.07454
3372.57163 0.07472
3371.28586 0.07510
3370.00010 0.07552
3368.71433 0.07555
3367.42856 0.07493
3366.14279 0.07399
3364.85702 0.07337
3363.57125 0.07341
3362.28548 0.07388
3360.99971 0.07435
3359.71394 0.07461
3358.42818 0.07475
3357.14241 0.07485
3355.85664 0.07490
3354.57087 0.07482
3353.28510 0.07466
3351.99933 0.07456
3350.71356 0.07455
3349.42779 0.07449
3348.14202 0.07417
3346.85626 0.07362
3345.57049 0.07318
3344.28472 0.07325
3342.99895 0.07390
3341.71318 0.07473
3340.42741 0.07527
3339.14164 0.07536
3337.85587 0.07524
3336.57011 0.07525
3335.28434 0.07546
3333.99857 0.07571
3332.71280 0.07586
3331.42703 0.07591
3330.14126 0.07590
3328.85549 0.07572
3327.56972 0.07529
3326.28395 0.07479
3324.99819 0.07463
3323.71242 0.07503
3322.42665 0.07576
3321.14088 0.07626
3319.85511 0.07624
3318.56934 0.07583
3317.28357 0.07546
3315.99780 0.07547
3314.71204 0.07594
3313.42627 0.07663
3312.14050 0.07714
3310.85473 0.07724
3309.56896 0.07712
3308.28319 0.07710
3306.99742 0.07724
3305.71165 0.07726
3304.42588 0.07693
3303.14012 0.07644
3301.85435 0.07618
3300.56858 0.07622
3299.28281 0.07625
3297.99704 0.07594
3296.71127 0.07538
3295.42550 0.07497
3294.13973 0.07505
3292.85397 0.07558
3291.56820 0.07624
3290.28243 0.07680
3288.99666 0.07724
3287.71089 0.07757
3286.42512 0.07761
3285.13935 0.07720
3283.85358 0.07653
3282.56781 0.07606
3281.28205 0.07608
3279.99628 0.07641
3278.71051 0.07661
3277.42474 0.07648
3276.13897 0.07618
3274.85320 0.07599
3273.56743 0.07610
3272.28166 0.07648
3270.99590 0.07694
3269.71013 0.07716
3268.42436 0.07701
3267.13859 0.07661
3265.85282 0.07621
3264.56705 0.07599
3263.28128 0.07593
3261.99551 0.07592
3260.70974 0.07584
3259.42398 0.07558
3258.13821 0.07516
3256.85244 0.07472
3255.56667 0.07448
3254.28090 0.07449
3252.99513 0.07461
3251.70936 0.07463
3250.42359 0.07455
3249.13783 0.07449
3247.85206 0.07453
3246.56629 0.07459
3245.28052 0.07452
3243.99475 0.07417
3242.70898 0.07360
3241.42321 0.07314
3240.13744 0.07310
3238.85167 0.07345
3237.56591 0.07381
3236.28014 0.07383
3234.99437 0.07354
3233.70860 0.07320
3232.42283 0.07300
3231.13706 0.07301
3229.85129 0.07315
3228.56552 0.07328
3227.27976 0.07316
3225.99399 0.07269
3224.70822 0.07200
3223.42245 0.07143
3222.13668 0.07132
3220.85091 0.07178
3219.56514 0.07259
3218.27937 0.07334
3216.99360 0.07371
3215.70784 0.07371
3214.42207 0.07356
3213.13630 0.07339
3211.85053 0.07317
3210.56476 0.07286
3209.27899 0.07260
3207.99322 0.07254
3206.70745 0.07262
3205.42169 0.07258
3204.13592 0.07234
3202.85015 0.07212
3201.56438 0.07214
3200.27861 0.07231
3198.99284 0.07229
3197.70707 0.07207
3196.42130 0.07194
3195.13553 0.07218
3193.84977 0.07262
3192.56400 0.07286
3191.27823 0.07272
3189.99246 0.07226
3188.70669 0.07165
3187.42092 0.07102
3186.13515 0.07051
3184.84938 0.07031
3183.56362 0.07055
3182.27785 0.07114
3180.99208 0.07166
3179.70631 0.07171
3178.42054 0.07114
3177.13477 0.07022
3175.84900 0.06939
3174.56323 0.06890
3173.27746 0.06872
3171.99170 0.06870
3170.70593 0.06877
3169.42016 0.06894
3168.13439 0.06915
3166.84862 0.06923
3165.56285 0.06910
3164.27708 0.06884
3162.99131 0.06860
3161.70555 0.06844
3160.41978 0.06824
3159.13401 0.06788
3157.84824 0.06744
3156.56247 0.06704
3155.27670 0.06674
3153.99093 0.06644
3152.70516 0.06613
3151.41939 0.06594
3150.13363 0.06603
3148.84786 0.06631
3147.56209 0.06657
3146.27632 0.06672
3144.99055 0.06693
3143.70478 0.06742
3142.41901 0.06811
3141.13324 0.06863
3139.84748 0.06867
3138.56171 0.06826
3137.27594 0.06769
3135.99017 0.06723
3134.70440 0.06702
3133.41863 0.06706
3132.13286 0.06725
3130.84709 0.06736
3129.56132 0.06712
3128.27556 0.06653
3126.98979 0.06583
3125.70402 0.06532
3124.41825 0.06509
3123.13248 0.06507
3121.84671 0.06511
3120.56094 0.06511
3119.27517 0.06508
3117.98940 0.06507
3116.70364 0.06513
3115.41787 0.06520
3114.13210 0.06515
3112.84633 0.06498
3111.56056 0.06482
3110.27479 0.06479
3108.98902 0.06485
3107.70325 0.06481
3106.41749 0.06451
3105.13172 0.06399
3103.84595 0.06345
3102.56018 0.06315
3101.27441 0.06315
3099.98864 0.06329
3098.70287 0.06340
3097.41710 0.06344
3096.13133 0.06351
3094.84557 0.06368
3093.55980 0.06391
3092.27403 0.06407
3090.98826 0.06408
3089.70249 0.06395
3088.41672 0.06373
3087.13095 0.06349
3085.84518 0.06330
3084.55942 0.06322
3083.27365 0.06314
3081.98788 0.06290
3080.70211 0.06240
3079.41634 0.06184
3078.13057 0.06153
3076.84480 0.06169
3075.55903 0.06213
3074.27326 0.06244
3072.98750 0.06234
3071.70173 0.06198
3070.41596 0.06174
3069.13019 0.06182
3067.84442 0.06207
3066.55865 0.06226
3065.27288 0.06239
3063.98711 0.06259
3062.70135 0.06283
3061.41558 0.06286
3060.12981 0.06256
3058.84404 0.06213
3057.55827 0.06186
3056.27250 0.06180
3054.98673 0.06175
3053.70096 0.06154
3052.41519 0.06121
3051.12943 0.06089
3049.84366 0.06061
3048.55789 0.06029
3047.27212 0.05994
3045.98635 0.05958
3044.70058 0.05927
3043.41481 0.05904
3042.12904 0.05892
3040.84328 0.05896
3039.55751 0.05912
3038.27174 0.05936
3036.98597 0.05958
3035.70020 0.05967
3034.41443 0.05957
3033.12866 0.05930
3031.84289 0.05900
3030.55712 0.05879
3029.27136 0.05872
3027.98559 0.05868
3026.69982 0.05856
3025.41405 0.05830
3024.12828 0.05801
3022.84251 0.05784
3021.55674 0.05788
3020.27097 0.05809
3018.98521 0.05828
3017.69944 0.05835
3016.41367 0.05824
3015.12790 0.05797
3013.84213 0.05759
3012.55636 0.05722
3011.27059 0.05702
3009.98482 0.05702
3008.69905 0.05707
3007.41329 0.05701
3006.12752 0.05689
3004.84175 0.05687
3003.55598 0.05706
3002.27021 0.05741
3000.98444 0.05758
2999.69867 0.05704
2998.41290 0.05668
2997.12714 0.05651
2995.84137 0.05662
2994.55560 0.05694
2993.26983 0.05728
2991.98406 0.05752
2990.69829 0.05765
2989.41252 0.05772
2988.12675 0.05771
2986.84098 0.05754
2985.55522 0.05725
2984.26945 0.05707
2982.98368 0.05717
2981.69791 0.05753
2980.41214 0.05804
2979.12637 0.05874
2977.84060 0.05972
2976.55483 0.06082
2975.26907 0.06173
2973.98330 0.06236
2972.69753 0.06293
2971.41176 0.06379
2970.12599 0.06502
2968.84022 0.06640
2967.55445 0.06773
2966.26868 0.06906
2964.98291 0.07054
2963.69715 0.07220
2962.41138 0.07387
2961.12561 0.07539
2959.83984 0.07673
2958.55407 0.07787
2957.26830 0.07882
2955.98253 0.07956
2954.69676 0.08014
2953.41100 0.08056
2952.12523 0.08077
2950.83946 0.08078
2949.55369 0.08065
2948.26792 0.08048
2946.98215 0.08036
2945.69638 0.08024
2944.41061 0.08003
2943.12484 0.07974
2941.83908 0.07961
2940.55331 0.07991
2939.26754 0.08066
2937.98177 0.08164
2936.69600 0.08265
2935.41023 0.08367
2934.12446 0.08481
2932.83869 0.08605
2931.55293 0.08726
2930.26716 0.08824
2928.98139 0.08895
2927.69562 0.08952
2926.40985 0.09007
2925.12408 0.09052
2923.83831 0.09076
2922.55254 0.09077
2921.26677 0.09063
2919.98101 0.09028
2918.69524 0.08967
2917.40947 0.08892
2916.12370 0.08821
2914.83793 0.08753
2913.55216 0.08673
2912.26639 0.08576
2910.98062 0.08477
2909.69486 0.08387
2908.40909 0.08300
2907.12332 0.08202
2905.83755 0.08097
2904.55178 0.08005
2903.26601 0.07935
2901.98024 0.07873
2900.69447 0.07803
2899.40870 0.07729
2898.12294 0.07651
2896.83717 0.07564
2895.55140 0.07468
2894.26563 0.07378
2892.97986 0.07305
2891.69409 0.07238
2890.40832 0.07155
2889.12255 0.07057
2887.83678 0.06970
2886.55102 0.06917
2885.26525 0.06896
2883.97948 0.06886
2882.69371 0.06877
2881.40794 0.06869
2880.12217 0.06867
2878.83640 0.06875
2877.55063 0.06902
2876.26487 0.06964
2874.97910 0.07054
2873.69333 0.07139
2872.40756 0.07187
2871.12179 0.07206
2869.83602 0.07226
2868.55025 0.07268
2867.26448 0.07318
2865.97871 0.07347
2864.69295 0.07339
2863.40718 0.07300
2862.12141 0.07253
2860.83564 0.07221
2859.54987 0.07207
2858.26410 0.07197
2856.97833 0.07179
2855.69256 0.07152
2854.40680 0.07124
2853.12103 0.07101
2851.83526 0.07078
2850.54949 0.07040
2849.26372 0.06982
2847.97795 0.06914
2846.69218 0.06845
2845.40641 0.06774
2844.12064 0.06693
2842.83488 0.06590
2841.54911 0.06462
2840.26334 0.06317
2838.97757 0.06170
2837.69180 0.06036
2836.40603 0.05918
2835.12026 0.05812
2833.83449 0.05716
2832.54873 0.05635
2831.26296 0.05575
2829.97719 0.05535
2828.69142 0.05509
2827.40565 0.05489
2826.11988 0.05469
2824.83411 0.05437
2823.54834 0.05390
2822.26257 0.05330
2820.97681 0.05272
2819.69104 0.05225
2818.40527 0.05186
2817.11950 0.05147
2815.83373 0.05107
2814.54796 0.05069
2813.26219 0.05039
2811.97642 0.05018
2810.69066 0.05005
2809.40489 0.04997
2808.11912 0.04993
2806.83335 0.04984
2805.54758 0.04962
2804.26181 0.04920
2802.97604 0.04872
2801.69027 0.04836
2800.40450 0.04827
2799.11874 0.04836
2797.83297 0.04840
2796.54720 0.04826
2795.26143 0.04799
2793.97566 0.04776
2792.68989 0.04765
2791.40412 0.04763
2790.11835 0.04763
2788.83259 0.04758
2787.54682 0.04741
2786.26105 0.04709
2784.97528 0.04671
2783.68951 0.04642
2782.40374 0.04630
2781.11797 0.04630
2779.83220 0.04636
2778.54643 0.04642
2777.26067 0.04648
2775.97490 0.04650
2774.68913 0.04641
2773.40336 0.04622
2772.11759 0.04604
2770.83182 0.04600
2769.54605 0.04612
2768.26028 0.04629
2766.97452 0.04633
2765.68875 0.04616
2764.40298 0.04588
2763.11721 0.04561
2761.83144 0.04537
2760.54567 0.04507
2759.25990 0.04469
2757.97413 0.04432
2756.68836 0.04406
2755.40260 0.04399
2754.11683 0.04409
2752.83106 0.04424
2751.54529 0.04428
2750.25952 0.04418
2748.97375 0.04405
2747.68798 0.04395
2746.40221 0.04378
2745.11645 0.04350
2743.83068 0.04320
2742.54491 0.04307
2741.25914 0.04315
2739.97337 0.04332
2738.68760 0.04351
2737.40183 0.04371
2736.11606 0.04384
2734.83029 0.04377
2733.54453 0.04347
2732.25876 0.04310
2730.97299 0.04287
2729.68722 0.04286
2728.40145 0.04294
2727.11568 0.04294
2725.82991 0.04284
2724.54414 0.04273
2723.25838 0.04265
2721.97261 0.04259
2720.68684 0.04246
2719.40107 0.04228
2718.11530 0.04215
2716.82953 0.04210
2715.54376 0.04204
2714.25799 0.04187
2712.97222 0.04163
2711.68646 0.04143
2710.40069 0.04132
2709.11492 0.04127
2707.82915 0.04121
2706.54338 0.04111
2705.25761 0.04104
2703.97184 0.04106
2702.68607 0.04116
2701.40031 0.04121
2700.11454 0.04114
2698.82877 0.04100
2697.54300 0.04090
2696.25723 0.04089
2694.97146 0.04087
2693.68569 0.04077
2692.39992 0.04057
2691.11415 0.04039
2689.82839 0.04033
2688.54262 0.04041
2687.25685 0.04053
2685.97108 0.04055
2684.68531 0.04045
2683.39954 0.04031
2682.11377 0.04025
2680.82800 0.04029
2679.54224 0.04039
2678.25647 0.04044
2676.97070 0.04037
2675.68493 0.04013
2674.39916 0.03981
2673.11339 0.03958
2671.82762 0.03954
2670.54185 0.03967
2669.25608 0.03980
2667.97032 0.03974
2666.68455 0.03945
2665.39878 0.03910
2664.11301 0.03900
2662.82724 0.03925
2661.54147 0.03971
2660.25570 0.04014
2658.96993 0.04041
2657.68417 0.04057
2656.39840 0.04069
2655.11263 0.04078
2653.82686 0.04080
2652.54109 0.04067
2651.25532 0.04028
2649.96955 0.03964
2648.68378 0.03895
2647.39801 0.03842
2646.11225 0.03817
2644.82648 0.03818
2643.54071 0.03838
2642.25494 0.03865
2640.96917 0.03881
2639.68340 0.03880
2638.39763 0.03867
2637.11186 0.03851
2635.82609 0.03832
2634.54033 0.03803
2633.25456 0.03765
2631.96879 0.03728
2630.68302 0.03706
2629.39725 0.03708
2628.11148 0.03730
2626.82571 0.03754
2625.53994 0.03763
2624.25418 0.03751
2622.96841 0.03724
2621.68264 0.03692
2620.39687 0.03657
2619.11110 0.03622
2617.82533 0.03592
2616.53956 0.03576
2615.25379 0.03582
2613.96802 0.03607
2612.68226 0.03627
2611.39649 0.03618
2610.11072 0.03584
2608.82495 0.03556
2607.53918 0.03561
2606.25341 0.03591
2604.96764 0.03622
2603.68187 0.03636
2602.39611 0.03631
2601.11034 0.03608
2599.82457 0.03569
2598.53880 0.03515
2597.25303 0.03459
2595.96726 0.03409
2594.68149 0.03364
2593.39572 0.03317
2592.10995 0.03275
2590.82419 0.03257
2589.53842 0.03274
2588.25265 0.03311
2586.96688 0.03341
2585.68111 0.03353
2584.39534 0.03356
2583.10957 0.03366
2581.82380 0.03379
2580.53804 0.03381
2579.25227 0.03364
2577.96650 0.03345
2576.68073 0.03342
2575.39496 0.03350
2574.10919 0.03349
2572.82342 0.03325
2571.53765 0.03284
2570.25188 0.03244
2568.96612 0.03228
2567.68035 0.03247
2566.39458 0.03287
2565.10881 0.03317
2563.82304 0.03311
2562.53727 0.03273
2561.25150 0.03235
2559.96573 0.03219
2558.67997 0.03217
2557.39420 0.03204
2556.10843 0.03169
2554.82266 0.03131
2553.53689 0.03111
2552.25112 0.03113
2550.96535 0.03121
2549.67958 0.03117
2548.39381 0.03100
2547.10805 0.03079
2545.82228 0.03069
2544.53651 0.03072
2543.25074 0.03084
2541.96497 0.03095
2540.67920 0.03098
2539.39343 0.03096
2538.10766 0.03094
2536.82190 0.03094
2535.53613 0.03091
2534.25036 0.03082
2532.96459 0.03070
2531.67882 0.03069
2530.39305 0.03080
2529.10728 0.03093
2527.82151 0.03102
2526.53574 0.03113
2525.24998 0.03137
2523.96421 0.03173
2522.67844 0.03208
2521.39267 0.03227
2520.10690 0.03226
2518.82113 0.03203
2517.53536 0.03165
2516.24959 0.03126
2514.96383 0.03095
2513.67806 0.03066
2512.39229 0.03031
2511.10652 0.03001
2509.82075 0.02994
2508.53498 0.03002
2507.24921 0.02997
2505.96344 0.02969
2504.67767 0.02937
2503.39191 0.02924
2502.10614 0.02931
2500.82037 0.02950
2499.53460 0.02980
2498.24883 0.03020
2496.96306 0.03063
2495.67729 0.03098
2494.39152 0.03121
2493.10576 0.03139
2491.81999 0.03154
2490.53422 0.03154
2489.24845 0.03121
2487.96268 0.03055
2486.67691 0.02984
2485.39114 0.02945
2484.10537 0.02950
2482.81960 0.02982
2481.53384 0.03014
2480.24807 0.03030
2478.96230 0.03033
2477.67653 0.03023
2476.39076 0.02995
2475.10499 0.02949
2473.81922 0.02904
2472.53345 0.02883
2471.24769 0.02889
2469.96192 0.02901
2468.67615 0.02898
2467.39038 0.02880
2466.10461 0.02869
2464.81884 0.02880
2463.53307 0.02913
2462.24730 0.02949
2460.96153 0.02971
2459.67577 0.02969
2458.39000 0.02944
2457.10423 0.02907
2455.81846 0.02869
2454.53269 0.02842
2453.24692 0.02832
2451.96115 0.02842
2450.67538 0.02865
2449.38962 0.02883
2448.10385 0.02882
2446.81808 0.02863
2445.53231 0.02836
2444.24654 0.02810
2442.96077 0.02787
2441.67500 0.02771
2440.38923 0.02773
2439.10346 0.02796
2437.81770 0.02823
2436.53193 0.02832
2435.24616 0.02818
2433.96039 0.02803
2432.67462 0.02813
2431.38885 0.02848
2430.10308 0.02881
2428.81731 0.02889
2427.53155 0.02873
2426.24578 0.02844
2424.96001 0.02808
2423.67424 0.02766
2422.38847 0.02720
2421.10270 0.02682
2419.81693 0.02665
2418.53116 0.02672
2417.24539 0.02696
2415.95963 0.02728
2414.67386 0.02768
2413.38809 0.02813
2412.10232 0.02854
2410.81655 0.02879
2409.53078 0.02878
2408.24501 0.02848
2406.95924 0.02792
2405.67347 0.02724
2404.38771 0.02678
2403.10194 0.02675
2401.81617 0.02700
2400.53040 0.02720
2399.24463 0.02797
2397.95886 0.02735
2396.67309 0.02702
2395.38732 0.02727
2394.10156 0.02761
2392.81579 0.02776
2391.53002 0.02769
2390.24425 0.02753
2388.95848 0.02738
2387.67271 0.02729
2386.38694 0.02721
2385.10117 0.02715
2383.81540 0.02712
2382.52964 0.02711
2381.24387 0.02708
2379.95810 0.02693
2378.67233 0.02665
2377.38656 0.02632
2376.10079 0.02613
2374.81502 0.02620
2373.52925 0.02654
2372.24349 0.02700
2370.95772 0.02737
2369.67195 0.02759
2368.38618 0.02770
2367.10041 0.02784
2365.81464 0.02799
2364.52887 0.02810
2363.24310 0.02807
2361.95733 0.02796
2360.67157 0.02787
2359.38580 0.02784
2358.10003 0.02787
2356.81426 0.02794
2355.52849 0.02802
2354.24272 0.02802
2352.95695 0.02792
2351.67118 0.02776
2350.38542 0.02767
2349.09965 0.02772
2347.81388 0.02787
2346.52811 0.02799
2345.24234 0.02798
2343.95657 0.02786
2342.67080 0.02779
2341.38503 0.02786
2340.09926 0.02812
2338.81350 0.02845
2337.52773 0.02864
2336.24196 0.02855
2334.95619 0.02827
2333.67042 0.02797
2332.38465 0.02778
2331.09888 0.02767
2329.81311 0.02770
2328.52735 0.02795
2327.24158 0.02837
2325.95581 0.02888
2324.67004 0.02936
2323.38427 0.02965
2322.09850 0.02968
2320.81273 0.02953
2319.52696 0.02921
2318.24119 0.02882
2316.95543 0.02849
2315.66966 0.02824
2314.38389 0.02811
2313.09812 0.02804
2311.81235 0.02792
2310.52658 0.02766
2309.24081 0.02730
2307.95504 0.02697
2306.66928 0.02672
2305.38351 0.02646
2304.09774 0.02613
2302.81197 0.02583
2301.52620 0.02568
2300.24043 0.02572
2298.95466 0.02578
2297.66889 0.02578
2296.38312 0.02574
2295.09736 0.02580
2293.81159 0.02598
2292.52582 0.02622
2291.24005 0.02645
2289.95428 0.02660
2288.66851 0.02662
2287.38274 0.02640
2286.09697 0.02590
2284.81121 0.02519
2283.52544 0.02445
2282.23967 0.02391
2280.95390 0.02371
2279.66813 0.02372
2278.38236 0.02364
2277.09659 0.02325
2275.81082 0.02269
2274.52505 0.02236
2273.23929 0.02256
2271.95352 0.02312
2270.66775 0.02351
2269.38198 0.02333
2268.09621 0.02270
2266.81044 0.02216
2265.52467 0.02209
2264.23890 0.02234
2262.95314 0.02238
2261.66737 0.02182
2260.38160 0.02087
2259.09583 0.02006
2257.81006 0.01970
2256.52429 0.01966
2255.23852 0.01958
2253.95275 0.01936
2252.66698 0.01923
2251.38122 0.01925
2250.09545 0.01965
2248.80968 0.02126
2247.52391 0.02156
2246.23814 0.02131
2244.95237 0.02088
2243.66660 0.02052
2242.38083 0.02015
2241.09507 0.01960
2239.80930 0.01894
2238.52353 0.01857
2237.23776 0.01882
2235.95199 0.01961
2234.66622 0.02047
2233.38045 0.02104
2232.09468 0.02136
2230.80891 0.02156
2229.52315 0.02148
2228.23738 0.02092
2226.95161 0.02002
2225.66584 0.01914
2224.38007 0.01846
2223.09430 0.01800
2221.80853 0.01782
2220.52276 0.01798
2219.23700 0.01840
2217.95123 0.01892
2216.66546 0.01936
2215.37969 0.01951
2214.09392 0.01933
2212.80815 0.01904
2211.52238 0.01893
2210.23661 0.01904
2208.95084 0.01917
2207.66508 0.01906
2206.37931 0.01853
2205.09354 0.01764
2203.80777 0.01683
2202.52200 0.01658
2201.23623 0.01690
2199.95046 0.01730
2198.66469 0.01742
2197.37893 0.01737
2196.09316 0.01741
2194.80739 0.01755
2193.52162 0.01759
2192.23585 0.01735
2190.95008 0.01688
2189.66431 0.01646
2188.37854 0.01625
2187.09277 0.01601
2185.80701 0.01530
2184.52124 0.01406
2183.23547 0.01290
2181.94970 0.01244
2180.66393 0.01261
2179.37816 0.01270
2178.09239 0.01214
2176.80662 0.01111
2175.52085 0.01034
2174.23509 0.01030
2172.94932 0.01084
2171.66355 0.01162
2170.37778 0.01259
2169.09201 0.01378
2167.80624 0.01490
2166.52047 0.01538
2165.23470 0.01500
2163.94894 0.01409
2162.66317 0.01305
2161.37740 0.01183
2160.09163 0.01032
2158.80586 0.00898
2157.52009 0.00851
2156.23432 0.00879
2154.94855 0.00886
2153.66278 0.00811
2152.37702 0.00710
2151.09125 0.00685
2149.80548 0.00774
2148.51971 0.00928
2147.23394 0.01079
2145.94817 0.01197
2144.66240 0.01264
2143.37663 0.01261
2142.09087 0.01187
2140.80510 0.01091
2139.51933 0.01048
2138.23356 0.01097
2136.94779 0.01204
2135.66202 0.01299
2134.37625 0.01335
2133.09048 0.01315
2131.80471 0.01273
2130.51895 0.01242
2129.23318 0.01240
2127.94741 0.01267
2126.66164 0.01310
2125.37587 0.01361
2124.09010 0.01419
2122.80433 0.01475
2121.51856 0.01513
2120.23280 0.01528
2118.94703 0.01538
2117.66126 0.01561
2116.37549 0.01591
2115.08972 0.01598
2113.80395 0.01565
2112.51818 0.01519
2111.23241 0.01509
2109.94664 0.01554
2108.66088 0.01622
2107.37511 0.01655
2106.08934 0.01630
2104.80357 0.01566
2103.51780 0.01504
2102.23203 0.01465
2100.94626 0.01458
2099.66049 0.01480
2098.37473 0.01540
2097.08896 0.01566
2095.80319 0.01543
2094.51742 0.01489
2093.23165 0.01437
2091.94588 0.01416
2090.66011 0.01430
2089.37434 0.01457
2088.08857 0.01461
2086.80281 0.01431
2085.51704 0.01387
2084.23127 0.01368
2082.94550 0.01396
2081.65973 0.01455
2080.37396 0.01506
2079.08819 0.01516
2077.80242 0.01479
2076.51666 0.01415
2075.23089 0.01354
2073.94512 0.01324
2072.65935 0.01337
2071.37358 0.01375
2070.08781 0.01412
2068.80204 0.01432
2067.51627 0.01425
2066.23050 0.01374
2064.94474 0.01267
2063.65897 0.01123
2062.37320 0.00994
2061.08743 0.00921
2059.80166 0.00916
2058.51589 0.00965
2057.23012 0.01038
2055.94435 0.01091
2054.65859 0.01087
2053.37282 0.01025
2052.08705 0.00942
2050.80128 0.00882
2049.51551 0.00853
2048.22974 0.00838
2046.94397 0.00818
2045.65820 0.00793
2044.37243 0.00777
2043.08667 0.00791
2041.80090 0.00852
2040.51513 0.00955
2039.22936 0.01067
2037.94359 0.01140
2036.65782 0.01153
2035.37205 0.01118
2034.08628 0.01063
2032.80052 0.00991
2031.51475 0.00870
2030.22898 0.00683
2028.94321 0.00491
2027.65744 0.00415
2026.37167 0.00514
2025.08590 0.00705
2023.80013 0.00843
2022.51436 0.00849
2021.22860 0.00761
2019.94283 0.00669
2018.65706 0.00638
2017.37129 0.00682
2016.08552 0.00771
2014.79975 0.00860
2013.51398 0.00916
2012.22821 0.00930
2010.94245 0.00908
2009.65668 0.00861
2008.37091 0.00808
2007.08514 0.00779
2005.79937 0.00794
2004.51360 0.00842
2003.22783 0.00892
2001.94206 0.00918
2000.65629 0.00923
1999.37053 0.00930
1998.08476 0.00941
1996.79899 0.00945
1995.51322 0.00949
1994.22745 0.00979
1992.94168 0.01050
1991.65591 0.01133
1990.37014 0.01192
1989.08438 0.01222
1987.79861 0.01247
1986.51284 0.01274
1985.22707 0.01288
1983.94130 0.01277
1982.65553 0.01249
1981.36976 0.01210
1980.08399 0.01137
1978.79822 0.01016
1977.51246 0.00875
1976.22669 0.00782
1974.94092 0.00786
1973.65515 0.00877
1972.36938 0.01018
1971.08361 0.01177
1969.79784 0.01326
1968.51207 0.01416
1967.22631 0.01397
1965.94054 0.01283
1964.65477 0.01171
1963.36900 0.01158
1962.08323 0.01245
1960.79746 0.01347
1959.51169 0.01397
1958.22592 0.01402
1956.94015 0.01399
1955.65439 0.01400
1954.36862 0.01403
1953.08285 0.01409
1951.79708 0.01427
1950.51131 0.01455
1949.22554 0.01474
1947.93977 0.01466
1946.65400 0.01428
1945.36823 0.01378
1944.08247 0.01331
1942.79670 0.01293
1941.51093 0.01272
1940.22516 0.01286
1938.93939 0.01347
1937.65362 0.01438
1936.36785 0.01512
1935.08208 0.01534
1933.79632 0.01505
1932.51055 0.01460
1931.22478 0.01435
1929.93901 0.01448
1928.65324 0.01492
1927.36747 0.01534
1926.08170 0.01538
1924.79593 0.01503
1923.51016 0.01473
1922.22440 0.01495
1920.93863 0.01561
1919.65286 0.01619
1918.36709 0.01632
1917.08132 0.01608
1915.79555 0.01576
1914.50978 0.01553
1913.22401 0.01538
1911.93825 0.01522
1910.65248 0.01506
1909.36671 0.01498
1908.08094 0.01502
1906.79517 0.01507
1905.50940 0.01501
1904.22363 0.01486
1902.93786 0.01473
1901.65209 0.01474
1900.36633 0.01493
1899.08056 0.01523
1897.79479 0.01551
1896.50902 0.01566
1895.22325 0.01568
1893.93748 0.01570
1892.65171 0.01585
1891.36594 0.01605
1890.08018 0.01615
1888.79441 0.01611
1887.50864 0.01601
1886.22287 0.01593
1884.93710 0.01586
1883.65133 0.01573
1882.36556 0.01553
1881.07979 0.01535
1879.79402 0.01529
1878.50826 0.01541
1877.22249 0.01565
1875.93672 0.01592
1874.65095 0.01610
1873.36518 0.01616
1872.07941 0.01613
1870.79364 0.01603
1869.50787 0.01588
1868.22211 0.01575
1866.93634 0.01569
1865.65057 0.01572
1864.36480 0.01577
1863.07903 0.01578
1861.79326 0.01568
1860.50749 0.01552
1859.22172 0.01535
1857.93595 0.01526
1856.65019 0.01529
1855.36442 0.01544
1854.07865 0.01568
1852.79288 0.01591
1851.50711 0.01608
1850.22134 0.01617
1848.93557 0.01624
1847.64980 0.01633
1846.36404 0.01638
1845.07827 0.01633
1843.79250 0.01622
1842.50673 0.01608
1841.22096 0.01595
1839.93519 0.01589
1838.64942 0.01595
1837.36365 0.01615
1836.07788 0.01642
1834.79212 0.01668
1833.50635 0.01685
1832.22058 0.01685
1830.93481 0.01672
1829.64904 0.01666
1828.36327 0.01677
1827.07750 0.01694
1825.79173 0.01700
1824.50597 0.01692
1823.22020 0.01673
1821.93443 0.01650
1820.64866 0.01628
1819.36289 0.01608
1818.07712 0.01587
1816.79135 0.01569
1815.50558 0.01558
1814.21981 0.01556
1812.93405 0.01562
1811.64828 0.01573
1810.36251 0.01589
1809.07674 0.01610
1807.79097 0.01631
1806.50520 0.01651
1805.21943 0.01673
1803.93366 0.01693
1802.64790 0.01702
1801.36213 0.01695
1800.07636 0.01679
1798.79059 0.01662
1797.50482 0.01655
1796.21905 0.01660
1794.93328 0.01670
1793.64751 0.01678
1792.36174 0.01690
1791.07598 0.01716
1789.79021 0.01747
1788.50444 0.01766
1787.21867 0.01760
1785.93290 0.01738
1784.64713 0.01714
1783.36136 0.01700
1782.07559 0.01696
1780.78983 0.01695
1779.50406 0.01696
1778.21829 0.01697
1776.93252 0.01698
1775.64675 0.01698
1774.36098 0.01693
1773.07521 0.01690
1771.78944 0.01697
1770.50367 0.01708
1769.21791 0.01710
1767.93214 0.01703
1766.64637 0.01702
1765.36060 0.01714
1764.07483 0.01732
1762.78906 0.01749
1761.50329 0.01762
1760.21752 0.01769
1758.93176 0.01765
1757.64599 0.01753
1756.36022 0.01743
1755.07445 0.01734
1753.78868 0.01716
1752.50291 0.01694
1751.21714 0.01684
1749.93137 0.01696
1748.64560 0.01719
1747.35984 0.01740
1746.07407 0.01755
1744.78830 0.01769
1743.50253 0.01785
1742.21676 0.01796
1740.93099 0.01802
1739.64522 0.01807
1738.35945 0.01817
1737.07369 0.01820
1735.78792 0.01809
1734.50215 0.01799
1733.21638 0.01807
1731.93061 0.01825
1730.64484 0.01834
1729.35907 0.01836
1728.07330 0.01844
1726.78753 0.01857
1725.50177 0.01863
1724.21600 0.01867
1722.93023 0.01882
1721.64446 0.01913
1720.35869 0.01948
1719.07292 0.01973
1717.78715 0.01995
1716.50138 0.02024
1715.21561 0.02059
1713.92985 0.02095
1712.64408 0.02133
1711.35831 0.02175
1710.07254 0.02222
1708.78677 0.02273
1707.50100 0.02326
1706.21523 0.02382
1704.92946 0.02445
1703.64370 0.02507
1702.35793 0.02552
1701.07216 0.02585
1699.78639 0.02635
1698.50062 0.02697
1697.21485 0.02748
1695.92908 0.02793
1694.64331 0.02854
1693.35754 0.02919
1692.07178 0.02968
1690.78601 0.03012
1689.50024 0.03075
1688.21447 0.03151
1686.92870 0.03215
1685.64293 0.03259
1684.35716 0.03305
1683.07139 0.03366
1681.78563 0.03428
1680.49986 0.03479
1679.21409 0.03528
1677.92832 0.03579
1676.64255 0.03629
1675.35678 0.03686
1674.07101 0.03755
1672.78524 0.03826
1671.49947 0.03886
1670.21371 0.03939
1668.92794 0.03996
1667.64217 0.04059
1666.35640 0.04116
1665.07063 0.04163
1663.78486 0.04207
1662.49909 0.04256
1661.21332 0.04312
1659.92756 0.04367
1658.64179 0.04423
1657.35602 0.04483
1656.07025 0.04533
1654.78448 0.04558
1653.49871 0.04577
1652.21294 0.04617
1650.92717 0.04666
1649.64140 0.04688
1648.35564 0.04677
1647.06987 0.04663
1645.78410 0.04667
1644.49833 0.04677
1643.21256 0.04675
1641.92679 0.04654
1640.64102 0.04630
1639.35525 0.04613
1638.06949 0.04597
1636.78372 0.04575
1635.49795 0.04551
1634.21218 0.04529
1632.92641 0.04501
1631.64064 0.04461
1630.35487 0.04420
1629.06910 0.04388
1627.78333 0.04366
1626.49757 0.04341
1625.21180 0.04302
1623.92603 0.04254
1622.64026 0.04214
1621.35449 0.04188
1620.06872 0.04166
1618.78295 0.04134
1617.49718 0.04098
1616.21142 0.04078
1614.92565 0.04071
1613.63988 0.04060
1612.35411 0.04037
1611.06834 0.04015
1609.78257 0.04002
1608.49680 0.03998
1607.21103 0.04000
1605.92526 0.04006
1604.63950 0.04016
1603.35373 0.04031
1602.06796 0.04049
1600.78219 0.04062
1599.49642 0.04068
1598.21065 0.04073
1596.92488 0.04085
1595.63911 0.04111
1594.35335 0.04148
1593.06758 0.04186
1591.78181 0.04219
1590.49604 0.04246
1589.21027 0.04269
1587.92450 0.04295
1586.63873 0.04323
1585.35296 0.04354
1584.06719 0.04392
1582.78143 0.04437
1581.49566 0.04493
1580.20989 0.04555
1578.92412 0.04615
1577.63835 0.04665
1576.35258 0.04718
1575.06681 0.04787
1573.78104 0.04862
1572.49528 0.04922
1571.20951 0.04966
1569.92374 0.05007
1568.63797 0.05055
1567.35220 0.05103
1566.06643 0.05146
1564.78066 0.05189
1563.49489 0.05239
1562.20912 0.05285
1560.92336 0.05316
1559.63759 0.05345
1558.35182 0.05390
1557.06605 0.05444
1555.78028 0.05482
1554.49451 0.05502
1553.20874 0.05518
1551.92297 0.05532
1550.63721 0.05538
1549.35144 0.05543
1548.06567 0.05551
1546.77990 0.05557
1545.49413 0.05558
1544.20836 0.05559
1542.92259 0.05554
1541.63682 0.05532
1540.35105 0.05496
1539.06529 0.05466
1537.77952 0.05448
1536.49375 0.05429
1535.20798 0.05402
1533.92221 0.05380
1532.63644 0.05380
1531.35067 0.05397
1530.06490 0.05417
1528.77914 0.05437
1527.49337 0.05461
1526.20760 0.05494
1524.92183 0.05533
1523.63606 0.05570
1522.35029 0.05606
1521.06452 0.05657
1519.77875 0.05727
1518.49298 0.05803
1517.20722 0.05874
1515.92145 0.05951
1514.63568 0.06038
1513.34991 0.06132
1512.06414 0.06235
1510.77837 0.06349
1509.49260 0.06461
1508.20683 0.06561
1506.92107 0.06654
1505.63530 0.06755
1504.34953 0.06859
1503.06376 0.06950
1501.77799 0.07025
1500.49222 0.07096
1499.20645 0.07167
1497.92068 0.07229
1496.63491 0.07283
1495.34915 0.07340
1494.06338 0.07401
1492.77761 0.07459
1491.49184 0.07514
1490.20607 0.07575
1488.92030 0.07646
1487.63453 0.07722
1486.34876 0.07800
1485.06299 0.07876
1483.77723 0.07954
1482.49146 0.08035
1481.20569 0.08125
1479.91992 0.08224
1478.63415 0.08328
1477.34838 0.08433
1476.06261 0.08535
1474.77684 0.08630
1473.49108 0.08717
1472.20531 0.08805
1470.91954 0.08894
1469.63377 0.08976
1468.34800 0.09045
1467.06223 0.09108
1465.77646 0.09173
1464.49069 0.09248
1463.20492 0.09333
1461.91916 0.09421
1460.63339 0.09506
1459.34762 0.09581
1458.06185 0.09650
1456.77608 0.09725
1455.49031 0.09806
1454.20454 0.09874
1452.91877 0.09917
1451.63301 0.09945
1450.34724 0.09970
1449.06147 0.09995
1447.77570 0.10019
1446.48993 0.10040
1445.20416 0.10056
1443.91839 0.10066
1442.63262 0.10073
1441.34685 0.10081
1440.06109 0.10090
1438.77532 0.10096
1437.48955 0.10103
1436.20378 0.10124
1434.91801 0.10164
1433.63224 0.10216
1432.34647 0.10275
1431.06070 0.10346
1429.77494 0.10433
1428.48917 0.10536
1427.20340 0.10650
1425.91763 0.10773
1424.63186 0.10905
1423.34609 0.11040
1422.06032 0.11164
1420.77455 0.11268
1419.48878 0.11358
1418.20302 0.11443
1416.91725 0.11520
1415.63148 0.11579
1414.34571 0.11620
1413.05994 0.11644
1411.77417 0.11652
1410.48840 0.11639
1409.20263 0.11602
1407.91687 0.11544
1406.63110 0.11466
1405.34533 0.11374
1404.05956 0.11271
1402.77379 0.11155
1401.48802 0.11019
1400.20225 0.10864
1398.91648 0.10694
1397.63071 0.10515
1396.34495 0.10329
1395.05918 0.10135
1393.77341 0.09939
1392.48764 0.09742
1391.20187 0.09542
1389.91610 0.09341
1388.63033 0.09140
1387.34456 0.08945
1386.05880 0.08756
1384.77303 0.08567
1383.48726 0.08376
1382.20149 0.08186
1380.91572 0.08004
1379.62995 0.07830
1378.34418 0.07658
1377.05841 0.07480
1375.77264 0.07290
1374.48688 0.07088
1373.20111 0.06877
1371.91534 0.06662
1370.62957 0.06449
1369.34380 0.06246
1368.05803 0.06059
1366.77226 0.05889
1365.48649 0.05729
1364.20073 0.05572
1362.91496 0.05417
1361.62919 0.05267
1360.34342 0.05124
1359.05765 0.04995
1357.77188 0.04882
1356.48611 0.04781
1355.20034 0.04683
1353.91457 0.04583
1352.62881 0.04485
1351.34304 0.04398
1350.05727 0.04325
1348.77150 0.04263
1347.48573 0.04205
1346.19996 0.04149
1344.91419 0.04095
1343.62842 0.04044
1342.34266 0.03993
1341.05689 0.03940
1339.77112 0.03887
1338.48535 0.03837
1337.19958 0.03791
1335.91381 0.03749
1334.62804 0.03708
1333.34227 0.03668
1332.05650 0.03630
1330.77074 0.03594
1329.48497 0.03560
1328.19920 0.03527
1326.91343 0.03492
1325.62766 0.03457
1324.34189 0.03422
1323.05612 0.03390
1321.77035 0.03362
1320.48459 0.03336
1319.19882 0.03309
1317.91305 0.03282
1316.62728 0.03257
1315.34151 0.03234
1314.05574 0.03214
1312.76997 0.03197
1311.48420 0.03177
1310.19843 0.03154
1308.91267 0.03126
1307.62690 0.03095
1306.34113 0.03065
1305.05536 0.03038
1303.76959 0.03016
1302.48382 0.02999
1301.19805 0.02983
1299.91228 0.02964
1298.62652 0.02941
1297.34075 0.02914
1296.05498 0.02884
1294.76921 0.02855
1293.48344 0.02831
1292.19767 0.02816
1290.91190 0.02807
1289.62613 0.02798
1288.34036 0.02783
1287.05460 0.02762
1285.76883 0.02738
1284.48306 0.02720
1283.19729 0.02708
1281.91152 0.02700
1280.62575 0.02691
1279.33998 0.02680
1278.05421 0.02667
1276.76845 0.02654
1275.48268 0.02642
1274.19691 0.02629
1272.91114 0.02615
1271.62537 0.02603
1270.33960 0.02593
1269.05383 0.02587
1267.76806 0.02585
1266.48229 0.02584
1265.19653 0.02582
1263.91076 0.02578
1262.62499 0.02570
1261.33922 0.02560
1260.05345 0.02549
1258.76768 0.02537
1257.48191 0.02526
1256.19614 0.02519
1254.91037 0.02516
1253.62461 0.02517
1252.33884 0.02516
1251.05307 0.02513
1249.76730 0.02509
1248.48153 0.02505
1247.19576 0.02500
1245.90999 0.02495
1244.62422 0.02489
1243.33846 0.02485
1242.05269 0.02484
1240.76692 0.02484
1239.48115 0.02485
1238.19538 0.02482
1236.90961 0.02477
1235.62384 0.02469
1234.33807 0.02462
1233.05230 0.02459
1231.76654 0.02460
1230.48077 0.02460
1229.19500 0.02454
1227.90923 0.02442
1226.62346 0.02430
1225.33769 0.02425
1224.05192 0.02428
1222.76615 0.02435
1221.48039 0.02438
1220.19462 0.02435
1218.90885 0.02431
1217.62308 0.02429
1216.33731 0.02429
1215.05154 0.02429
1213.76577 0.02429
1212.48000 0.02432
1211.19423 0.02439
1209.90847 0.02449
1208.62270 0.02459
1207.33693 0.02470
1206.05116 0.02479
1204.76539 0.02486
1203.47962 0.02491
1202.19385 0.02489
1200.90808 0.02485
1199.62232 0.02504
1198.33655 0.02511
1197.05078 0.02515
1195.76501 0.02517
1194.47924 0.02519
1193.19347 0.02522
1191.90770 0.02525
1190.62193 0.02529
1189.33616 0.02536
1188.05040 0.02546
1186.76463 0.02559
1185.47886 0.02571
1184.19309 0.02577
1182.90732 0.02580
1181.62155 0.02583
1180.33578 0.02588
1179.05001 0.02595
1177.76425 0.02605
1176.47848 0.02622
1175.19271 0.02648
1173.90694 0.02679
1172.62117 0.02711
1171.33540 0.02740
1170.04963 0.02766
1168.76386 0.02793
1167.47809 0.02823
1166.19233 0.02858
1164.90656 0.02894
1163.62079 0.02924
1162.33502 0.02945
1161.04925 0.02954
1159.76348 0.02952
1158.47771 0.02946
1157.19194 0.02948
1155.90618 0.02965
1154.62041 0.02994
1153.33464 0.03027
1152.04887 0.03056
1150.76310 0.03081
1149.47733 0.03105
1148.19156 0.03133
1146.90579 0.03166
1145.62002 0.03209
1144.33426 0.03262
1143.04849 0.03323
1141.76272 0.03394
1140.47695 0.03476
1139.19118 0.03566
1137.90541 0.03665
1136.61964 0.03774
1135.33387 0.03898
1134.04811 0.04038
1132.76234 0.04192
1131.47657 0.04364
1130.19080 0.04559
1128.90503 0.04782
1127.61926 0.05035
1126.33349 0.05311
1125.04772 0.05602
1123.76195 0.05899
1122.47619 0.06201
1121.19042 0.06511
1119.90465 0.06831
1118.61888 0.07154
1117.33311 0.07474
1116.04734 0.07787
1114.76157 0.08097
1113.47580 0.08402
1112.19004 0.08699
1110.90427 0.08979
1109.61850 0.09240
1108.33273 0.09489
1107.04696 0.09734
1105.76119 0.09981
1104.47542 0.10229
1103.18965 0.10471
1101.90388 0.10694
1100.61812 0.10894
1099.33235 0.11078
1098.04658 0.11265
1096.76081 0.11467
1095.47504 0.11675
1094.18927 0.11870
1092.90350 0.12038
1091.61773 0.12181
1090.33197 0.12308
1089.04620 0.12430
1087.76043 0.12553
1086.47466 0.12680
1085.18889 0.12809
1083.90312 0.12941
1082.61735 0.13079
1081.33158 0.13232
1080.04581 0.13404
1078.76005 0.13599
1077.47428 0.13813
1076.18851 0.14042
1074.90274 0.14278
1073.61697 0.14515
1072.33120 0.14751
1071.04543 0.14993
1069.75966 0.15249
1068.47390 0.15520
1067.18813 0.15802
1065.90236 0.16091
1064.61659 0.16384
1063.33082 0.16679
1062.04505 0.16979
1060.75928 0.17279
1059.47351 0.17574
1058.18774 0.17856
1056.90198 0.18125
1055.61621 0.18386
1054.33044 0.18653
1053.04467 0.18929
1051.75890 0.19212
1050.47313 0.19499
1049.18736 0.19791
1047.90159 0.20091
1046.61583 0.20399
1045.33006 0.20709
1044.04429 0.21021
1042.75852 0.21332
1041.47275 0.21641
1040.18698 0.21950
1038.90121 0.22263
1037.61544 0.22582
1036.32967 0.22906
1035.04391 0.23227
1033.75814 0.23537
1032.47237 0.23830
1031.18660 0.24101
1029.90083 0.24345
1028.61506 0.24563
1027.32929 0.24754
1026.04352 0.24920
1024.75775 0.25060
1023.47199 0.25169
1022.18622 0.25238
1020.90045 0.25259
1019.61468 0.25236
1018.32891 0.25174
1017.04314 0.25078
1015.75737 0.24947
1014.47160 0.24777
1013.18584 0.24562
1011.90007 0.24302
1010.61430 0.24000
1009.32853 0.23661
1008.04276 0.23289
1006.75699 0.22883
1005.47122 0.22440
1004.18545 0.21953
1002.89968 0.21428
1001.61392 0.20879
1000.32815 0.20322
999.04238 0.19762
997.75661 0.19192
996.47084 0.18607
995.18507 0.18012
993.89930 0.17422
992.61353 0.16848
991.32777 0.16291
990.04200 0.15747
988.75623 0.15220
987.47046 0.14717
986.18469 0.14241
984.89892 0.13787
983.61315 0.13353
982.32738 0.12940
981.04161 0.12555
979.75585 0.12198
978.47008 0.11867
977.18431 0.11562
975.89854 0.11286
974.61277 0.11046
973.32700 0.10849
972.04123 0.10699
970.75546 0.10598
969.46970 0.10542
968.18393 0.10533
966.89816 0.10568
965.61239 0.10636
964.32662 0.10712
963.04085 0.10763
961.75508 0.10766
960.46931 0.10713
959.18354 0.10607
957.89778 0.10453
956.61201 0.10263
955.32624 0.10054
954.04047 0.09841
952.75470 0.09631
951.46893 0.09423
950.18316 0.09212
948.89739 0.08998
947.61163 0.08792
946.32586 0.08598
945.04009 0.08419
943.75432 0.08249
942.46855 0.08080
941.18278 0.07909
939.89701 0.07738
938.61124 0.07573
937.32547 0.07422
936.03971 0.07284
934.75394 0.07158
933.46817 0.07043
932.18240 0.06938
930.89663 0.06841
929.61086 0.06748
928.32509 0.06655
927.03932 0.06561
925.75356 0.06467
924.46779 0.06374
923.18202 0.06288
921.89625 0.06211
920.61048 0.06140
919.32471 0.06067
918.03894 0.05991
916.75317 0.05919
915.46740 0.05861
914.18164 0.05815
912.89587 0.05769
911.61010 0.05714
910.32433 0.05654
909.03856 0.05595
907.75279 0.05540
906.46702 0.05487
905.18125 0.05433
903.89549 0.05378
902.60972 0.05324
901.32395 0.05273
900.03818 0.05226
898.75241 0.05183
897.46664 0.05137
896.18087 0.05089
894.89510 0.05040
893.60933 0.05000
892.32357 0.04972
891.03780 0.04960
889.75203 0.04967
888.46626 0.05002
887.18049 0.05074
885.89472 0.05190
884.60895 0.05350
883.32318 0.05554
882.03742 0.05794
880.75165 0.06041
879.46588 0.06263
878.18011 0.06445
876.89434 0.06606
875.60857 0.06768
874.32280 0.06931
873.03703 0.07066
871.75126 0.07135
870.46550 0.07120
869.17973 0.07023
867.89396 0.06859
866.60819 0.06645
865.32242 0.06397
864.03665 0.06133
862.75088 0.05872
861.46511 0.05628
860.17935 0.05408
858.89358 0.05215
857.60781 0.05051
856.32204 0.04913
855.03627 0.04801
853.75050 0.04712
852.46473 0.04640
851.17896 0.04579
849.89319 0.04522
848.60743 0.04462
847.32166 0.04398
846.03589 0.04335
844.75012 0.04279
843.46435 0.04231
842.17858 0.04190
840.89281 0.04153
839.60704 0.04118
838.32128 0.04084
837.03551 0.04047
835.74974 0.04004
834.46397 0.03958
833.17820 0.03917
831.89243 0.03886
830.60666 0.03868
829.32089 0.03857
828.03512 0.03849
826.74936 0.03839
825.46359 0.03825
824.17782 0.03809
822.89205 0.03797
821.60628 0.03791
820.32051 0.03789
819.03474 0.03787
817.74897 0.03784
816.46321 0.03779
815.17744 0.03777
813.89167 0.03784
812.60590 0.03800
811.32013 0.03821
810.03436 0.03847
808.74859 0.03877
807.46282 0.03912
806.17705 0.03949
804.89129 0.03982
803.60552 0.04014
802.31975 0.04050
801.03398 0.04092
799.74821 0.04133
798.46244 0.04164
797.17667 0.04182
795.89090 0.04190
794.60513 0.04197
793.31937 0.04206
792.03360 0.04218
790.74783 0.04232
789.46206 0.04245
788.17629 0.04252
786.89052 0.04258
785.60475 0.04269
784.31898 0.04284
783.03322 0.04297
781.74745 0.04305
780.46168 0.04312
779.17591 0.04320
777.89014 0.04321
776.60437 0.04309
775.31860 0.04288
774.03283 0.04268
772.74706 0.04254
771.46130 0.04244
770.17553 0.04235
768.88976 0.04223
767.60399 0.04205
766.31822 0.04181
765.03245 0.04159
763.74668 0.04149
762.46091 0.04149
761.17515 0.04150
759.88938 0.04144
758.60361 0.04129
757.31784 0.04103
756.03207 0.04071
754.74630 0.04042
753.46053 0.04026
752.17476 0.04022
750.88899 0.04016
749.60323 0.04002
748.31746 0.03988
747.03169 0.03980
745.74592 0.03980
744.46015 0.03977
743.17438 0.03964
741.88861 0.03939
740.60284 0.03903
739.31708 0.03867
738.03131 0.03841
736.74554 0.03827
735.45977 0.03825
734.17400 0.03828
732.88823 0.03831
731.60246 0.03827
730.31669 0.03819
729.03092 0.03813
727.74516 0.03813
726.45939 0.03814
725.17362 0.03811
723.88785 0.03827
722.60208 0.03808
721.31631 0.03795
720.03054 0.03796
718.74477 0.03798
717.45901 0.03796
716.17324 0.03787
714.88747 0.03769
713.60170 0.03746
712.31593 0.03722
711.03016 0.03701
709.74439 0.03682
708.45862 0.03664
707.17285 0.03649
705.88709 0.03640
704.60132 0.03638
703.31555 0.03642
702.02978 0.03650
700.74401 0.03659
699.45824 0.03671
698.17247 0.03686
696.88670 0.03704
695.60094 0.03720
694.31517 0.03732
693.02940 0.03734
691.74363 0.03727
690.45786 0.03710
689.17209 0.03685
687.88632 0.03656
686.60055 0.03625
685.31478 0.03596
684.02902 0.03567
682.74325 0.03535
681.45748 0.03502
680.17171 0.03469
678.88594 0.03443
677.60017 0.03428
676.31440 0.03421
675.02863 0.03422
673.74287 0.03426
672.45710 0.03433
671.17133 0.03437
669.88556 0.03437
668.59979 0.03430
667.31402 0.03414
666.02825 0.03390
664.74248 0.03367
663.45671 0.03346
662.17095 0.03327
660.88518 0.03312
659.59941 0.03300
658.31364 0.03291
657.02787 0.03281
655.74210 0.03268
654.45633 0.03252
653.17056 0.03238
651.88480 0.03228
650.59903 0.03223
649.31326 0.03224
648.02749 0.03228
646.74172 0.03233
645.45595 0.03237
644.17018 0.03236
642.88441 0.03226
641.59864 0.03209
640.31288 0.03191
639.02711 0.03179
637.74134 0.03177
636.45557 0.03184
635.16980 0.03196
633.88403 0.03216
632.59826 0.03234
631.31249 0.03190
630.02673 0.03060
628.74096 0.03094
627.45519 0.03303
626.16942 0.03485
624.88365 0.03628
623.59788 0.03748
622.31211 0.03866
621.02634 0.04037
619.74057 0.04294
618.45481 0.04604
617.16904 0.04903
615.88327 0.05159
614.59750 0.05425
613.31173 0.05815
612.02596 0.06406
610.74019 0.07131
609.45442 0.07819
608.16866 0.08352
606.88289 0.08751
605.59712 0.09073
604.31135 0.09309
603.02558 0.09414
601.73981 0.09375
600.45404 0.09225
599.16827 0.09014
597.88250 0.08777
596.59674 0.08525
595.31097 0.08260
594.02520 0.07997
592.73943 0.07768
591.45366 0.07599
590.16789 0.07493
588.88212 0.07444
587.59635 0.07447
586.31059 0.07513
585.02482 0.07647
583.73905 0.07836
582.45328 0.08059
581.16751 0.08296
579.88174 0.08536
578.59597 0.08766
577.31020 0.08974
576.02443 0.09152
574.73867 0.09303
573.45290 0.09445
572.16713 0.09602
570.88136 0.09800
569.59559 0.10053
568.30982 0.10359
567.02405 0.10695
565.73828 0.11024
564.45251 0.11304
563.16675 0.11489
561.88098 0.11543
560.59521 0.11447
559.30944 0.11203
558.02367 0.10832
556.73790 0.10366
555.45213 0.09840
554.16636 0.09291
552.88060 0.08750
551.59483 0.08239
550.30906 0.07769
549.02329 0.07348
547.73752 0.06982
546.45175 0.06674
545.16598 0.06421
543.88021 0.06213
542.59444 0.06041
541.30868 0.05892
540.02291 0.05753
538.73714 0.05615
537.45137 0.05479
536.16560 0.05350
534.87983 0.05237
533.59406 0.05141
532.30829 0.05060
531.02253 0.04985
529.73676 0.04907
528.45099 0.04821
527.16522 0.04729
525.87945 0.04641
524.59368 0.04569
523.30791 0.04518
522.02214 0.04476
520.73637 0.04428
519.45061 0.04361
518.16484 0.04281
516.87907 0.04199
515.59330 0.04125
514.30753 0.04062
513.02176 0.04010
511.73599 0.03966
510.45022 0.03931
509.16446 0.03899
507.87869 0.03862
506.59292 0.03819
505.30715 0.03775
504.02138 0.03740
502.73561 0.03716
501.44984 0.03699
500.16407 0.03685
498.87830 0.03669
497.59254 0.03645
496.30677 0.03610
495.02100 0.03568
493.73523 0.03530
492.44946 0.03507
491.16369 0.03504
489.87792 0.03512
488.59215 0.03522
487.30639 0.03527
486.02062 0.03525
484.73485 0.03522
483.44908 0.03522
482.16331 0.03528
480.87754 0.03542
479.59177 0.03564
478.30600 0.03594
477.02023 0.03631
475.73447 0.03674
474.44870 0.03723
473.16293 0.03770
471.87716 0.03807
470.59139 0.03826
469.30562 0.03828
468.01985 0.03818
466.73408 0.03802
465.44832 0.03781
464.16255 0.03749
462.87678 0.03711
461.59101 0.03673
460.30524 0.03642
459.01947 0.03619
457.73370 0.03601
456.44793 0.03583
455.16216 0.03559
453.87640 0.03528
452.59063 0.03498
451.30486 0.03477
450.01909 0.03462
448.73332 0.03445
447.44755 0.03422
446.16178 0.03395
444.87601 0.03372
443.59025 0.03355
442.30448 0.03345
441.01871 0.03340
439.73294 0.03339
438.44717 0.03340
437.16140 0.03338
435.87563 0.03332
434.58986 0.03321
433.30409 0.03309
432.01833 0.03296
430.73256 0.03284
429.44679 0.03270
428.16102 0.03253
426.87525 0.03234
425.58948 0.03213
424.30371 0.03192
423.01794 0.03173
421.73218 0.03158
420.44641 0.03145
419.16064 0.03132
417.87487 0.03113
416.58910 0.03081
415.30333 0.03040
414.01756 0.02994
412.73179 0.02951
411.44602 0.02909
410.16026 0.02870
408.87449 0.02836
407.58872 0.02811
406.30295 0.02797
405.01718 0.02797
403.73141 0.02815
402.44564 0.02849
401.15987 0.02894
399.87411 0.02940
