3997.45528	0.02149
3996.16951	0.02121
3994.88374	0.02082
3993.59798	0.02041
3992.31221	0.02019
3991.02644	0.02016
3989.74067	0.02013
3988.45490	0.01994
3987.16913	0.01975
3985.88336	0.01982
3984.59759	0.02018
3983.31183	0.02055
3982.02606	0.02076
3980.74029	0.02106
3979.45452	0.02183
3978.16875	0.02304
3976.88298	0.02414
3975.59721	0.02440
3974.31144	0.02346
3973.02567	0.02154
3971.73991	0.01951
3970.45414	0.01831
3969.16837	0.01834
3967.88260	0.01916
3966.59683	0.01998
3965.31106	0.02035
3964.02529	0.02047
3962.73952	0.02073
3961.45376	0.02118
3960.16799	0.02148
3958.88222	0.02133
3957.59645	0.02093
3956.31068	0.02084
3955.02491	0.02132
3953.73914	0.02202
3952.45337	0.02242
3951.16760	0.02236
3949.88184	0.02212
3948.59607	0.02187
3947.31030	0.02138
3946.02453	0.02048
3944.73876	0.01952
3943.45299	0.01937
3942.16722	0.02051
3940.88145	0.02242
3939.59569	0.02394
3938.30992	0.02428
3937.02415	0.02367
3935.73838	0.02290
3934.45261	0.02257
3933.16684	0.02282
3931.88107	0.02348
3930.59530	0.02425
3929.30953	0.02479
3928.02377	0.02478
3926.73800	0.02417
3925.45223	0.02324
3924.16646	0.02250
3922.88069	0.02230
3921.59492	0.02272
3920.30915	0.02346
3919.02338	0.02415
3917.73762	0.02454
3916.45185	0.02454
3915.16608	0.02407
3913.88031	0.02307
3912.59454	0.02173
3911.30877	0.02056
3910.02300	0.02001
3908.73723	0.02007
3907.45146	0.02038
3906.16570	0.02045
3904.87993	0.02011
3903.59416	0.01957
3902.30839	0.01923
3901.02262	0.01936
3899.73685	0.01992
3898.45108	0.02068
3897.16531	0.02131
3895.87955	0.02148
3894.59378	0.02087
3893.30801	0.01942
3892.02224	0.01757
3890.73647	0.01610
3889.45070	0.01562
3888.16493	0.01614
3886.87916	0.01726
3885.59339	0.01842
3884.30763	0.01903
3883.02186	0.01883
3881.73609	0.01830
3880.45032	0.01823
3879.16455	0.01891
3877.87878	0.01986
3876.59301	0.02050
3875.30724	0.02081
3874.02148	0.02117
3872.73571	0.02181
3871.44994	0.02252
3870.16417	0.02291
3868.87840	0.02265
3867.59263	0.02153
3866.30686	0.01984
3865.02109	0.01836
3863.73532	0.01782
3862.44956	0.01836
3861.16379	0.01954
3859.87802	0.02070
3858.59225	0.02142
3857.30648	0.02173
3856.02071	0.02190
3854.73494	0.02200
3853.44917	0.02189
3852.16341	0.02147
3850.87764	0.02104
3849.59187	0.02108
3848.30610	0.02171
3847.02033	0.02240
3845.73456	0.02244
3844.44879	0.02163
3843.16302	0.02036
3841.87725	0.01925
3840.59149	0.01866
3839.30572	0.01854
3838.01995	0.01866
3836.73418	0.01884
3835.44841	0.01891
3834.16264	0.01890
3832.87687	0.01897
3831.59110	0.01930
3830.30534	0.01982
3829.01957	0.02038
3827.73380	0.02100
3826.44803	0.02182
3825.16226	0.02271
3823.87649	0.02320
3822.59072	0.02296
3821.30495	0.02222
3820.01918	0.02147
3818.73342	0.02092
3817.44765	0.02057
3816.16188	0.02054
3814.87611	0.02085
3813.59034	0.02122
3812.30457	0.02136
3811.01880	0.02109
3809.73303	0.02039
3808.44726	0.01952
3807.16150	0.01915
3805.87573	0.01977
3804.58996	0.02106
3803.30419	0.02205
3802.01842	0.02216
3800.73265	0.02152
3799.44688	0.02058
3798.16111	0.01977
3796.87535	0.01932
3795.58958	0.01929
3794.30381	0.01950
3793.01804	0.01986
3791.73227	0.02038
3790.44650	0.02109
3789.16073	0.02187
3787.87496	0.02250
3786.58919	0.02272
3785.30343	0.02239
3784.01766	0.02160
3782.73189	0.02065
3781.44612	0.01992
3780.16035	0.01967
3778.87458	0.01983
3777.58881	0.02010
3776.30304	0.02014
3775.01728	0.01987
3773.73151	0.01939
3772.44574	0.01893
3771.15997	0.01886
3769.87420	0.01939
3768.58843	0.02032
3767.30266	0.02109
3766.01689	0.02141
3764.73112	0.02135
3763.44536	0.02108
3762.15959	0.02061
3760.87382	0.01992
3759.58805	0.01909
3758.30228	0.01827
3757.01651	0.01766
3755.73074	0.01743
3754.44497	0.01758
3753.15921	0.01802
3751.87344	0.01862
3750.58767	0.01917
3749.30190	0.01950
3748.01613	0.01950
3746.73036	0.01904
3745.44459	0.01827
3744.15882	0.01775
3742.87305	0.01785
3741.58729	0.01847
3740.30152	0.01927
3739.01575	0.01988
3737.72998	0.02001
3736.44421	0.01978
3735.15844	0.01957
3733.87267	0.01958
3732.58690	0.01979
3731.30114	0.02017
3730.01537	0.02067
3728.72960	0.02108
3727.44383	0.02111
3726.15806	0.02061
3724.87229	0.01976
3723.58652	0.01894
3722.30075	0.01842
3721.01498	0.01817
3719.72922	0.01793
3718.44345	0.01761
3717.15768	0.01740
3715.87191	0.01754
3714.58614	0.01808
3713.30037	0.01887
3712.01460	0.01966
3710.72883	0.02013
3709.44307	0.02007
3708.15730	0.01964
3706.87153	0.01922
3705.58576	0.01890
3704.29999	0.01843
3703.01422	0.01764
3701.72845	0.01681
3700.44268	0.01640
3699.15691	0.01656
3697.87115	0.01705
3696.58538	0.01763
3695.29961	0.01828
3694.01384	0.01898
3692.72807	0.01967
3691.44230	0.02025
3690.15653	0.02067
3688.87076	0.02091
3687.58500	0.02080
3686.29923	0.02011
3685.01346	0.01890
3683.72769	0.01773
3682.44192	0.01708
3681.15615	0.01695
3679.87038	0.01707
3678.58461	0.01738
3677.29884	0.01813
3676.01308	0.01963
3674.72731	0.02172
3673.44154	0.02364
3672.15577	0.02448
3670.87000	0.02405
3669.58423	0.02288
3668.29846	0.02171
3667.01269	0.02097
3665.72693	0.02062
3664.44116	0.02026
3663.15539	0.01972
3661.86962	0.01929
3660.58385	0.01928
3659.29808	0.01944
3658.01231	0.01930
3656.72654	0.01881
3655.44077	0.01835
3654.15501	0.01815
3652.86924	0.01807
3651.58347	0.01800
3650.29770	0.01813
3649.01193	0.01861
3647.72616	0.01932
3646.44039	0.02002
3645.15462	0.02062
3643.86886	0.02123
3642.58309	0.02187
3641.29732	0.02235
3640.01155	0.02242
3638.72578	0.02192
3637.44001	0.02093
3636.15424	0.01984
3634.86847	0.01933
3633.58270	0.01983
3632.29694	0.02105
3631.01117	0.02214
3629.72540	0.02250
3628.43963	0.02217
3627.15386	0.02149
3625.86809	0.02083
3624.58232	0.02052
3623.29655	0.02075
3622.01079	0.02142
3620.72502	0.02228
3619.43925	0.02312
3618.15348	0.02382
3616.86771	0.02426
3615.58194	0.02434
3614.29617	0.02408
3613.01040	0.02365
3611.72463	0.02337
3610.43887	0.02360
3609.15310	0.02438
3607.86733	0.02523
3606.58156	0.02535
3605.29579	0.02452
3604.01002	0.02343
3602.72425	0.02302
3601.43848	0.02352
3600.15272	0.02434
3598.86695	0.02478
3597.58118	0.02458
3596.29541	0.02410
3595.00964	0.02396
3593.72387	0.02458
3592.43810	0.02579
3591.15233	0.02694
3589.86656	0.02753
3588.58080	0.02757
3587.29503	0.02737
3586.00926	0.02708
3584.72349	0.02671
3583.43772	0.02624
3582.15195	0.02569
3580.86618	0.02503
3579.58041	0.02439
3578.29464	0.02410
3577.00888	0.02446
3575.72311	0.02538
3574.43734	0.02647
3573.15157	0.02736
3571.86580	0.02794
3570.58003	0.02829
3569.29426	0.02845
3568.00849	0.02857
3566.72273	0.02886
3565.43696	0.02943
3564.15119	0.03001
3562.86542	0.03020
3561.57965	0.02982
3560.29388	0.02911
3559.00811	0.02847
3557.72234	0.02821
3556.43657	0.02840
3555.15081	0.02887
3553.86504	0.02916
3552.57927	0.02884
3551.29350	0.02793
3550.00773	0.02706
3548.72196	0.02693
3547.43619	0.02765
3546.15042	0.02864
3544.86466	0.02923
3543.57889	0.02921
3542.29312	0.02880
3541.00735	0.02840
3539.72158	0.02831
3538.43581	0.02866
3537.15004	0.02938
3535.86427	0.03021
3534.57850	0.03085
3533.29274	0.03115
3532.00697	0.03123
3530.72120	0.03128
3529.43543	0.03140
3528.14966	0.03157
3526.86389	0.03180
3525.57812	0.03219
3524.29235	0.03271
3523.00659	0.03312
3521.72082	0.03322
3520.43505	0.03305
3519.14928	0.03291
3517.86351	0.03298
3516.57774	0.03322
3515.29197	0.03346
3514.00620	0.03362
3512.72043	0.03375
3511.43467	0.03386
3510.14890	0.03395
3508.86313	0.03395
3507.57736	0.03377
3506.29159	0.03330
3505.00582	0.03257
3503.72005	0.03188
3502.43428	0.03169
3501.14852	0.03225
3499.86275	0.03333
3498.57698	0.03429
3497.29121	0.03460
3496.00544	0.03418
3494.71967	0.03339
3493.43390	0.03265
3492.14813	0.03230
3490.86236	0.03258
3489.57660	0.03348
3488.29083	0.03452
3487.00506	0.03513
3485.71929	0.03512
3484.43352	0.03473
3483.14775	0.03429
3481.86198	0.03397
3480.57621	0.03381
3479.29045	0.03383
3478.00468	0.03402
3476.71891	0.03429
3475.43314	0.03462
3474.14737	0.03500
3472.86160	0.03534
3471.57583	0.03549
3470.29006	0.03545
3469.00429	0.03541
3467.71853	0.03563
3466.43276	0.03623
3465.14699	0.03706
3463.86122	0.03773
3462.57545	0.03793
3461.28968	0.03761
3460.00391	0.03703
3458.71814	0.03649
3457.43238	0.03602
3456.14661	0.03551
3454.86084	0.03506
3453.57507	0.03494
3452.28930	0.03524
3451.00353	0.03569
3449.71776	0.03597
3448.43199	0.03607
3447.14622	0.03617
3445.86046	0.03632
3444.57469	0.03646
3443.28892	0.03668
3442.00315	0.03708
3440.71738	0.03760
3439.43161	0.03797
3438.14584	0.03798
3436.86007	0.03782
3435.57431	0.03782
3434.28854	0.03821
3433.00277	0.03887
3431.71700	0.03949
3430.43123	0.03979
3429.14546	0.03968
3427.85969	0.03929
3426.57392	0.03882
3425.28815	0.03837
3424.00239	0.03790
3422.71662	0.03743
3421.43085	0.03715
3420.14508	0.03729
3418.85931	0.03779
3417.57354	0.03830
3416.28777	0.03840
3415.00200	0.03801
3413.71624	0.03743
3412.43047	0.03711
3411.14470	0.03728
3409.85893	0.03791
3408.57316	0.03876
3407.28739	0.03948
3406.00162	0.03977
3404.71585	0.03966
3403.43008	0.03946
3402.14432	0.03939
3400.85855	0.03940
3399.57278	0.03932
3398.28701	0.03923
3397.00124	0.03924
3395.71547	0.03933
3394.42970	0.03930
3393.14393	0.03899
3391.85817	0.03860
3390.57240	0.03860
3389.28663	0.03921
3388.00086	0.04008
3386.71509	0.04054
3385.42932	0.04035
3384.14355	0.03999
3382.85778	0.04005
3381.57201	0.04055
3380.28625	0.04105
3379.00048	0.04114
3377.71471	0.04084
3376.42894	0.04040
3375.14317	0.04001
3373.85740	0.03975
3372.57163	0.03962
3371.28586	0.03962
3370.00010	0.03966
3368.71433	0.03958
3367.42856	0.03931
3366.14279	0.03900
3364.85702	0.03894
3363.57125	0.03928
3362.28548	0.03991
3360.99971	0.04061
3359.71394	0.04115
3358.42818	0.04145
3357.14241	0.04144
3355.85664	0.04107
3354.57087	0.04043
3353.28510	0.03975
3351.99933	0.03927
3350.71356	0.03914
3349.42779	0.03930
3348.14202	0.03963
3346.85626	0.04001
3345.57049	0.04034
3344.28472	0.04053
3342.99895	0.04061
3341.71318	0.04077
3340.42741	0.04105
3339.14164	0.04119
3337.85587	0.04085
3336.57011	0.04009
3335.28434	0.03949
3333.99857	0.03952
3332.71280	0.04014
3331.42703	0.04081
3330.14126	0.04098
3328.85549	0.04056
3327.56972	0.03989
3326.28395	0.03937
3324.99819	0.03916
3323.71242	0.03921
3322.42665	0.03951
3321.14088	0.04005
3319.85511	0.04063
3318.56934	0.04094
3317.28357	0.04078
3315.99780	0.04027
3314.71204	0.03969
3313.42627	0.03926
3312.14050	0.03895
3310.85473	0.03869
3309.56896	0.03851
3308.28319	0.03849
3306.99742	0.03866
3305.71165	0.03895
3304.42588	0.03934
3303.14012	0.03982
3301.85435	0.04021
3300.56858	0.04027
3299.28281	0.03999
3297.99704	0.03961
3296.71127	0.03925
3295.42550	0.03877
3294.13973	0.03812
3292.85397	0.03761
3291.56820	0.03770
3290.28243	0.03846
3288.99666	0.03946
3287.71089	0.04013
3286.42512	0.04028
3285.13935	0.04005
3283.85358	0.03966
3282.56781	0.03921
3281.28205	0.03876
3279.99628	0.03852
3278.71051	0.03872
3277.42474	0.03931
3276.13897	0.03997
3274.85320	0.04030
3273.56743	0.04023
3272.28166	0.03999
3270.99590	0.03982
3269.71013	0.03973
3268.42436	0.03966
3267.13859	0.03956
3265.85282	0.03948
3264.56705	0.03939
3263.28128	0.03919
3261.99551	0.03879
3260.70974	0.03833
3259.42398	0.03804
3258.13821	0.03811
3256.85244	0.03851
3255.56667	0.03908
3254.28090	0.03956
3252.99513	0.03967
3251.70936	0.03930
3250.42359	0.03867
3249.13783	0.03822
3247.85206	0.03826
3246.56629	0.03871
3245.28052	0.03917
3243.99475	0.03926
3242.70898	0.03897
3241.42321	0.03864
3240.13744	0.03860
3238.85167	0.03886
3237.56591	0.03907
3236.28014	0.03900
3234.99437	0.03873
3233.70860	0.03849
3232.42283	0.03837
3231.13706	0.03829
3229.85129	0.03820
3228.56552	0.03807
3227.27976	0.03791
3225.99399	0.03774
3224.70822	0.03769
3223.42245	0.03782
3222.13668	0.03809
3220.85091	0.03831
3219.56514	0.03826
3218.27937	0.03785
3216.99360	0.03727
3215.70784	0.03688
3214.42207	0.03692
3213.13630	0.03735
3211.85053	0.03796
3210.56476	0.03854
3209.27899	0.03898
3207.99322	0.03923
3206.70745	0.03924
3205.42169	0.03900
3204.13592	0.03856
3202.85015	0.03804
3201.56438	0.03761
3200.27861	0.03741
3198.99284	0.03735
3197.70707	0.03721
3196.42130	0.03685
3195.13553	0.03639
3193.84977	0.03606
3192.56400	0.03597
3191.27823	0.03611
3189.99246	0.03639
3188.70669	0.03671
3187.42092	0.03695
3186.13515	0.03705
3184.84938	0.03703
3183.56362	0.03691
3182.27785	0.03668
3180.99208	0.03642
3179.70631	0.03629
3178.42054	0.03640
3177.13477	0.03666
3175.84900	0.03689
3174.56323	0.03698
3173.27746	0.03695
3171.99170	0.03679
3170.70593	0.03644
3169.42016	0.03593
3168.13439	0.03551
3166.84862	0.03550
3165.56285	0.03596
3164.27708	0.03661
3162.99131	0.03702
3161.70555	0.03695
3160.41978	0.03654
3159.13401	0.03612
3157.84824	0.03587
3156.56247	0.03582
3155.27670	0.03590
3153.99093	0.03604
3152.70516	0.03612
3151.41939	0.03603
3150.13363	0.03575
3148.84786	0.03545
3147.56209	0.03527
3146.27632	0.03524
3144.99055	0.03526
3143.70478	0.03514
3142.41901	0.03478
3141.13324	0.03427
3139.84748	0.03390
3138.56171	0.03386
3137.27594	0.03408
3135.99017	0.03436
3134.70440	0.03457
3133.41863	0.03475
3132.13286	0.03498
3130.84709	0.03530
3129.56132	0.03565
3128.27556	0.03586
3126.98979	0.03578
3125.70402	0.03545
3124.41825	0.03506
3123.13248	0.03478
3121.84671	0.03457
3120.56094	0.03428
3119.27517	0.03383
3117.98940	0.03331
3116.70364	0.03290
3115.41787	0.03280
3114.13210	0.03308
3112.84633	0.03369
3111.56056	0.03441
3110.27479	0.03500
3108.98902	0.03525
3107.70325	0.03505
3106.41749	0.03442
3105.13172	0.03364
3103.84595	0.03308
3102.56018	0.03288
3101.27441	0.03287
3099.98864	0.03275
3098.70287	0.03247
3097.41710	0.03219
3096.13133	0.03200
3094.84557	0.03188
3093.55980	0.03176
3092.27403	0.03168
3090.98826	0.03176
3089.70249	0.03207
3088.41672	0.03248
3087.13095	0.03279
3085.84518	0.03284
3084.55942	0.03268
3083.27365	0.03245
3081.98788	0.03231
3080.70211	0.03230
3079.41634	0.03241
3078.13057	0.03257
3076.84480	0.03276
3075.55903	0.03294
3074.27326	0.03297
3072.98750	0.03269
3071.70173	0.03215
3070.41596	0.03163
3069.13019	0.03140
3067.84442	0.03147
3066.55865	0.03160
3065.27288	0.03161
3063.98711	0.03152
3062.70135	0.03143
3061.41558	0.03140
3060.12981	0.03137
3058.84404	0.03128
3057.55827	0.03113
3056.27250	0.03091
3054.98673	0.03068
3053.70096	0.03052
3052.41519	0.03049
3051.12943	0.03063
3049.84366	0.03093
3048.55789	0.03135
3047.27212	0.03181
3045.98635	0.03211
3044.70058	0.03207
3043.41481	0.03174
3042.12904	0.03138
3040.84328	0.03121
3039.55751	0.03128
3038.27174	0.03151
3036.98597	0.03179
3035.70020	0.03203
3034.41443	0.03204
3033.12866	0.03170
3031.84289	0.03116
3030.55712	0.03078
3029.27136	0.03078
3027.98559	0.03094
3026.69982	0.03088
3025.41405	0.03051
3024.12828	0.03006
3022.84251	0.02983
3021.55674	0.02986
3020.27097	0.02996
3018.98521	0.02995
3017.69944	0.02983
3016.41367	0.02967
3015.12790	0.02950
3013.84213	0.02931
3012.55636	0.02920
3011.27059	0.02928
3009.98482	0.02953
3008.69905	0.02986
3007.41329	0.03008
3006.12752	0.03009
3004.84175	0.02989
3003.55598	0.02957
3002.27021	0.02924
3000.98444	0.02893
2999.69867	0.02862
2998.41290	0.02832
2997.12714	0.02805
2995.84137	0.02794
2994.55560	0.02806
2993.26983	0.02835
2991.98406	0.02870
2990.69829	0.02904
2989.41252	0.02932
2988.12675	0.02946
2986.84098	0.02945
2985.55522	0.02945
2984.26945	0.02964
2982.98368	0.03004
2981.69791	0.03044
2980.41214	0.03065
2979.12637	0.03063
2977.84060	0.03044
2976.55483	0.03024
2975.26907	0.03016
2973.98330	0.03034
2972.69753	0.03081
2971.41176	0.03157
2970.12599	0.03246
2968.84022	0.03324
2967.55445	0.03376
2966.26868	0.03412
2964.98291	0.03458
2963.69715	0.03528
2962.41138	0.03605
2961.12561	0.03661
2959.83984	0.03683
2958.55407	0.03688
2957.26830	0.03697
2955.98253	0.03712
2954.69676	0.03717
2953.41100	0.03705
2952.12523	0.03688
2950.83946	0.03672
2949.55369	0.03656
2948.26792	0.03644
2946.98215	0.03651
2945.69638	0.03682
2944.41061	0.03719
2943.12484	0.03738
2941.83908	0.03737
2940.55331	0.03735
2939.26754	0.03749
2937.98177	0.03782
2936.69600	0.03830
2935.41023	0.03877
2934.12446	0.03911
2932.83869	0.03927
2931.55293	0.03939
2930.26716	0.03965
2928.98139	0.04013
2927.69562	0.04069
2926.40985	0.04109
2925.12408	0.04125
2923.83831	0.04114
2922.55254	0.04077
2921.26677	0.04021
2919.98101	0.03969
2918.69524	0.03946
2917.40947	0.03954
2916.12370	0.03967
2914.83793	0.03963
2913.55216	0.03943
2912.26639	0.03920
2910.98062	0.03897
2909.69486	0.03858
2908.40909	0.03788
2907.12332	0.03700
2905.83755	0.03619
2904.55178	0.03563
2903.26601	0.03532
2901.98024	0.03519
2900.69447	0.03520
2899.40870	0.03533
2898.12294	0.03542
2896.83717	0.03529
2895.55140	0.03496
2894.26563	0.03464
2892.97986	0.03446
2891.69409	0.03436
2890.40832	0.03411
2889.12255	0.03357
2887.83678	0.03277
2886.55102	0.03197
2885.26525	0.03149
2883.97948	0.03149
2882.69371	0.03180
2881.40794	0.03210
2880.12217	0.03221
2878.83640	0.03221
2877.55063	0.03226
2876.26487	0.03242
2874.97910	0.03261
2873.69333	0.03272
2872.40756	0.03267
2871.12179	0.03248
2869.83602	0.03223
2868.55025	0.03202
2867.26448	0.03196
2865.97871	0.03211
2864.69295	0.03244
2863.40718	0.03280
2862.12141	0.03294
2860.83564	0.03279
2859.54987	0.03255
2858.26410	0.03242
2856.97833	0.03240
2855.69256	0.03231
2854.40680	0.03204
2853.12103	0.03168
2851.83526	0.03138
2850.54949	0.03122
2849.26372	0.03113
2847.97795	0.03099
2846.69218	0.03075
2845.40641	0.03043
2844.12064	0.03009
2842.83488	0.02972
2841.54911	0.02926
2840.26334	0.02868
2838.97757	0.02806
2837.69180	0.02753
2836.40603	0.02724
2835.12026	0.02722
2833.83449	0.02733
2832.54873	0.02733
2831.26296	0.02709
2829.97719	0.02674
2828.69142	0.02647
2827.40565	0.02636
2826.11988	0.02628
2824.83411	0.02609
2823.54834	0.02578
2822.26257	0.02546
2820.97681	0.02519
2819.69104	0.02497
2818.40527	0.02477
2817.11950	0.02459
2815.83373	0.02449
2814.54796	0.02455
2813.26219	0.02469
2811.97642	0.02476
2810.69066	0.02460
2809.40489	0.02429
2808.11912	0.02401
2806.83335	0.02390
2805.54758	0.02391
2804.26181	0.02392
2802.97604	0.02390
2801.69027	0.02388
2800.40450	0.02391
2799.11874	0.02396
2797.83297	0.02393
2796.54720	0.02379
2795.26143	0.02361
2793.97566	0.02348
2792.68989	0.02343
2791.40412	0.02341
2790.11835	0.02328
2788.83259	0.02299
2787.54682	0.02267
2786.26105	0.02252
2784.97528	0.02266
2783.68951	0.02301
2782.40374	0.02335
2781.11797	0.02347
2779.83220	0.02335
2778.54643	0.02307
2777.26067	0.02276
2775.97490	0.02246
2774.68913	0.02223
2773.40336	0.02213
2772.11759	0.02217
2770.83182	0.02230
2769.54605	0.02242
2768.26028	0.02249
2766.97452	0.02257
2765.68875	0.02268
2764.40298	0.02277
2763.11721	0.02277
2761.83144	0.02267
2760.54567	0.02255
2759.25990	0.02249
2757.97413	0.02250
2756.68836	0.02260
2755.40260	0.02271
2754.11683	0.02275
2752.83106	0.02265
2751.54529	0.02246
2750.25952	0.02233
2748.97375	0.02233
2747.68798	0.02238
2746.40221	0.02236
2745.11645	0.02223
2743.83068	0.02212
2742.54491	0.02219
2741.25914	0.02245
2739.97337	0.02273
2738.68760	0.02284
2737.40183	0.02272
2736.11606	0.02243
2734.83029	0.02209
2733.54453	0.02179
2732.25876	0.02157
2730.97299	0.02142
2729.68722	0.02141
2728.40145	0.02153
2727.11568	0.02171
2725.82991	0.02173
2724.54414	0.02144
2723.25838	0.02101
2721.97261	0.02074
2720.68684	0.02081
2719.40107	0.02111
2718.11530	0.02134
2716.82953	0.02132
2715.54376	0.02110
2714.25799	0.02089
2712.97222	0.02081
2711.68646	0.02086
2710.40069	0.02097
2709.11492	0.02103
2707.82915	0.02095
2706.54338	0.02072
2705.25761	0.02045
2703.97184	0.02030
2702.68607	0.02033
2701.40031	0.02039
2700.11454	0.02037
2698.82877	0.02025
2697.54300	0.02017
2696.25723	0.02022
2694.97146	0.02042
2693.68569	0.02065
2692.39992	0.02084
2691.11415	0.02092
2689.82839	0.02084
2688.54262	0.02057
2687.25685	0.02020
2685.97108	0.01992
2684.68531	0.01986
2683.39954	0.01998
2682.11377	0.02011
2680.82800	0.02014
2679.54224	0.02010
2678.25647	0.02009
2676.97070	0.02016
2675.68493	0.02026
2674.39916	0.02028
2673.11339	0.02016
2671.82762	0.02001
2670.54185	0.02000
2669.25608	0.02017
2667.97032	0.02044
2666.68455	0.02071
2665.39878	0.02093
2664.11301	0.02102
2662.82724	0.02090
2661.54147	0.02062
2660.25570	0.02030
2658.96993	0.02008
2657.68417	0.01999
2656.39840	0.01999
2655.11263	0.02001
2653.82686	0.01994
2652.54109	0.01971
2651.25532	0.01942
2649.96955	0.01928
2648.68378	0.01935
2647.39801	0.01946
2646.11225	0.01947
2644.82648	0.01939
2643.54071	0.01930
2642.25494	0.01924
2640.96917	0.01924
2639.68340	0.01930
2638.39763	0.01937
2637.11186	0.01935
2635.82609	0.01923
2634.54033	0.01904
2633.25456	0.01879
2631.96879	0.01842
2630.68302	0.01793
2629.39725	0.01744
2628.11148	0.01712
2626.82571	0.01701
2625.53994	0.01709
2624.25418	0.01736
2622.96841	0.01780
2621.68264	0.01823
2620.39687	0.01836
2619.11110	0.01803
2617.82533	0.01745
2616.53956	0.01695
2615.25379	0.01675
2613.96802	0.01675
2612.68226	0.01678
2611.39649	0.01676
2610.11072	0.01667
2608.82495	0.01648
2607.53918	0.01619
2606.25341	0.01586
2604.96764	0.01553
2603.68187	0.01526
2602.39611	0.01522
2601.11034	0.01555
2599.82457	0.01619
2598.53880	0.01681
2597.25303	0.01713
2595.96726	0.01706
2594.68149	0.01673
2593.39572	0.01632
2592.10995	0.01590
2590.82419	0.01552
2589.53842	0.01526
2588.25265	0.01524
2586.96688	0.01542
2585.68111	0.01554
2584.39534	0.01547
2583.10957	0.01530
2581.82380	0.01520
2580.53804	0.01522
2579.25227	0.01527
2577.96650	0.01520
2576.68073	0.01500
2575.39496	0.01482
2574.10919	0.01482
2572.82342	0.01498
2571.53765	0.01511
2570.25188	0.01513
2568.96612	0.01509
2567.68035	0.01508
2566.39458	0.01510
2565.10881	0.01516
2563.82304	0.01524
2562.53727	0.01523
2561.25150	0.01500
2559.96573	0.01459
2558.67997	0.01416
2557.39420	0.01381
2556.10843	0.01360
2554.82266	0.01358
2553.53689	0.01383
2552.25112	0.01428
2550.96535	0.01475
2549.67958	0.01505
2548.39381	0.01518
2547.10805	0.01534
2545.82228	0.01563
2544.53651	0.01585
2543.25074	0.01567
2541.96497	0.01503
2540.67920	0.01425
2539.39343	0.01377
2538.10766	0.01370
2536.82190	0.01387
2535.53613	0.01406
2534.25036	0.01415
2532.96459	0.01416
2531.67882	0.01419
2530.39305	0.01439
2529.10728	0.01480
2527.82151	0.01525
2526.53574	0.01548
2525.24998	0.01543
2523.96421	0.01522
2522.67844	0.01499
2521.39267	0.01487
2520.10690	0.01492
2518.82113	0.01510
2517.53536	0.01516
2516.24959	0.01486
2514.96383	0.01420
2513.67806	0.01341
2512.39229	0.01282
2511.10652	0.01263
2509.82075	0.01287
2508.53498	0.01336
2507.24921	0.01389
2505.96344	0.01427
2504.67767	0.01445
2503.39191	0.01442
2502.10614	0.01423
2500.82037	0.01399
2499.53460	0.01381
2498.24883	0.01377
2496.96306	0.01390
2495.67729	0.01417
2494.39152	0.01448
2493.10576	0.01460
2491.81999	0.01441
2490.53422	0.01408
2489.24845	0.01397
2487.96268	0.01423
2486.67691	0.01464
2485.39114	0.01481
2484.10537	0.01468
2482.81960	0.01447
2481.53384	0.01440
2480.24807	0.01432
2478.96230	0.01400
2477.67653	0.01349
2476.39076	0.01306
2475.10499	0.01293
2473.81922	0.01307
2472.53345	0.01335
2471.24769	0.01360
2469.96192	0.01368
2468.67615	0.01353
2467.39038	0.01322
2466.10461	0.01292
2464.81884	0.01281
2463.53307	0.01297
2462.24730	0.01335
2460.96153	0.01377
2459.67577	0.01402
2458.39000	0.01396
2457.10423	0.01371
2455.81846	0.01349
2454.53269	0.01346
2453.24692	0.01347
2451.96115	0.01327
2450.67538	0.01289
2449.38962	0.01264
2448.10385	0.01276
2446.81808	0.01314
2445.53231	0.01345
2444.24654	0.01354
2442.96077	0.01350
2441.67500	0.01341
2440.38923	0.01326
2439.10346	0.01301
2437.81770	0.01275
2436.53193	0.01260
2435.24616	0.01255
2433.96039	0.01247
2432.67462	0.01231
2431.38885	0.01219
2430.10308	0.01227
2428.81731	0.01254
2427.53155	0.01277
2426.24578	0.01279
2424.96001	0.01266
2423.67424	0.01257
2422.38847	0.01264
2421.10270	0.01281
2419.81693	0.01293
2418.53116	0.01297
2417.24539	0.01304
2415.95963	0.01322
2414.67386	0.01349
2413.38809	0.01370
2412.10232	0.01372
2410.81655	0.01357
2409.53078	0.01336
2408.24501	0.01318
2406.95924	0.01303
2405.67347	0.01283
2404.38771	0.01268
2403.10194	0.01281
2401.81617	0.01333
2400.53040	0.01402
2399.24463	0.01441
2397.95886	0.01433
2396.67309	0.01386
2395.38732	0.01331
2394.10156	0.01298
2392.81579	0.01289
2391.53002	0.01289
2390.24425	0.01286
2388.95848	0.01283
2387.67271	0.01296
2386.38694	0.01330
2385.10117	0.01374
2383.81540	0.01404
2382.52964	0.01402
2381.24387	0.01371
2379.95810	0.01331
2378.67233	0.01301
2377.38656	0.01288
2376.10079	0.01294
2374.81502	0.01317
2373.52925	0.01351
2372.24349	0.01392
2370.95772	0.01435
2369.67195	0.01476
2368.38618	0.01509
2367.10041	0.01528
2365.81464	0.01532
2364.52887	0.01529
2363.24310	0.01524
2361.95733	0.01521
2360.67157	0.01521
2359.38580	0.01529
2358.10003	0.01544
2356.81426	0.01555
2355.52849	0.01551
2354.24272	0.01534
2352.95695	0.01509
2351.67118	0.01480
2350.38542	0.01452
2349.09965	0.01434
2347.81388	0.01436
2346.52811	0.01460
2345.24234	0.01496
2343.95657	0.01531
2342.67080	0.01556
2341.38503	0.01563
2340.09926	0.01542
2338.81350	0.01498
2337.52773	0.01447
2336.24196	0.01411
2334.95619	0.01402
2333.67042	0.01419
2332.38465	0.01447
2331.09888	0.01471
2329.81311	0.01481
2328.52735	0.01485
2327.24158	0.01496
2325.95581	0.01518
2324.67004	0.01539
2323.38427	0.01544
2322.09850	0.01527
2320.81273	0.01498
2319.52696	0.01483
2318.24119	0.01498
2316.95543	0.01537
2315.66966	0.01569
2314.38389	0.01566
2313.09812	0.01531
2311.81235	0.01483
2310.52658	0.01436
2309.24081	0.01384
2307.95504	0.01325
2306.66928	0.01270
2305.38351	0.01239
2304.09774	0.01236
2302.81197	0.01253
2301.52620	0.01282
2300.24043	0.01319
2298.95466	0.01356
2297.66889	0.01386
2296.38312	0.01399
2295.09736	0.01398
2293.81159	0.01384
2292.52582	0.01363
2291.24005	0.01341
2289.95428	0.01327
2288.66851	0.01319
2287.38274	0.01309
2286.09697	0.01289
2284.81121	0.01256
2283.52544	0.01220
2282.23967	0.01197
2280.95390	0.01198
2279.66813	0.01213
2278.38236	0.01218
2277.09659	0.01192
2275.81082	0.01134
2274.52505	0.01065
2273.23929	0.01013
2271.95352	0.00995
2270.66775	0.01002
2269.38198	0.01013
2268.09621	0.01019
2266.81044	0.01025
2265.52467	0.01043
2264.23890	0.01074
2262.95314	0.01096
2261.66737	0.01085
2260.38160	0.01032
2259.09583	0.00953
2257.81006	0.00875
2256.52429	0.00818
2255.23852	0.00797
2253.95275	0.00816
2252.66698	0.00877
2251.38122	0.00967
2250.09545	0.01059
2248.80968	0.01120
2247.52391	0.01126
2246.23814	0.01066
2244.95237	0.00960
2243.66660	0.00859
2242.38083	0.00809
2241.09507	0.00826
2239.80930	0.00871
2238.52353	0.00890
2237.23776	0.00869
2235.95199	0.00838
2234.66622	0.00832
2233.38045	0.00852
2232.09468	0.00874
2230.80891	0.00879
2229.52315	0.00855
2228.23738	0.00812
2226.95161	0.00775
2225.66584	0.00773
2224.38007	0.00807
2223.09430	0.00856
2221.80853	0.00898
2220.52276	0.00921
2219.23700	0.00907
2217.95123	0.00841
2216.66546	0.00737
2215.37969	0.00647
2214.09392	0.00631
2212.80815	0.00692
2211.52238	0.00762
2210.23661	0.00766
2208.95084	0.00690
2207.66508	0.00597
2206.37931	0.00551
2205.09354	0.00555
2203.80777	0.00562
2202.52200	0.00536
2201.23623	0.00484
2199.95046	0.00431
2198.66469	0.00408
2197.37893	0.00432
2196.09316	0.00483
2194.80739	0.00501
2193.52162	0.00461
2192.23585	0.00427
2190.95008	0.00503
2189.66431	0.00707
2188.37854	0.00929
2187.09277	0.01025
2185.80701	0.00950
2184.52124	0.00772
2183.23547	0.00601
2181.94970	0.00506
2180.66393	0.00497
2179.37816	0.00532
2178.09239	0.00556
2176.80662	0.00541
2175.52085	0.00513
2174.23509	0.00523
2172.94932	0.00574
2171.66355	0.00621
2170.37778	0.00628
2169.09201	0.00601
2167.80624	0.00572
2166.52047	0.00572
2165.23470	0.00616
2163.94894	0.00691
2162.66317	0.00745
2161.37740	0.00711
2160.09163	0.00586
2158.80586	0.00458
2157.52009	0.00427
2156.23432	0.00489
2154.94855	0.00555
2153.66278	0.00554
2152.37702	0.00498
2151.09125	0.00444
2149.80548	0.00413
2148.51971	0.00382
2147.23394	0.00340
2145.94817	0.00317
2144.66240	0.00335
2143.37663	0.00377
2142.09087	0.00420
2140.80510	0.00478
2139.51933	0.00566
2138.23356	0.00655
2136.94779	0.00686
2135.66202	0.00639
2134.37625	0.00569
2133.09048	0.00552
2131.80471	0.00611
2130.51895	0.00702
2129.23318	0.00752
2127.94741	0.00724
2126.66164	0.00646
2125.37587	0.00582
2124.09010	0.00568
2122.80433	0.00587
2121.51856	0.00612
2120.23280	0.00637
2118.94703	0.00675
2117.66126	0.00724
2116.37549	0.00763
2115.08972	0.00770
2113.80395	0.00742
2112.51818	0.00698
2111.23241	0.00668
2109.94664	0.00656
2108.66088	0.00643
2107.37511	0.00614
2106.08934	0.00576
2104.80357	0.00543
2103.51780	0.00522
2102.23203	0.00520
2100.94626	0.00539
2099.66049	0.00620
2098.37473	0.00640
2097.08896	0.00600
2095.80319	0.00547
2094.51742	0.00516
2093.23165	0.00521
2091.94588	0.00550
2090.66011	0.00574
2089.37434	0.00570
2088.08857	0.00541
2086.80281	0.00514
2085.51704	0.00509
2084.23127	0.00525
2082.94550	0.00539
2081.65973	0.00535
2080.37396	0.00505
2079.08819	0.00456
2077.80242	0.00404
2076.51666	0.00366
2075.23089	0.00349
2073.94512	0.00353
2072.65935	0.00376
2071.37358	0.00426
2070.08781	0.00512
2068.80204	0.00612
2067.51627	0.00676
2066.23050	0.00663
2064.94474	0.00583
2063.65897	0.00484
2062.37320	0.00400
2061.08743	0.00326
2059.80166	0.00236
2058.51589	0.00125
2057.23012	0.00020
2055.94435	-0.00037
2054.65859	-0.00017
2053.37282	0.00075
2052.08705	0.00194
2050.80128	0.00285
2049.51551	0.00319
2048.22974	0.00321
2046.94397	0.00338
2045.65820	0.00387
2044.37243	0.00435
2043.08667	0.00442
2041.80090	0.00400
2040.51513	0.00351
2039.22936	0.00346
2037.94359	0.00394
2036.65782	0.00444
2035.37205	0.00427
2034.08628	0.00334
2032.80052	0.00231
2031.51475	0.00196
2030.22898	0.00262
2028.94321	0.00399
2027.65744	0.00543
2026.37167	0.00625
2025.08590	0.00611
2023.80013	0.00521
2022.51436	0.00401
2021.22860	0.00294
2019.94283	0.00219
2018.65706	0.00182
2017.37129	0.00186
2016.08552	0.00233
2014.79975	0.00314
2013.51398	0.00410
2012.22821	0.00492
2010.94245	0.00529
2009.65668	0.00511
2008.37091	0.00454
2007.08514	0.00394
2005.79937	0.00359
2004.51360	0.00348
2003.22783	0.00335
2001.94206	0.00302
2000.65629	0.00262
1999.37053	0.00250
1998.08476	0.00286
1996.79899	0.00359
1995.51322	0.00432
1994.22745	0.00473
1992.94168	0.00469
1991.65591	0.00437
1990.37014	0.00410
1989.08438	0.00407
1987.79861	0.00420
1986.51284	0.00425
1985.22707	0.00423
1983.94130	0.00442
1982.65553	0.00499
1981.36976	0.00574
1980.08399	0.00632
1978.79822	0.00660
1977.51246	0.00662
1976.22669	0.00641
1974.94092	0.00601
1973.65515	0.00559
1972.36938	0.00538
1971.08361	0.00558
1969.79784	0.00614
1968.51207	0.00683
1967.22631	0.00739
1965.94054	0.00773
1964.65477	0.00790
1963.36900	0.00803
1962.08323	0.00815
1960.79746	0.00827
1959.51169	0.00836
1958.22592	0.00831
1956.94015	0.00795
1955.65439	0.00727
1954.36862	0.00649
1953.08285	0.00584
1951.79708	0.00549
1950.51131	0.00544
1949.22554	0.00561
1947.93977	0.00591
1946.65400	0.00626
1945.36823	0.00651
1944.08247	0.00651
1942.79670	0.00627
1941.51093	0.00599
1940.22516	0.00589
1938.93939	0.00593
1937.65362	0.00590
1936.36785	0.00579
1935.08208	0.00590
1933.79632	0.00644
1932.51055	0.00724
1931.22478	0.00789
1929.93901	0.00816
1928.65324	0.00810
1927.36747	0.00791
1926.08170	0.00777
1924.79593	0.00774
1923.51016	0.00781
1922.22440	0.00798
1920.93863	0.00825
1919.65286	0.00861
1918.36709	0.00890
1917.08132	0.00889
1915.79555	0.00845
1914.50978	0.00777
1913.22401	0.00723
1911.93825	0.00710
1910.65248	0.00738
1909.36671	0.00775
1908.08094	0.00796
1906.79517	0.00798
1905.50940	0.00795
1904.22363	0.00790
1902.93786	0.00779
1901.65209	0.00770
1900.36633	0.00782
1899.08056	0.00818
1897.79479	0.00854
1896.50902	0.00858
1895.22325	0.00821
1893.93748	0.00770
1892.65171	0.00738
1891.36594	0.00736
1890.08018	0.00755
1888.79441	0.00779
1887.50864	0.00801
1886.22287	0.00824
1884.93710	0.00847
1883.65133	0.00865
1882.36556	0.00871
1881.07979	0.00863
1879.79402	0.00843
1878.50826	0.00820
1877.22249	0.00808
1875.93672	0.00816
1874.65095	0.00841
1873.36518	0.00872
1872.07941	0.00892
1870.79364	0.00892
1869.50787	0.00877
1868.22211	0.00865
1866.93634	0.00869
1865.65057	0.00887
1864.36480	0.00899
1863.07903	0.00884
1861.79326	0.00844
1860.50749	0.00800
1859.22172	0.00778
1857.93595	0.00784
1856.65019	0.00805
1855.36442	0.00825
1854.07865	0.00841
1852.79288	0.00853
1851.50711	0.00859
1850.22134	0.00854
1848.93557	0.00846
1847.64980	0.00850
1846.36404	0.00865
1845.07827	0.00874
1843.79250	0.00864
1842.50673	0.00846
1841.22096	0.00840
1839.93519	0.00854
1838.64942	0.00879
1837.36365	0.00898
1836.07788	0.00902
1834.79212	0.00899
1833.50635	0.00897
1832.22058	0.00902
1830.93481	0.00910
1829.64904	0.00920
1828.36327	0.00927
1827.07750	0.00933
1825.79173	0.00941
1824.50597	0.00955
1823.22020	0.00974
1821.93443	0.00993
1820.64866	0.01003
1819.36289	0.00998
1818.07712	0.00973
1816.79135	0.00934
1815.50558	0.00898
1814.21981	0.00873
1812.93405	0.00863
1811.64828	0.00862
1810.36251	0.00863
1809.07674	0.00858
1807.79097	0.00849
1806.50520	0.00844
1805.21943	0.00849
1803.93366	0.00864
1802.64790	0.00879
1801.36213	0.00888
1800.07636	0.00893
1798.79059	0.00898
1797.50482	0.00908
1796.21905	0.00922
1794.93328	0.00933
1793.64751	0.00940
1792.36174	0.00941
1791.07598	0.00939
1789.79021	0.00939
1788.50444	0.00942
1787.21867	0.00947
1785.93290	0.00954
1784.64713	0.00961
1783.36136	0.00968
1782.07559	0.00969
1780.78983	0.00963
1779.50406	0.00952
1778.21829	0.00942
1776.93252	0.00941
1775.64675	0.00951
1774.36098	0.00962
1773.07521	0.00968
1771.78944	0.00973
1770.50367	0.00979
1769.21791	0.00982
1767.93214	0.00980
1766.64637	0.00973
1765.36060	0.00964
1764.07483	0.00952
1762.78906	0.00944
1761.50329	0.00948
1760.21752	0.00963
1758.93176	0.00983
1757.64599	0.01000
1756.36022	0.01010
1755.07445	0.01017
1753.78868	0.01022
1752.50291	0.01029
1751.21714	0.01037
1749.93137	0.01039
1748.64560	0.01031
1747.35984	0.01019
1746.07407	0.01011
1744.78830	0.01010
1743.50253	0.01012
1742.21676	0.01010
1740.93099	0.01008
1739.64522	0.01013
1738.35945	0.01033
1737.07369	0.01058
1735.78792	0.01075
1734.50215	0.01083
1733.21638	0.01087
1731.93061	0.01090
1730.64484	0.01090
1729.35907	0.01091
1728.07330	0.01096
1726.78753	0.01103
1725.50177	0.01110
1724.21600	0.01116
1722.93023	0.01127
1721.64446	0.01146
1720.35869	0.01170
1719.07292	0.01191
1717.78715	0.01205
1716.50138	0.01210
1715.21561	0.01203
1713.92985	0.01191
1712.64408	0.01182
1711.35831	0.01185
1710.07254	0.01203
1708.78677	0.01229
1707.50100	0.01257
1706.21523	0.01287
1704.92946	0.01322
1703.64370	0.01360
1702.35793	0.01395
1701.07216	0.01422
1699.78639	0.01449
1698.50062	0.01469
1697.21485	0.01473
1695.92908	0.01465
1694.64331	0.01462
1693.35754	0.01469
1692.07178	0.01481
1690.78601	0.01500
1689.50024	0.01528
1688.21447	0.01559
1686.92870	0.01586
1685.64293	0.01607
1684.35716	0.01627
1683.07139	0.01647
1681.78563	0.01657
1680.49986	0.01657
1679.21409	0.01660
1677.92832	0.01671
1676.64255	0.01687
1675.35678	0.01703
1674.07101	0.01720
1672.78524	0.01739
1671.49947	0.01755
1670.21371	0.01770
1668.92794	0.01783
1667.64217	0.01794
1666.35640	0.01803
1665.07063	0.01815
1663.78486	0.01831
1662.49909	0.01850
1661.21332	0.01862
1659.92756	0.01867
1658.64179	0.01877
1657.35602	0.01904
1656.07025	0.01943
1654.78448	0.01976
1653.49871	0.01995
1652.21294	0.02005
1650.92717	0.02010
1649.64140	0.02004
1648.35564	0.01990
1647.06987	0.01980
1645.78410	0.01981
1644.49833	0.01989
1643.21256	0.01995
1641.92679	0.01997
1640.64102	0.02000
1639.35525	0.02010
1638.06949	0.02023
1636.78372	0.02033
1635.49795	0.02037
1634.21218	0.02033
1632.92641	0.02023
1631.64064	0.02012
1630.35487	0.02007
1629.06910	0.02008
1627.78333	0.02015
1626.49757	0.02024
1625.21180	0.02035
1623.92603	0.02046
1622.64026	0.02057
1621.35449	0.02070
1620.06872	0.02080
1618.78295	0.02086
1617.49718	0.02091
1616.21142	0.02100
1614.92565	0.02110
1613.63988	0.02115
1612.35411	0.02113
1611.06834	0.02114
1609.78257	0.02121
1608.49680	0.02134
1607.21103	0.02149
1605.92526	0.02166
1604.63950	0.02181
1603.35373	0.02193
1602.06796	0.02202
1600.78219	0.02208
1599.49642	0.02209
1598.21065	0.02208
1596.92488	0.02210
1595.63911	0.02217
1594.35335	0.02230
1593.06758	0.02249
1591.78181	0.02268
1590.49604	0.02284
1589.21027	0.02293
1587.92450	0.02294
1586.63873	0.02291
1585.35296	0.02290
1584.06719	0.02298
1582.78143	0.02316
1581.49566	0.02341
1580.20989	0.02370
1578.92412	0.02393
1577.63835	0.02407
1576.35258	0.02419
1575.06681	0.02437
1573.78104	0.02457
1572.49528	0.02474
1571.20951	0.02486
1569.92374	0.02499
1568.63797	0.02514
1567.35220	0.02527
1566.06643	0.02537
1564.78066	0.02551
1563.49489	0.02578
1562.20912	0.02614
1560.92336	0.02648
1559.63759	0.02673
1558.35182	0.02690
1557.06605	0.02698
1555.78028	0.02695
1554.49451	0.02688
1553.20874	0.02690
1551.92297	0.02701
1550.63721	0.02718
1549.35144	0.02738
1548.06567	0.02757
1546.77990	0.02770
1545.49413	0.02780
1544.20836	0.02793
1542.92259	0.02809
1541.63682	0.02818
1540.35105	0.02815
1539.06529	0.02804
1537.77952	0.02794
1536.49375	0.02791
1535.20798	0.02792
1533.92221	0.02800
1532.63644	0.02814
1531.35067	0.02831
1530.06490	0.02853
1528.77914	0.02884
1527.49337	0.02922
1526.20760	0.02966
1524.92183	0.03009
1523.63606	0.03046
1522.35029	0.03078
1521.06452	0.03115
1519.77875	0.03164
1518.49298	0.03225
1517.20722	0.03294
1515.92145	0.03367
1514.63568	0.03441
1513.34991	0.03514
1512.06414	0.03596
1510.77837	0.03692
1509.49260	0.03794
1508.20683	0.03888
1506.92107	0.03970
1505.63530	0.04046
1504.34953	0.04119
1503.06376	0.04186
1501.77799	0.04244
1500.49222	0.04299
1499.20645	0.04355
1497.92068	0.04412
1496.63491	0.04470
1495.34915	0.04527
1494.06338	0.04577
1492.77761	0.04620
1491.49184	0.04660
1490.20607	0.04710
1488.92030	0.04772
1487.63453	0.04845
1486.34876	0.04924
1485.06299	0.05006
1483.77723	0.05088
1482.49146	0.05171
1481.20569	0.05257
1479.91992	0.05345
1478.63415	0.05435
1477.34838	0.05527
1476.06261	0.05613
1474.77684	0.05688
1473.49108	0.05745
1472.20531	0.05791
1470.91954	0.05831
1469.63377	0.05867
1468.34800	0.05897
1467.06223	0.05921
1465.77646	0.05942
1464.49069	0.05961
1463.20492	0.05981
1461.91916	0.06006
1460.63339	0.06040
1459.34762	0.06081
1458.06185	0.06123
1456.77608	0.06160
1455.49031	0.06190
1454.20454	0.06207
1452.91877	0.06213
1451.63301	0.06216
1450.34724	0.06218
1449.06147	0.06221
1447.77570	0.06223
1446.48993	0.06219
1445.20416	0.06202
1443.91839	0.06170
1442.63262	0.06131
1441.34685	0.06091
1440.06109	0.06054
1438.77532	0.06020
1437.48955	0.05995
1436.20378	0.05985
1434.91801	0.05994
1433.63224	0.06020
1432.34647	0.06063
1431.06070	0.06126
1429.77494	0.06209
1428.48917	0.06303
1427.20340	0.06400
1425.91763	0.06498
1424.63186	0.06599
1423.34609	0.06708
1422.06032	0.06816
1420.77455	0.06913
1419.48878	0.06992
1418.20302	0.07055
1416.91725	0.07099
1415.63148	0.07127
1414.34571	0.07143
1413.05994	0.07145
1411.77417	0.07131
1410.48840	0.07095
1409.20263	0.07042
1407.91687	0.06975
1406.63110	0.06899
1405.34533	0.06815
1404.05956	0.06721
1402.77379	0.06615
1401.48802	0.06494
1400.20225	0.06358
1398.91648	0.06211
1397.63071	0.06057
1396.34495	0.05898
1395.05918	0.05740
1393.77341	0.05586
1392.48764	0.05439
1391.20187	0.05296
1389.91610	0.05154
1388.63033	0.05012
1387.34456	0.04874
1386.05880	0.04740
1384.77303	0.04610
1383.48726	0.04481
1382.20149	0.04356
1380.91572	0.04237
1379.62995	0.04123
1378.34418	0.04008
1377.05841	0.03885
1375.77264	0.03752
1374.48688	0.03612
1373.20111	0.03474
1371.91534	0.03343
1370.62957	0.03218
1369.34380	0.03096
1368.05803	0.02982
1366.77226	0.02878
1365.48649	0.02789
1364.20073	0.02709
1362.91496	0.02635
1361.62919	0.02562
1360.34342	0.02486
1359.05765	0.02409
1357.77188	0.02336
1356.48611	0.02271
1355.20034	0.02216
1353.91457	0.02169
1352.62881	0.02127
1351.34304	0.02088
1350.05727	0.02048
1348.77150	0.02008
1347.48573	0.01970
1346.19996	0.01937
1344.91419	0.01910
1343.62842	0.01885
1342.34266	0.01861
1341.05689	0.01835
1339.77112	0.01808
1338.48535	0.01782
1337.19958	0.01758
1335.91381	0.01740
1334.62804	0.01726
1333.34227	0.01709
1332.05650	0.01688
1330.77074	0.01661
1329.48497	0.01634
1328.19920	0.01612
1326.91343	0.01597
1325.62766	0.01589
1324.34189	0.01583
1323.05612	0.01578
1321.77035	0.01571
1320.48459	0.01565
1319.19882	0.01560
1317.91305	0.01555
1316.62728	0.01548
1315.34151	0.01538
1314.05574	0.01527
1312.76997	0.01515
1311.48420	0.01504
1310.19843	0.01498
1308.91267	0.01495
1307.62690	0.01492
1306.34113	0.01484
1305.05536	0.01469
1303.76959	0.01449
1302.48382	0.01430
1301.19805	0.01417
1299.91228	0.01412
1298.62652	0.01411
1297.34075	0.01410
1296.05498	0.01407
1294.76921	0.01404
1293.48344	0.01401
1292.19767	0.01398
1290.91190	0.01393
1289.62613	0.01380
1288.34036	0.01363
1287.05460	0.01344
1285.76883	0.01330
1284.48306	0.01323
1283.19729	0.01320
1281.91152	0.01317
1280.62575	0.01310
1279.33998	0.01301
1278.05421	0.01295
1276.76845	0.01293
1275.48268	0.01292
1274.19691	0.01287
1272.91114	0.01279
1271.62537	0.01268
1270.33960	0.01258
1269.05383	0.01248
1267.76806	0.01238
1266.48229	0.01229
1265.19653	0.01223
1263.91076	0.01223
1262.62499	0.01225
1261.33922	0.01227
1260.05345	0.01224
1258.76768	0.01219
1257.48191	0.01213
1256.19614	0.01210
1254.91037	0.01208
1253.62461	0.01205
1252.33884	0.01200
1251.05307	0.01192
1249.76730	0.01185
1248.48153	0.01182
1247.19576	0.01180
1245.90999	0.01174
1244.62422	0.01165
1243.33846	0.01157
1242.05269	0.01151
1240.76692	0.01149
1239.48115	0.01151
1238.19538	0.01153
1236.90961	0.01155
1235.62384	0.01153
1234.33807	0.01148
1233.05230	0.01140
1231.76654	0.01134
1230.48077	0.01129
1229.19500	0.01125
1227.90923	0.01121
1226.62346	0.01117
1225.33769	0.01114
1224.05192	0.01113
1222.76615	0.01114
1221.48039	0.01119
1220.19462	0.01124
1218.90885	0.01125
1217.62308	0.01118
1216.33731	0.01108
1215.05154	0.01100
1213.76577	0.01097
1212.48000	0.01095
1211.19423	0.01092
1209.90847	0.01090
1208.62270	0.01089
1207.33693	0.01091
1206.05116	0.01095
1204.76539	0.01100
1203.47962	0.01104
1202.19385	0.01107
1200.90808	0.01103
1199.62232	0.01094
1198.33655	0.01099
1197.05078	0.01109
1195.76501	0.01115
1194.47924	0.01113
1193.19347	0.01105
1191.90770	0.01099
1190.62193	0.01098
1189.33616	0.01104
1188.05040	0.01112
1186.76463	0.01118
1185.47886	0.01118
1184.19309	0.01117
1182.90732	0.01121
1181.62155	0.01133
1180.33578	0.01146
1179.05001	0.01155
1177.76425	0.01156
1176.47848	0.01156
1175.19271	0.01160
1173.90694	0.01169
1172.62117	0.01179
1171.33540	0.01184
1170.04963	0.01185
1168.76386	0.01188
1167.47809	0.01200
1166.19233	0.01221
1164.90656	0.01245
1163.62079	0.01267
1162.33502	0.01286
1161.04925	0.01302
1159.76348	0.01319
1158.47771	0.01339
1157.19194	0.01365
1155.90618	0.01394
1154.62041	0.01425
1153.33464	0.01453
1152.04887	0.01481
1150.76310	0.01512
1149.47733	0.01550
1148.19156	0.01597
1146.90579	0.01652
1145.62002	0.01717
1144.33426	0.01788
1143.04849	0.01861
1141.76272	0.01935
1140.47695	0.02008
1139.19118	0.02088
1137.90541	0.02179
1136.61964	0.02284
1135.33387	0.02402
1134.04811	0.02531
1132.76234	0.02671
1131.47657	0.02823
1130.19080	0.02992
1128.90503	0.03180
1127.61926	0.03391
1126.33349	0.03624
1125.04772	0.03871
1123.76195	0.04132
1122.47619	0.04403
1121.19042	0.04683
1119.90465	0.04966
1118.61888	0.05242
1117.33311	0.05510
1116.04734	0.05770
1114.76157	0.06028
1113.47580	0.06285
1112.19004	0.06539
1110.90427	0.06788
1109.61850	0.07032
1108.33273	0.07268
1107.04696	0.07498
1105.76119	0.07725
1104.47542	0.07954
1103.18965	0.08176
1101.90388	0.08382
1100.61812	0.08569
1099.33235	0.08742
1098.04658	0.08908
1096.76081	0.09072
1095.47504	0.09235
1094.18927	0.09397
1092.90350	0.09557
1091.61773	0.09714
1090.33197	0.09866
1089.04620	0.10012
1087.76043	0.10156
1086.47466	0.10300
1085.18889	0.10447
1083.90312	0.10597
1082.61735	0.10753
1081.33158	0.10918
1080.04581	0.11092
1078.76005	0.11273
1077.47428	0.11463
1076.18851	0.11663
1074.90274	0.11869
1073.61697	0.12081
1072.33120	0.12301
1071.04543	0.12533
1069.75966	0.12776
1068.47390	0.13031
1067.18813	0.13298
1065.90236	0.13570
1064.61659	0.13838
1063.33082	0.14098
1062.04505	0.14355
1060.75928	0.14614
1059.47351	0.14878
1058.18774	0.15140
1056.90198	0.15395
1055.61621	0.15642
1054.33044	0.15882
1053.04467	0.16122
1051.75890	0.16366
1050.47313	0.16616
1049.18736	0.16872
1047.90159	0.17141
1046.61583	0.17425
1045.33006	0.17718
1044.04429	0.18010
1042.75852	0.18299
1041.47275	0.18586
1040.18698	0.18871
1038.90121	0.19152
1037.61544	0.19426
1036.32967	0.19699
1035.04391	0.19973
1033.75814	0.20241
1032.47237	0.20491
1031.18660	0.20713
1029.90083	0.20904
1028.61506	0.21062
1027.32929	0.21182
1026.04352	0.21256
1024.75775	0.21286
1023.47199	0.21276
1022.18622	0.21236
1020.90045	0.21170
1019.61468	0.21078
1018.32891	0.20951
1017.04314	0.20779
1015.75737	0.20559
1014.47160	0.20291
1013.18584	0.19980
1011.90007	0.19626
1010.61430	0.19233
1009.32853	0.18806
1008.04276	0.18349
1006.75699	0.17858
1005.47122	0.17332
1004.18545	0.16775
1002.89968	0.16199
1001.61392	0.15612
1000.32815	0.15017
999.04238	0.14412
997.75661	0.13803
996.47084	0.13198
995.18507	0.12607
993.89930	0.12030
992.61353	0.11466
991.32777	0.10919
990.04200	0.10396
988.75623	0.09904
987.47046	0.09443
986.18469	0.09014
984.89892	0.08618
983.61315	0.08257
982.32738	0.07927
981.04161	0.07619
979.75585	0.07326
978.47008	0.07050
977.18431	0.06802
975.89854	0.06592
974.61277	0.06426
973.32700	0.06301
972.04123	0.06216
970.75546	0.06171
969.46970	0.06164
968.18393	0.06193
966.89816	0.06252
965.61239	0.06331
964.32662	0.06416
963.04085	0.06494
961.75508	0.06551
960.46931	0.06575
959.18354	0.06551
957.89778	0.06471
956.61201	0.06336
955.32624	0.06162
954.04047	0.05966
952.75470	0.05765
951.46893	0.05567
950.18316	0.05377
948.89739	0.05194
947.61163	0.05016
946.32586	0.04846
945.04009	0.04690
943.75432	0.04548
942.46855	0.04416
941.18278	0.04288
939.89701	0.04162
938.61124	0.04041
937.32547	0.03927
936.03971	0.03821
934.75394	0.03726
933.46817	0.03646
932.18240	0.03578
930.89663	0.03514
929.61086	0.03447
928.32509	0.03383
927.03932	0.03328
925.75356	0.03284
924.46779	0.03242
923.18202	0.03198
921.89625	0.03152
920.61048	0.03110
919.32471	0.03072
918.03894	0.03036
916.75317	0.03000
915.46740	0.02966
914.18164	0.02936
912.89587	0.02910
911.61010	0.02887
910.32433	0.02861
909.03856	0.02832
907.75279	0.02802
906.46702	0.02780
905.18125	0.02770
903.89549	0.02767
902.60972	0.02759
901.32395	0.02741
900.03818	0.02718
898.75241	0.02695
897.46664	0.02681
896.18087	0.02679
894.89510	0.02688
893.60933	0.02698
892.32357	0.02702
891.03780	0.02700
889.75203	0.02702
888.46626	0.02722
887.18049	0.02777
885.89472	0.02883
884.60895	0.03053
883.32318	0.03280
882.03742	0.03534
880.75165	0.03770
879.46588	0.03949
878.18011	0.04067
876.89434	0.04154
875.60857	0.04244
874.32280	0.04343
873.03703	0.04424
871.75126	0.04453
870.46550	0.04412
869.17973	0.04305
867.89396	0.04148
866.60819	0.03959
865.32242	0.03763
864.03665	0.03584
862.75088	0.03430
861.46511	0.03295
860.17935	0.03168
858.89358	0.03047
857.60781	0.02943
856.32204	0.02865
855.03627	0.02810
853.75050	0.02768
852.46473	0.02727
851.17896	0.02683
849.89319	0.02637
848.60743	0.02594
847.32166	0.02561
846.03589	0.02541
844.75012	0.02529
843.46435	0.02521
842.17858	0.02513
840.89281	0.02503
839.60704	0.02490
838.32128	0.02474
837.03551	0.02452
835.74974	0.02426
834.46397	0.02402
833.17820	0.02387
831.89243	0.02381
830.60666	0.02376
829.32089	0.02368
828.03512	0.02357
826.74936	0.02350
825.46359	0.02348
824.17782	0.02347
822.89205	0.02344
821.60628	0.02338
820.32051	0.02334
819.03474	0.02331
817.74897	0.02330
816.46321	0.02332
815.17744	0.02338
813.89167	0.02344
812.60590	0.02349
811.32013	0.02348
810.03436	0.02343
808.74859	0.02336
807.46282	0.02329
806.17705	0.02321
804.89129	0.02315
803.60552	0.02311
802.31975	0.02310
801.03398	0.02314
799.74821	0.02319
798.46244	0.02320
797.17667	0.02312
795.89090	0.02300
794.60513	0.02293
793.31937	0.02293
792.03360	0.02298
790.74783	0.02301
789.46206	0.02296
788.17629	0.02284
786.89052	0.02272
785.60475	0.02266
784.31898	0.02265
783.03322	0.02267
781.74745	0.02269
780.46168	0.02268
779.17591	0.02262
777.89014	0.02254
776.60437	0.02245
775.31860	0.02240
774.03283	0.02236
772.74706	0.02233
771.46130	0.02229
770.17553	0.02223
768.88976	0.02220
767.60399	0.02221
766.31822	0.02226
765.03245	0.02236
763.74668	0.02249
762.46091	0.02266
761.17515	0.02283
759.88938	0.02297
758.60361	0.02304
757.31784	0.02302
756.03207	0.02294
754.74630	0.02285
753.46053	0.02282
752.17476	0.02285
750.88899	0.02290
749.60323	0.02290
748.31746	0.02280
747.03169	0.02266
745.74592	0.02252
744.46015	0.02240
743.17438	0.02230
741.88861	0.02219
740.60284	0.02208
739.31708	0.02198
738.03131	0.02191
736.74554	0.02189
735.45977	0.02192
734.17400	0.02196
732.88823	0.02195
731.60246	0.02187
730.31669	0.02179
729.03092	0.02181
727.74516	0.02193
726.45939	0.02208
725.17362	0.02217
723.88785	0.02223
722.60208	0.02225
721.31631	0.02226
720.03054	0.02229
718.74477	0.02234
717.45901	0.02242
716.17324	0.02246
714.88747	0.02243
713.60170	0.02233
712.31593	0.02222
711.03016	0.02214
709.74439	0.02207
708.45862	0.02200
707.17285	0.02193
705.88709	0.02188
704.60132	0.02187
703.31555	0.02189
702.02978	0.02194
700.74401	0.02202
699.45824	0.02213
698.17247	0.02223
696.88670	0.02225
695.60094	0.02219
694.31517	0.02209
693.02940	0.02199
691.74363	0.02194
690.45786	0.02193
689.17209	0.02193
687.88632	0.02192
686.60055	0.02188
685.31478	0.02184
684.02902	0.02184
682.74325	0.02188
681.45748	0.02194
680.17171	0.02196
678.88594	0.02194
677.60017	0.02192
676.31440	0.02196
675.02863	0.02208
673.74287	0.02226
672.45710	0.02244
671.17133	0.02260
669.88556	0.02274
668.59979	0.02289
667.31402	0.02300
666.02825	0.02296
664.74248	0.02275
663.45671	0.02244
662.17095	0.02212
660.88518	0.02187
659.59941	0.02171
658.31364	0.02166
657.02787	0.02172
655.74210	0.02184
654.45633	0.02196
653.17056	0.02205
651.88480	0.02210
650.59903	0.02217
649.31326	0.02226
648.02749	0.02239
646.74172	0.02252
645.45595	0.02266
644.17018	0.02279
642.88441	0.02295
641.59864	0.02313
640.31288	0.02336
639.02711	0.02362
637.74134	0.02392
636.45557	0.02427
635.16980	0.02464
633.88403	0.02498
632.59826	0.02525
631.31249	0.02559
630.02673	0.02644
628.74096	0.02759
627.45519	0.02757
626.16942	0.02903
624.88365	0.03159
623.59788	0.03440
622.31211	0.03720
621.02634	0.03965
619.74057	0.04112
618.45481	0.04137
617.16904	0.04098
615.88327	0.04085
614.59750	0.04150
613.31173	0.04297
612.02596	0.04530
610.74019	0.04902
609.45442	0.05455
608.16866	0.06124
606.88289	0.06758
605.59712	0.07232
604.31135	0.07517
603.02558	0.07652
601.73981	0.07687
600.45404	0.07646
599.16827	0.07525
597.88250	0.07324
596.59674	0.07070
595.31097	0.06804
594.02520	0.06569
592.73943	0.06387
591.45366	0.06267
590.16789	0.06211
588.88212	0.06221
587.59635	0.06290
586.31059	0.06404
585.02482	0.06548
583.73905	0.06711
582.45328	0.06889
581.16751	0.07079
579.88174	0.07283
578.59597	0.07503
577.31020	0.07735
576.02443	0.07968
574.73867	0.08188
573.45290	0.08392
572.16713	0.08589
570.88136	0.08799
569.59559	0.09042
568.30982	0.09330
567.02405	0.09659
565.73828	0.10001
564.45251	0.10303
563.16675	0.10503
561.88098	0.10555
560.59521	0.10434
559.30944	0.10142
558.02367	0.09699
556.73790	0.09146
555.45213	0.08536
554.16636	0.07923
552.88060	0.07348
551.59483	0.06830
550.30906	0.06375
549.02329	0.05977
547.73752	0.05627
546.45175	0.05320
545.16598	0.05050
543.88021	0.04808
542.59444	0.04584
541.30868	0.04376
540.02291	0.04187
538.73714	0.04020
537.45137	0.03876
536.16560	0.03752
534.87983	0.03650
533.59406	0.03563
532.30829	0.03480
531.02253	0.03389
529.73676	0.03288
528.45099	0.03190
527.16522	0.03109
525.87945	0.03044
524.59368	0.02988
523.30791	0.02930
522.02214	0.02870
520.73637	0.02812
519.45061	0.02759
518.16484	0.02706
516.87907	0.02647
515.59330	0.02577
514.30753	0.02499
513.02176	0.02425
511.73599	0.02368
510.45022	0.02334
509.16446	0.02317
507.87869	0.02300
506.59292	0.02271
505.30715	0.02232
504.02138	0.02194
502.73561	0.02166
501.44984	0.02151
500.16407	0.02144
498.87830	0.02139
497.59254	0.02133
496.30677	0.02122
495.02100	0.02104
493.73523	0.02082
492.44946	0.02062
491.16369	0.02053
489.87792	0.02050
488.59215	0.02048
487.30639	0.02039
486.02062	0.02023
484.73485	0.02004
483.44908	0.01992
482.16331	0.01988
480.87754	0.01996
479.59177	0.02014
478.30600	0.02041
477.02023	0.02073
475.73447	0.02104
474.44870	0.02128
473.16293	0.02143
471.87716	0.02151
470.59139	0.02156
469.30562	0.02163
468.01985	0.02169
466.73408	0.02172
465.44832	0.02166
464.16255	0.02155
462.87678	0.02141
461.59101	0.02125
460.30524	0.02103
459.01947	0.02072
457.73370	0.02034
456.44793	0.01995
455.16216	0.01965
453.87640	0.01944
452.59063	0.01930
451.30486	0.01916
450.01909	0.01904
448.73332	0.01898
447.44755	0.01899
446.16178	0.01902
444.87601	0.01897
443.59025	0.01881
442.30448	0.01864
441.01871	0.01856
439.73294	0.01861
438.44717	0.01872
437.16140	0.01883
435.87563	0.01887
434.58986	0.01887
433.30409	0.01884
432.01833	0.01883
430.73256	0.01882
429.44679	0.01879
428.16102	0.01874
426.87525	0.01870
425.58948	0.01866
424.30371	0.01863
423.01794	0.01856
421.73218	0.01846
420.44641	0.01836
419.16064	0.01829
417.87487	0.01827
416.58910	0.01828
415.30333	0.01830
414.01756	0.01836
412.73179	0.01846
411.44602	0.01856
410.16026	0.01865
408.87449	0.01874
407.58872	0.01885
406.30295	0.01896
405.01718	0.01904
403.73141	0.01909
402.44564	0.01914
401.15987	0.01927
399.87411	0.01946
