3997.45528	0.05851
3996.16951	0.05767
3994.88374	0.05712
3993.59798	0.05751
3992.31221	0.05884
3991.02644	0.06008
3989.74067	0.06019
3988.45490	0.05905
3987.16913	0.05741
3985.88336	0.05600
3984.59759	0.05496
3983.31183	0.05400
3982.02606	0.05294
3980.74029	0.05210
3979.45452	0.05204
3978.16875	0.05294
3976.88298	0.05430
3975.59721	0.05535
3974.31144	0.05558
3973.02567	0.05495
3971.73991	0.05386
3970.45414	0.05289
3969.16837	0.05245
3967.88260	0.05254
3966.59683	0.05281
3965.31106	0.05295
3964.02529	0.05295
3962.73952	0.05320
3961.45376	0.05398
3960.16799	0.05510
3958.88222	0.05598
3957.59645	0.05617
3956.31068	0.05569
3955.02491	0.05492
3953.73914	0.05426
3952.45337	0.05402
3951.16760	0.05432
3949.88184	0.05500
3948.59607	0.05556
3947.31030	0.05558
3946.02453	0.05509
3944.73876	0.05461
3943.45299	0.05463
3942.16722	0.05514
3940.88145	0.05570
3939.59569	0.05580
3938.30992	0.05525
3937.02415	0.05430
3935.73838	0.05353
3934.45261	0.05340
3933.16684	0.05385
3931.88107	0.05442
3930.59530	0.05480
3929.30953	0.05504
3928.02377	0.05531
3926.73800	0.05555
3925.45223	0.05559
3924.16646	0.05547
3922.88069	0.05548
3921.59492	0.05576
3920.30915	0.05611
3919.02338	0.05620
3917.73762	0.05593
3916.45185	0.05545
3915.16608	0.05504
3913.88031	0.05492
3912.59454	0.05504
3911.30877	0.05513
3910.02300	0.05492
3908.73723	0.05444
3907.45146	0.05393
3906.16570	0.05359
3904.87993	0.05336
3903.59416	0.05313
3902.30839	0.05306
3901.02262	0.05342
3899.73685	0.05411
3898.45108	0.05461
3897.16531	0.05441
3895.87955	0.05342
3894.59378	0.05206
3893.30801	0.05090
3892.02224	0.05022
3890.73647	0.04998
3889.45070	0.05019
3888.16493	0.05104
3886.87916	0.05230
3885.59339	0.05327
3884.30763	0.05364
3883.02186	0.05382
3881.73609	0.05433
3880.45032	0.05501
3879.16455	0.05524
3877.87878	0.05469
3876.59301	0.05356
3875.30724	0.05242
3874.02148	0.05178
3872.73571	0.05184
3871.44994	0.05224
3870.16417	0.05233
3868.87840	0.05186
3867.59263	0.05138
3866.30686	0.05138
3865.02109	0.05164
3863.73532	0.05166
3862.44956	0.05137
3861.16379	0.05107
3859.87802	0.05104
3858.59225	0.05126
3857.30648	0.05145
3856.02071	0.05146
3854.73494	0.05141
3853.44917	0.05148
3852.16341	0.05177
3850.87764	0.05205
3849.59187	0.05194
3848.30610	0.05145
3847.02033	0.05109
3845.73456	0.05126
3844.44879	0.05173
3843.16302	0.05185
3841.87725	0.05121
3840.59149	0.05016
3839.30572	0.04946
3838.01995	0.04954
3836.73418	0.05029
3835.44841	0.05140
3834.16264	0.05244
3832.87687	0.05290
3831.59110	0.05237
3830.30534	0.05107
3829.01957	0.04979
3827.73380	0.04930
3826.44803	0.04978
3825.16226	0.05090
3823.87649	0.05222
3822.59072	0.05318
3821.30495	0.05331
3820.01918	0.05281
3818.73342	0.05263
3817.44765	0.05336
3816.16188	0.05437
3814.87611	0.05467
3813.59034	0.05409
3812.30457	0.05325
3811.01880	0.05281
3809.73303	0.05309
3808.44726	0.05383
3807.16150	0.05417
3805.87573	0.05366
3804.58996	0.05282
3803.30419	0.05237
3802.01842	0.05218
3800.73265	0.05171
3799.44688	0.05116
3798.16111	0.05114
3796.87535	0.05157
3795.58958	0.05165
3794.30381	0.05097
3793.01804	0.04989
3791.73227	0.04909
3790.44650	0.04892
3789.16073	0.04924
3787.87496	0.04970
3786.58919	0.05006
3785.30343	0.05028
3784.01766	0.05039
3782.73189	0.05048
3781.44612	0.05056
3780.16035	0.05052
3778.87458	0.05018
3777.58881	0.04959
3776.30304	0.04908
3775.01728	0.04908
3773.73151	0.04983
3772.44574	0.05103
3771.15997	0.05200
3769.87420	0.05217
3768.58843	0.05161
3767.30266	0.05087
3766.01689	0.05038
3764.73112	0.05025
3763.44536	0.05046
3762.15959	0.05097
3760.87382	0.05157
3759.58805	0.05188
3758.30228	0.05168
3757.01651	0.05116
3755.73074	0.05088
3754.44497	0.05123
3753.15921	0.05180
3751.87344	0.05179
3750.58767	0.05088
3749.30190	0.04943
3748.01613	0.04814
3746.73036	0.04777
3745.44459	0.04838
3744.15882	0.04917
3742.87305	0.04955
3741.58729	0.04971
3740.30152	0.05000
3739.01575	0.05058
3737.72998	0.05137
3736.44421	0.05189
3735.15844	0.05162
3733.87267	0.05079
3732.58690	0.05014
3731.30114	0.05015
3730.01537	0.05077
3728.72960	0.05152
3727.44383	0.05193
3726.15806	0.05179
3724.87229	0.05124
3723.58652	0.05048
3722.30075	0.04958
3721.01498	0.04891
3719.72922	0.04899
3718.44345	0.04980
3717.15768	0.05059
3715.87191	0.05054
3714.58614	0.04958
3713.30037	0.04829
3712.01460	0.04733
3710.72883	0.04708
3709.44307	0.04745
3708.15730	0.04785
3706.87153	0.04769
3705.58576	0.04690
3704.29999	0.04591
3703.01422	0.04516
3701.72845	0.04487
3700.44268	0.04523
3699.15691	0.04637
3697.87115	0.04787
3696.58538	0.04894
3695.29961	0.04933
3694.01384	0.04943
3692.72807	0.04944
3691.44230	0.04957
3690.15653	0.04992
3688.87076	0.05018
3687.58500	0.05001
3686.29923	0.04958
3685.01346	0.04925
3683.72769	0.04920
3682.44192	0.04928
3681.15615	0.04897
3679.87038	0.04798
3678.58461	0.04677
3677.29884	0.04622
3676.01308	0.04666
3674.72731	0.04745
3673.44154	0.04782
3672.15577	0.04771
3670.87000	0.04734
3669.58423	0.04704
3668.29846	0.04713
3667.01269	0.04745
3665.72693	0.04744
3664.44116	0.04681
3663.15539	0.04605
3661.86962	0.04596
3660.58385	0.04688
3659.29808	0.04837
3658.01231	0.04957
3656.72654	0.04984
3655.44077	0.04917
3654.15501	0.04816
3652.86924	0.04747
3651.58347	0.04744
3650.29770	0.04810
3649.01193	0.04935
3647.72616	0.05078
3646.44039	0.05174
3645.15462	0.05178
3643.86886	0.05111
3642.58309	0.05053
3641.29732	0.05063
3640.01155	0.05122
3638.72578	0.05148
3637.44001	0.05080
3636.15424	0.04927
3634.86847	0.04748
3633.58270	0.04604
3632.29694	0.04548
3631.01117	0.04616
3629.72540	0.04782
3628.43963	0.04970
3627.15386	0.05118
3625.86809	0.05216
3624.58232	0.05266
3623.29655	0.05273
3622.01079	0.05248
3620.72502	0.05202
3619.43925	0.05139
3618.15348	0.05068
3616.86771	0.04995
3615.58194	0.04935
3614.29617	0.04911
3613.01040	0.04951
3611.72463	0.05072
3610.43887	0.05255
3609.15310	0.05450
3607.86733	0.05596
3606.58156	0.05655
3605.29579	0.05626
3604.01002	0.05547
3602.72425	0.05478
3601.43848	0.05452
3600.15272	0.05464
3598.86695	0.05490
3597.58118	0.05503
3596.29541	0.05480
3595.00964	0.05426
3593.72387	0.05378
3592.43810	0.05366
3591.15233	0.05394
3589.86656	0.05442
3588.58080	0.05471
3587.29503	0.05452
3586.00926	0.05400
3584.72349	0.05369
3583.43772	0.05400
3582.15195	0.05503
3580.86618	0.05648
3579.58041	0.05763
3578.29464	0.05791
3577.00888	0.05732
3575.72311	0.05633
3574.43734	0.05566
3573.15157	0.05568
3571.86580	0.05619
3570.58003	0.05670
3569.29426	0.05682
3568.00849	0.05640
3566.72273	0.05560
3565.43696	0.05481
3564.15119	0.05456
3562.86542	0.05510
3561.57965	0.05615
3560.29388	0.05715
3559.00811	0.05776
3557.72234	0.05814
3556.43657	0.05849
3555.15081	0.05870
3553.86504	0.05847
3552.57927	0.05774
3551.29350	0.05696
3550.00773	0.05674
3548.72196	0.05735
3547.43619	0.05854
3546.15042	0.05978
3544.86466	0.06073
3543.57889	0.06135
3542.29312	0.06168
3541.00735	0.06173
3539.72158	0.06157
3538.43581	0.06144
3537.15004	0.06158
3535.86427	0.06204
3534.57850	0.06258
3533.29274	0.06291
3532.00697	0.06298
3530.72120	0.06303
3529.43543	0.06329
3528.14966	0.06378
3526.86389	0.06419
3525.57812	0.06415
3524.29235	0.06349
3523.00659	0.06246
3521.72082	0.06159
3520.43505	0.06127
3519.14928	0.06145
3517.86351	0.06176
3516.57774	0.06194
3515.29197	0.06207
3514.00620	0.06231
3512.72043	0.06261
3511.43467	0.06284
3510.14890	0.06302
3508.86313	0.06328
3507.57736	0.06366
3506.29159	0.06395
3505.00582	0.06399
3503.72005	0.06391
3502.43428	0.06392
3501.14852	0.06405
3499.86275	0.06404
3498.57698	0.06378
3497.29121	0.06351
3496.00544	0.06369
3494.71967	0.06442
3493.43390	0.06527
3492.14813	0.06569
3490.86236	0.06554
3489.57660	0.06517
3488.29083	0.06495
3487.00506	0.06490
3485.71929	0.06492
3484.43352	0.06503
3483.14775	0.06542
3481.86198	0.06608
3480.57621	0.06674
3479.29045	0.06706
3478.00468	0.06703
3476.71891	0.06691
3475.43314	0.06691
3474.14737	0.06700
3472.86160	0.06709
3471.57583	0.06719
3470.29006	0.06737
3469.00429	0.06765
3467.71853	0.06798
3466.43276	0.06837
3465.14699	0.06881
3463.86122	0.06932
3462.57545	0.06985
3461.28968	0.07024
3460.00391	0.07020
3458.71814	0.06960
3457.43238	0.06875
3456.14661	0.06827
3454.86084	0.06852
3453.57507	0.06937
3452.28930	0.07043
3451.00353	0.07123
3449.71776	0.07136
3448.43199	0.07065
3447.14622	0.06945
3445.86046	0.06854
3444.57469	0.06850
3443.28892	0.06920
3442.00315	0.06989
3440.71738	0.06997
3439.43161	0.06958
3438.14584	0.06935
3436.86007	0.06965
3435.57431	0.07028
3434.28854	0.07073
3433.00277	0.07074
3431.71700	0.07041
3430.43123	0.07000
3429.14546	0.06972
3427.85969	0.06962
3426.57392	0.06963
3425.28815	0.06972
3424.00239	0.06994
3422.71662	0.07027
3421.43085	0.07060
3420.14508	0.07088
3418.85931	0.07128
3417.57354	0.07198
3416.28777	0.07283
3415.00200	0.07332
3413.71624	0.07305
3412.43047	0.07209
3411.14470	0.07094
3409.85893	0.07006
3408.57316	0.06960
3407.28739	0.06948
3406.00162	0.06958
3404.71585	0.06989
3403.43008	0.07043
3402.14432	0.07120
3400.85855	0.07200
3399.57278	0.07249
3398.28701	0.07253
3397.00124	0.07222
3395.71547	0.07188
3394.42970	0.07172
3393.14393	0.07169
3391.85817	0.07167
3390.57240	0.07163
3389.28663	0.07166
3388.00086	0.07192
3386.71509	0.07248
3385.42932	0.07325
3384.14355	0.07401
3382.85778	0.07458
3381.57201	0.07483
3380.28625	0.07477
3379.00048	0.07454
3377.71471	0.07426
3376.42894	0.07396
3375.14317	0.07356
3373.85740	0.07306
3372.57163	0.07257
3371.28586	0.07221
3370.00010	0.07210
3368.71433	0.07237
3367.42856	0.07304
3366.14279	0.07386
3364.85702	0.07447
3363.57125	0.07476
3362.28548	0.07489
3360.99971	0.07503
3359.71394	0.07515
3358.42818	0.07515
3357.14241	0.07508
3355.85664	0.07504
3354.57087	0.07498
3353.28510	0.07486
3351.99933	0.07474
3350.71356	0.07479
3349.42779	0.07505
3348.14202	0.07532
3346.85626	0.07532
3345.57049	0.07492
3344.28472	0.07427
3342.99895	0.07372
3341.71318	0.07360
3340.42741	0.07398
3339.14164	0.07454
3337.85587	0.07485
3336.57011	0.07472
3335.28434	0.07430
3333.99857	0.07388
3332.71280	0.07357
3331.42703	0.07339
3330.14126	0.07336
3328.85549	0.07348
3327.56972	0.07365
3326.28395	0.07374
3324.99819	0.07370
3323.71242	0.07365
3322.42665	0.07369
3321.14088	0.07378
3319.85511	0.07381
3318.56934	0.07374
3317.28357	0.07359
3315.99780	0.07345
3314.71204	0.07343
3313.42627	0.07361
3312.14050	0.07403
3310.85473	0.07461
3309.56896	0.07517
3308.28319	0.07549
3306.99742	0.07549
3305.71165	0.07524
3304.42588	0.07488
3303.14012	0.07448
3301.85435	0.07412
3300.56858	0.07393
3299.28281	0.07403
3297.99704	0.07436
3296.71127	0.07474
3295.42550	0.07503
3294.13973	0.07514
3292.85397	0.07498
3291.56820	0.07456
3290.28243	0.07412
3288.99666	0.07399
3287.71089	0.07430
3286.42512	0.07477
3285.13935	0.07496
3283.85358	0.07468
3282.56781	0.07418
3281.28205	0.07390
3279.99628	0.07406
3278.71051	0.07450
3277.42474	0.07494
3276.13897	0.07524
3274.85320	0.07536
3273.56743	0.07525
3272.28166	0.07481
3270.99590	0.07408
3269.71013	0.07333
3268.42436	0.07284
3267.13859	0.07270
3265.85282	0.07277
3264.56705	0.07296
3263.28128	0.07316
3261.99551	0.07329
3260.70974	0.07319
3259.42398	0.07280
3258.13821	0.07227
3256.85244	0.07186
3255.56667	0.07180
3254.28090	0.07204
3252.99513	0.07227
3251.70936	0.07225
3250.42359	0.07202
3249.13783	0.07174
3247.85206	0.07156
3246.56629	0.07152
3245.28052	0.07156
3243.99475	0.07160
3242.70898	0.07157
3241.42321	0.07145
3240.13744	0.07123
3238.85167	0.07093
3237.56591	0.07056
3236.28014	0.07026
3234.99437	0.07022
3233.70860	0.07059
3232.42283	0.07128
3231.13706	0.07195
3229.85129	0.07234
3228.56552	0.07252
3227.27976	0.07264
3225.99399	0.07265
3224.70822	0.07241
3223.42245	0.07202
3222.13668	0.07183
3220.85091	0.07193
3219.56514	0.07191
3218.27937	0.07134
3216.99360	0.07036
3215.70784	0.06952
3214.42207	0.06916
3213.13630	0.06916
3211.85053	0.06930
3210.56476	0.06946
3209.27899	0.06957
3207.99322	0.06947
3206.70745	0.06904
3205.42169	0.06833
3204.13592	0.06757
3202.85015	0.06700
3201.56438	0.06681
3200.27861	0.06707
3198.99284	0.06763
3197.70707	0.06815
3196.42130	0.06836
3195.13553	0.06815
3193.84977	0.06760
3192.56400	0.06685
3191.27823	0.06609
3189.99246	0.06563
3188.70669	0.06577
3187.42092	0.06656
3186.13515	0.06757
3184.84938	0.06817
3183.56362	0.06800
3182.27785	0.06722
3180.99208	0.06631
3179.70631	0.06565
3178.42054	0.06531
3177.13477	0.06521
3175.84900	0.06527
3174.56323	0.06543
3173.27746	0.06554
3171.99170	0.06551
3170.70593	0.06537
3169.42016	0.06532
3168.13439	0.06546
3166.84862	0.06565
3165.56285	0.06556
3164.27708	0.06503
3162.99131	0.06424
3161.70555	0.06357
3160.41978	0.06328
3159.13401	0.06334
3157.84824	0.06355
3156.56247	0.06372
3155.27670	0.06379
3153.99093	0.06386
3152.70516	0.06406
3151.41939	0.06435
3150.13363	0.06457
3148.84786	0.06467
3147.56209	0.06469
3146.27632	0.06464
3144.99055	0.06443
3143.70478	0.06400
3142.41901	0.06348
3141.13324	0.06303
3139.84748	0.06272
3138.56171	0.06250
3137.27594	0.06235
3135.99017	0.06231
3134.70440	0.06239
3133.41863	0.06251
3132.13286	0.06257
3130.84709	0.06250
3129.56132	0.06221
3128.27556	0.06161
3126.98979	0.06082
3125.70402	0.06020
3124.41825	0.06013
3123.13248	0.06054
3121.84671	0.06100
3120.56094	0.06108
3119.27517	0.06074
3117.98940	0.06023
3116.70364	0.05981
3115.41787	0.05960
3114.13210	0.05964
3112.84633	0.05997
3111.56056	0.06048
3110.27479	0.06093
3108.98902	0.06105
3107.70325	0.06079
3106.41749	0.06030
3105.13172	0.05984
3103.84595	0.05968
3102.56018	0.05996
3101.27441	0.06051
3099.98864	0.06097
3098.70287	0.06108
3097.41710	0.06098
3096.13133	0.06091
3094.84557	0.06087
3093.55980	0.06061
3092.27403	0.06004
3090.98826	0.05946
3089.70249	0.05929
3088.41672	0.05957
3087.13095	0.05998
3085.84518	0.06022
3084.55942	0.06019
3083.27365	0.06000
3081.98788	0.05976
3080.70211	0.05953
3079.41634	0.05932
3078.13057	0.05921
3076.84480	0.05934
3075.55903	0.05967
3074.27326	0.06002
3072.98750	0.06017
3071.70173	0.06011
3070.41596	0.05999
3069.13019	0.05993
3067.84442	0.05989
3066.55865	0.05971
3065.27288	0.05927
3063.98711	0.05867
3062.70135	0.05818
3061.41558	0.05808
3060.12981	0.05842
3058.84404	0.05897
3057.55827	0.05945
3056.27250	0.05960
3054.98673	0.05932
3053.70096	0.05869
3052.41519	0.05791
3051.12943	0.05717
3049.84366	0.05663
3048.55789	0.05638
3047.27212	0.05647
3045.98635	0.05691
3044.70058	0.05751
3043.41481	0.05797
3042.12904	0.05818
3040.84328	0.05821
3039.55751	0.05823
3038.27174	0.05819
3036.98597	0.05792
3035.70020	0.05740
3034.41443	0.05675
3033.12866	0.05613
3031.84289	0.05564
3030.55712	0.05537
3029.27136	0.05541
3027.98559	0.05574
3026.69982	0.05619
3025.41405	0.05651
3024.12828	0.05657
3022.84251	0.05641
3021.55674	0.05615
3020.27097	0.05585
3018.98521	0.05550
3017.69944	0.05513
3016.41367	0.05485
3015.12790	0.05473
3013.84213	0.05472
3012.55636	0.05472
3011.27059	0.05473
3009.98482	0.05481
3008.69905	0.05493
3007.41329	0.05496
3006.12752	0.05477
3004.84175	0.05447
3003.55598	0.05430
3002.27021	0.05444
3000.98444	0.05482
2999.69867	0.05515
2998.41290	0.05516
2997.12714	0.05482
2995.84137	0.05432
2994.55560	0.05390
2993.26983	0.05368
2991.98406	0.05367
2990.69829	0.05382
2989.41252	0.05411
2988.12675	0.05443
2986.84098	0.05461
2985.55522	0.05460
2984.26945	0.05458
2982.98368	0.05474
2981.69791	0.05501
2980.41214	0.05520
2979.12637	0.05524
2977.84060	0.05521
2976.55483	0.05517
2975.26907	0.05505
2973.98330	0.05481
2972.69753	0.05458
2971.41176	0.05463
2970.12599	0.05512
2968.84022	0.05586
2967.55445	0.05642
2966.26868	0.05658
2964.98291	0.05647
2963.69715	0.05638
2962.41138	0.05645
2961.12561	0.05662
2959.83984	0.05683
2958.55407	0.05707
2957.26830	0.05740
2955.98253	0.05788
2954.69676	0.05839
2953.41100	0.05868
2952.12523	0.05862
2950.83946	0.05833
2949.55369	0.05806
2948.26792	0.05792
2946.98215	0.05788
2945.69638	0.05788
2944.41061	0.05789
2943.12484	0.05784
2941.83908	0.05766
2940.55331	0.05742
2939.26754	0.05725
2937.98177	0.05730
2936.69600	0.05756
2935.41023	0.05800
2934.12446	0.05854
2932.83869	0.05903
2931.55293	0.05931
2930.26716	0.05932
2928.98139	0.05918
2927.69562	0.05907
2926.40985	0.05899
2925.12408	0.05885
2923.83831	0.05862
2922.55254	0.05831
2921.26677	0.05797
2919.98101	0.05765
2918.69524	0.05740
2917.40947	0.05718
2916.12370	0.05696
2914.83793	0.05682
2913.55216	0.05686
2912.26639	0.05697
2910.98062	0.05692
2909.69486	0.05657
2908.40909	0.05601
2907.12332	0.05551
2905.83755	0.05525
2904.55178	0.05517
2903.26601	0.05506
2901.98024	0.05475
2900.69447	0.05431
2899.40870	0.05390
2898.12294	0.05360
2896.83717	0.05334
2895.55140	0.05308
2894.26563	0.05281
2892.97986	0.05248
2891.69409	0.05212
2890.40832	0.05192
2889.12255	0.05202
2887.83678	0.05235
2886.55102	0.05259
2885.26525	0.05255
2883.97948	0.05232
2882.69371	0.05210
2881.40794	0.05203
2880.12217	0.05216
2878.83640	0.05246
2877.55063	0.05288
2876.26487	0.05329
2874.97910	0.05355
2873.69333	0.05361
2872.40756	0.05355
2871.12179	0.05342
2869.83602	0.05323
2868.55025	0.05295
2867.26448	0.05260
2865.97871	0.05229
2864.69295	0.05213
2863.40718	0.05216
2862.12141	0.05235
2860.83564	0.05259
2859.54987	0.05274
2858.26410	0.05272
2856.97833	0.05249
2855.69256	0.05215
2854.40680	0.05183
2853.12103	0.05160
2851.83526	0.05139
2850.54949	0.05115
2849.26372	0.05085
2847.97795	0.05054
2846.69218	0.05026
2845.40641	0.04999
2844.12064	0.04977
2842.83488	0.04959
2841.54911	0.04943
2840.26334	0.04914
2838.97757	0.04862
2837.69180	0.04795
2836.40603	0.04741
2835.12026	0.04727
2833.83449	0.04750
2832.54873	0.04783
2831.26296	0.04802
2829.97719	0.04799
2828.69142	0.04782
2827.40565	0.04755
2826.11988	0.04720
2824.83411	0.04681
2823.54834	0.04652
2822.26257	0.04639
2820.97681	0.04640
2819.69104	0.04648
2818.40527	0.04660
2817.11950	0.04664
2815.83373	0.04650
2814.54796	0.04615
2813.26219	0.04573
2811.97642	0.04538
2810.69066	0.04519
2809.40489	0.04519
2808.11912	0.04536
2806.83335	0.04557
2805.54758	0.04566
2804.26181	0.04557
2802.97604	0.04543
2801.69027	0.04542
2800.40450	0.04558
2799.11874	0.04580
2797.83297	0.04592
2796.54720	0.04589
2795.26143	0.04571
2793.97566	0.04541
2792.68989	0.04500
2791.40412	0.04449
2790.11835	0.04400
2788.83259	0.04367
2787.54682	0.04358
2786.26105	0.04367
2784.97528	0.04376
2783.68951	0.04380
2782.40374	0.04385
2781.11797	0.04396
2779.83220	0.04404
2778.54643	0.04400
2777.26067	0.04387
2775.97490	0.04375
2774.68913	0.04366
2773.40336	0.04356
2772.11759	0.04346
2770.83182	0.04341
2769.54605	0.04341
2768.26028	0.04337
2766.97452	0.04319
2765.68875	0.04287
2764.40298	0.04254
2763.11721	0.04234
2761.83144	0.04231
2760.54567	0.04230
2759.25990	0.04218
2757.97413	0.04196
2756.68836	0.04184
2755.40260	0.04196
2754.11683	0.04220
2752.83106	0.04231
2751.54529	0.04217
2750.25952	0.04190
2748.97375	0.04179
2747.68798	0.04192
2746.40221	0.04213
2745.11645	0.04222
2743.83068	0.04221
2742.54491	0.04221
2741.25914	0.04232
2739.97337	0.04244
2738.68760	0.04247
2737.40183	0.04237
2736.11606	0.04218
2734.83029	0.04195
2733.54453	0.04172
2732.25876	0.04159
2730.97299	0.04161
2729.68722	0.04167
2728.40145	0.04161
2727.11568	0.04136
2725.82991	0.04107
2724.54414	0.04093
2723.25838	0.04095
2721.97261	0.04091
2720.68684	0.04064
2719.40107	0.04018
2718.11530	0.03981
2716.82953	0.03977
2715.54376	0.04001
2714.25799	0.04031
2712.97222	0.04043
2711.68646	0.04029
2710.40069	0.04004
2709.11492	0.03992
2707.82915	0.04002
2706.54338	0.04021
2705.25761	0.04033
2703.97184	0.04031
2702.68607	0.04018
2701.40031	0.03997
2700.11454	0.03972
2698.82877	0.03947
2697.54300	0.03929
2696.25723	0.03922
2694.97146	0.03929
2693.68569	0.03944
2692.39992	0.03955
2691.11415	0.03951
2689.82839	0.03933
2688.54262	0.03915
2687.25685	0.03906
2685.97108	0.03899
2684.68531	0.03889
2683.39954	0.03878
2682.11377	0.03870
2680.82800	0.03866
2679.54224	0.03860
2678.25647	0.03852
2676.97070	0.03845
2675.68493	0.03850
2674.39916	0.03868
2673.11339	0.03888
2671.82762	0.03902
2670.54185	0.03906
2669.25608	0.03905
2667.97032	0.03904
2666.68455	0.03900
2665.39878	0.03893
2664.11301	0.03882
2662.82724	0.03870
2661.54147	0.03863
2660.25570	0.03865
2658.96993	0.03871
2657.68417	0.03867
2656.39840	0.03844
2655.11263	0.03812
2653.82686	0.03794
2652.54109	0.03802
2651.25532	0.03824
2649.96955	0.03837
2648.68378	0.03832
2647.39801	0.03813
2646.11225	0.03789
2644.82648	0.03764
2643.54071	0.03743
2642.25494	0.03741
2640.96917	0.03762
2639.68340	0.03792
2638.39763	0.03802
2637.11186	0.03781
2635.82609	0.03738
2634.54033	0.03689
2633.25456	0.03640
2631.96879	0.03600
2630.68302	0.03577
2629.39725	0.03572
2628.11148	0.03578
2626.82571	0.03579
2625.53994	0.03561
2624.25418	0.03519
2622.96841	0.03470
2621.68264	0.03441
2620.39687	0.03447
2619.11110	0.03474
2617.82533	0.03496
2616.53956	0.03494
2615.25379	0.03473
2613.96802	0.03449
2612.68226	0.03437
2611.39649	0.03436
2610.11072	0.03429
2608.82495	0.03402
2607.53918	0.03362
2606.25341	0.03330
2604.96764	0.03322
2603.68187	0.03334
2602.39611	0.03349
2601.11034	0.03357
2599.82457	0.03361
2598.53880	0.03372
2597.25303	0.03383
2595.96726	0.03372
2594.68149	0.03331
2593.39572	0.03287
2592.10995	0.03279
2590.82419	0.03315
2589.53842	0.03363
2588.25265	0.03380
2586.96688	0.03351
2585.68111	0.03297
2584.39534	0.03243
2583.10957	0.03205
2581.82380	0.03185
2580.53804	0.03187
2579.25227	0.03210
2577.96650	0.03246
2576.68073	0.03276
2575.39496	0.03291
2574.10919	0.03292
2572.82342	0.03285
2571.53765	0.03273
2570.25188	0.03256
2568.96612	0.03236
2567.68035	0.03217
2566.39458	0.03209
2565.10881	0.03219
2563.82304	0.03247
2562.53727	0.03276
2561.25150	0.03287
2559.96573	0.03271
2558.67997	0.03235
2557.39420	0.03188
2556.10843	0.03143
2554.82266	0.03120
2553.53689	0.03127
2552.25112	0.03154
2550.96535	0.03175
2549.67958	0.03178
2548.39381	0.03166
2547.10805	0.03151
2545.82228	0.03143
2544.53651	0.03151
2543.25074	0.03164
2541.96497	0.03162
2540.67920	0.03133
2539.39343	0.03088
2538.10766	0.03052
2536.82190	0.03038
2535.53613	0.03038
2534.25036	0.03039
2532.96459	0.03038
2531.67882	0.03044
2530.39305	0.03061
2529.10728	0.03080
2527.82151	0.03089
2526.53574	0.03077
2525.24998	0.03048
2523.96421	0.03023
2522.67844	0.03014
2521.39267	0.03016
2520.10690	0.03016
2518.82113	0.03013
2517.53536	0.03017
2516.24959	0.03025
2514.96383	0.03029
2513.67806	0.03032
2512.39229	0.03048
2511.10652	0.03070
2509.82075	0.03076
2508.53498	0.03051
2507.24921	0.03004
2505.96344	0.02965
2504.67767	0.02958
2503.39191	0.02979
2502.10614	0.02996
2500.82037	0.02978
2499.53460	0.02925
2498.24883	0.02871
2496.96306	0.02851
2495.67729	0.02868
2494.39152	0.02899
2493.10576	0.02916
2491.81999	0.02914
2490.53422	0.02903
2489.24845	0.02899
2487.96268	0.02910
2486.67691	0.02936
2485.39114	0.02966
2484.10537	0.02992
2482.81960	0.03016
2481.53384	0.03044
2480.24807	0.03068
2478.96230	0.03068
2477.67653	0.03029
2476.39076	0.02971
2475.10499	0.02930
2473.81922	0.02922
2472.53345	0.02936
2471.24769	0.02946
2469.96192	0.02947
2468.67615	0.02953
2467.39038	0.02968
2466.10461	0.02975
2464.81884	0.02952
2463.53307	0.02903
2462.24730	0.02859
2460.96153	0.02851
2459.67577	0.02882
2458.39000	0.02926
2457.10423	0.02954
2455.81846	0.02952
2454.53269	0.02929
2453.24692	0.02899
2451.96115	0.02874
2450.67538	0.02858
2449.38962	0.02851
2448.10385	0.02851
2446.81808	0.02860
2445.53231	0.02875
2444.24654	0.02886
2442.96077	0.02883
2441.67500	0.02870
2440.38923	0.02868
2439.10346	0.02884
2437.81770	0.02899
2436.53193	0.02890
2435.24616	0.02857
2433.96039	0.02820
2432.67462	0.02796
2431.38885	0.02784
2430.10308	0.02774
2428.81731	0.02758
2427.53155	0.02733
2426.24578	0.02708
2424.96001	0.02691
2423.67424	0.02689
2422.38847	0.02705
2421.10270	0.02738
2419.81693	0.02777
2418.53116	0.02805
2417.24539	0.02812
2415.95963	0.02806
2414.67386	0.02796
2413.38809	0.02783
2412.10232	0.02758
2410.81655	0.02722
2409.53078	0.02691
2408.24501	0.02681
2406.95924	0.02684
2405.67347	0.02684
2404.38771	0.02669
2403.10194	0.02646
2401.81617	0.02624
2400.53040	0.02608
2399.24463	0.02601
2397.95886	0.02611
2396.67309	0.02643
2395.38732	0.02697
2394.10156	0.02756
2392.81579	0.02796
2391.53002	0.02801
2390.24425	0.02773
2388.95848	0.02735
2387.67271	0.02715
2386.38694	0.02723
2385.10117	0.02750
2383.81540	0.02773
2382.52964	0.02781
2381.24387	0.02776
2379.95810	0.02763
2378.67233	0.02747
2377.38656	0.02726
2376.10079	0.02699
2374.81502	0.02682
2373.52925	0.02672
2372.24349	0.02676
2370.95772	0.02662
2369.67195	0.02648
2368.38618	0.02618
2367.10041	0.02566
2365.81464	0.02492
2364.52887	0.02470
2363.24310	0.02489
2361.95733	0.02515
2360.67157	0.02501
2359.38580	0.02510
2358.10003	0.02522
2356.81426	0.02525
2355.52849	0.02522
2354.24272	0.02514
2352.95695	0.02536
2351.67118	0.02552
2350.38542	0.02539
2349.09965	0.02545
2347.81388	0.02599
2346.52811	0.02589
2345.24234	0.02522
2343.95657	0.02505
2342.67080	0.02588
2341.38503	0.02615
2340.09926	0.02543
2338.81350	0.02564
2337.52773	0.02688
2336.24196	0.02674
2334.95619	0.02545
2333.67042	0.02551
2332.38465	0.02674
2331.09888	0.02567
2329.81311	0.02440
2328.52735	0.02585
2327.24158	0.02577
2325.95581	0.02500
2324.67004	0.02662
2323.38427	0.02719
2322.09850	0.02613
2320.81273	0.02700
2319.52696	0.02690
2318.24119	0.02618
2316.95543	0.02692
2315.66966	0.02686
2314.38389	0.02654
2313.09812	0.02693
2311.81235	0.02661
2310.52658	0.02673
2309.24081	0.02701
2307.95504	0.02695
2306.66928	0.02727
2305.38351	0.02717
2304.09774	0.02691
2302.81197	0.02672
2301.52620	0.02644
2300.24043	0.02637
2298.95466	0.02619
2297.66889	0.02596
2296.38312	0.02573
2295.09736	0.02560
2293.81159	0.02574
2292.52582	0.02594
2291.24005	0.02606
2289.95428	0.02591
2288.66851	0.02555
2287.38274	0.02510
2286.09697	0.02471
2284.81121	0.02455
2283.52544	0.02474
2282.23967	0.02523
2280.95390	0.02582
2279.66813	0.02625
2278.38236	0.02637
2277.09659	0.02613
2275.81082	0.02559
2274.52505	0.02489
2273.23929	0.02420
2271.95352	0.02362
2270.66775	0.02319
2269.38198	0.02292
2268.09621	0.02280
2266.81044	0.02269
2265.52467	0.02243
2264.23890	0.02208
2262.95314	0.02178
2261.66737	0.02157
2260.38160	0.02140
2259.09583	0.02122
2257.81006	0.02108
2256.52429	0.02111
2255.23852	0.02130
2253.95275	0.02128
2252.66698	0.02082
2251.38122	0.02010
2250.09545	0.01952
2248.80968	0.01940
2247.52391	0.01967
2246.23814	0.01994
2244.95237	0.01995
2243.66660	0.01974
2242.38083	0.01949
2241.09507	0.01930
2239.80930	0.01921
2238.52353	0.01928
2237.23776	0.01957
2235.95199	0.02004
2234.66622	0.02050
2233.38045	0.02074
2232.09468	0.02065
2230.80891	0.02021
2229.52315	0.01943
2228.23738	0.01841
2226.95161	0.01749
2225.66584	0.01707
2224.38007	0.01736
2223.09430	0.01811
2221.80853	0.01879
2220.52276	0.01899
2219.23700	0.01868
2217.95123	0.01822
2216.66546	0.01803
2215.37969	0.01810
2214.09392	0.01806
2212.80815	0.01772
2211.52238	0.01743
2210.23661	0.01761
2208.95084	0.01803
2207.66508	0.01810
2206.37931	0.01763
2205.09354	0.01712
2203.80777	0.01703
2202.52200	0.01716
2201.23623	0.01691
2199.95046	0.01610
2198.66469	0.01524
2197.37893	0.01489
2196.09316	0.01509
2194.80739	0.01548
2193.52162	0.01582
2192.23585	0.01618
2190.95008	0.01654
2189.66431	0.01670
2188.37854	0.01664
2187.09277	0.01657
2185.80701	0.01656
2184.52124	0.01628
2183.23547	0.01562
2181.94970	0.01514
2180.66393	0.01553
2179.37816	0.01667
2178.09239	0.01761
2176.80662	0.01751
2175.52085	0.01638
2174.23509	0.01491
2172.94932	0.01386
2171.66355	0.01358
2170.37778	0.01395
2169.09201	0.01454
2167.80624	0.01487
2166.52047	0.01475
2165.23470	0.01445
2163.94894	0.01434
2162.66317	0.01431
2161.37740	0.01367
2160.09163	0.01198
2158.80586	0.00984
2157.52009	0.00844
2156.23432	0.00831
2154.94855	0.00896
2153.66278	0.00973
2152.37702	0.01029
2151.09125	0.01064
2149.80548	0.01083
2148.51971	0.01087
2147.23394	0.01109
2145.94817	0.01198
2144.66240	0.01365
2143.37663	0.01543
2142.09087	0.01643
2140.80510	0.01654
2139.51933	0.01649
2138.23356	0.01693
2136.94779	0.01773
2135.66202	0.01837
2134.37625	0.01855
2133.09048	0.01828
2131.80471	0.01780
2130.51895	0.01738
2129.23318	0.01722
2127.94741	0.01729
2126.66164	0.01741
2125.37587	0.01749
2124.09010	0.01759
2122.80433	0.01773
2121.51856	0.01770
2120.23280	0.01722
2118.94703	0.01642
2117.66126	0.01583
2116.37549	0.01594
2115.08972	0.01662
2113.80395	0.01717
2112.51818	0.01708
2111.23241	0.01654
2109.94664	0.01617
2108.66088	0.01642
2107.37511	0.01722
2106.08934	0.01807
2104.80357	0.01850
2103.51780	0.01841
2102.23203	0.01807
2100.94626	0.01777
2099.66049	0.01703
2098.37473	0.01652
2097.08896	0.01613
2095.80319	0.01572
2094.51742	0.01534
2093.23165	0.01504
2091.94588	0.01490
2090.66011	0.01502
2089.37434	0.01544
2088.08857	0.01600
2086.80281	0.01641
2085.51704	0.01650
2084.23127	0.01643
2082.94550	0.01643
2081.65973	0.01659
2080.37396	0.01677
2079.08819	0.01674
2077.80242	0.01638
2076.51666	0.01568
2075.23089	0.01470
2073.94512	0.01358
2072.65935	0.01258
2071.37358	0.01199
2070.08781	0.01186
2068.80204	0.01193
2067.51627	0.01190
2066.23050	0.01175
2064.94474	0.01178
2063.65897	0.01224
2062.37320	0.01297
2061.08743	0.01350
2059.80166	0.01344
2058.51589	0.01275
2057.23012	0.01174
2055.94435	0.01100
2054.65859	0.01109
2053.37282	0.01211
2052.08705	0.01345
2050.80128	0.01419
2049.51551	0.01379
2048.22974	0.01250
2046.94397	0.01102
2045.65820	0.00992
2044.37243	0.00937
2043.08667	0.00923
2041.80090	0.00926
2040.51513	0.00929
2039.22936	0.00925
2037.94359	0.00921
2036.65782	0.00930
2035.37205	0.00962
2034.08628	0.01008
2032.80052	0.01034
2031.51475	0.01001
2030.22898	0.00908
2028.94321	0.00801
2027.65744	0.00732
2026.37167	0.00713
2025.08590	0.00707
2023.80013	0.00675
2022.51436	0.00622
2021.22860	0.00600
2019.94283	0.00649
2018.65706	0.00751
2017.37129	0.00851
2016.08552	0.00907
2014.79975	0.00929
2013.51398	0.00939
2012.22821	0.00937
2010.94245	0.00913
2009.65668	0.00874
2008.37091	0.00852
2007.08514	0.00879
2005.79937	0.00961
2004.51360	0.01075
2003.22783	0.01178
2001.94206	0.01225
2000.65629	0.01205
1999.37053	0.01150
1998.08476	0.01114
1996.79899	0.01136
1995.51322	0.01215
1994.22745	0.01312
1992.94168	0.01370
1991.65591	0.01353
1990.37014	0.01282
1989.08438	0.01218
1987.79861	0.01210
1986.51284	0.01249
1985.22707	0.01283
1983.94130	0.01262
1982.65553	0.01173
1981.36976	0.01047
1980.08399	0.00941
1978.79822	0.00904
1977.51246	0.00931
1976.22669	0.00972
1974.94092	0.00989
1973.65515	0.00993
1972.36938	0.01022
1971.08361	0.01089
1969.79784	0.01179
1968.51207	0.01262
1967.22631	0.01315
1965.94054	0.01317
1964.65477	0.01263
1963.36900	0.01171
1962.08323	0.01086
1960.79746	0.01046
1959.51169	0.01064
1958.22592	0.01127
1956.94015	0.01216
1955.65439	0.01307
1954.36862	0.01371
1953.08285	0.01389
1951.79708	0.01364
1950.51131	0.01323
1949.22554	0.01292
1947.93977	0.01288
1946.65400	0.01317
1945.36823	0.01372
1944.08247	0.01429
1942.79670	0.01454
1941.51093	0.01433
1940.22516	0.01386
1938.93939	0.01351
1937.65362	0.01350
1936.36785	0.01380
1935.08208	0.01419
1933.79632	0.01454
1932.51055	0.01482
1931.22478	0.01505
1929.93901	0.01519
1928.65324	0.01508
1927.36747	0.01463
1926.08170	0.01391
1924.79593	0.01326
1923.51016	0.01298
1922.22440	0.01318
1920.93863	0.01372
1919.65286	0.01433
1918.36709	0.01480
1917.08132	0.01504
1915.79555	0.01514
1914.50978	0.01515
1913.22401	0.01500
1911.93825	0.01467
1910.65248	0.01427
1909.36671	0.01397
1908.08094	0.01386
1906.79517	0.01393
1905.50940	0.01407
1904.22363	0.01413
1902.93786	0.01411
1901.65209	0.01415
1900.36633	0.01438
1899.08056	0.01470
1897.79479	0.01490
1896.50902	0.01480
1895.22325	0.01444
1893.93748	0.01399
1892.65171	0.01359
1891.36594	0.01331
1890.08018	0.01321
1888.79441	0.01336
1887.50864	0.01382
1886.22287	0.01443
1884.93710	0.01489
1883.65133	0.01501
1882.36556	0.01490
1881.07979	0.01482
1879.79402	0.01488
1878.50826	0.01501
1877.22249	0.01512
1875.93672	0.01517
1874.65095	0.01520
1873.36518	0.01522
1872.07941	0.01524
1870.79364	0.01523
1869.50787	0.01507
1868.22211	0.01473
1866.93634	0.01436
1865.65057	0.01415
1864.36480	0.01417
1863.07903	0.01434
1861.79326	0.01454
1860.50749	0.01467
1859.22172	0.01476
1857.93595	0.01487
1856.65019	0.01498
1855.36442	0.01505
1854.07865	0.01501
1852.79288	0.01490
1851.50711	0.01484
1850.22134	0.01486
1848.93557	0.01487
1847.64980	0.01477
1846.36404	0.01456
1845.07827	0.01435
1843.79250	0.01427
1842.50673	0.01438
1841.22096	0.01464
1839.93519	0.01493
1838.64942	0.01510
1837.36365	0.01509
1836.07788	0.01494
1834.79212	0.01468
1833.50635	0.01435
1832.22058	0.01406
1830.93481	0.01391
1829.64904	0.01392
1828.36327	0.01403
1827.07750	0.01415
1825.79173	0.01420
1824.50597	0.01413
1823.22020	0.01405
1821.93443	0.01409
1820.64866	0.01426
1819.36289	0.01446
1818.07712	0.01457
1816.79135	0.01454
1815.50558	0.01447
1814.21981	0.01449
1812.93405	0.01468
1811.64828	0.01496
1810.36251	0.01517
1809.07674	0.01526
1807.79097	0.01528
1806.50520	0.01533
1805.21943	0.01539
1803.93366	0.01541
1802.64790	0.01533
1801.36213	0.01513
1800.07636	0.01491
1798.79059	0.01474
1797.50482	0.01468
1796.21905	0.01468
1794.93328	0.01471
1793.64751	0.01474
1792.36174	0.01474
1791.07598	0.01470
1789.79021	0.01468
1788.50444	0.01472
1787.21867	0.01483
1785.93290	0.01493
1784.64713	0.01496
1783.36136	0.01491
1782.07559	0.01489
1780.78983	0.01495
1779.50406	0.01507
1778.21829	0.01514
1776.93252	0.01508
1775.64675	0.01494
1774.36098	0.01484
1773.07521	0.01484
1771.78944	0.01488
1770.50367	0.01491
1769.21791	0.01495
1767.93214	0.01495
1766.64637	0.01489
1765.36060	0.01485
1764.07483	0.01491
1762.78906	0.01502
1761.50329	0.01508
1760.21752	0.01507
1758.93176	0.01507
1757.64599	0.01516
1756.36022	0.01528
1755.07445	0.01537
1753.78868	0.01541
1752.50291	0.01538
1751.21714	0.01525
1749.93137	0.01507
1748.64560	0.01498
1747.35984	0.01501
1746.07407	0.01508
1744.78830	0.01516
1743.50253	0.01523
1742.21676	0.01533
1740.93099	0.01542
1739.64522	0.01543
1738.35945	0.01531
1737.07369	0.01523
1735.78792	0.01531
1734.50215	0.01546
1733.21638	0.01552
1731.93061	0.01553
1730.64484	0.01564
1729.35907	0.01582
1728.07330	0.01596
1726.78753	0.01603
1725.50177	0.01609
1724.21600	0.01615
1722.93023	0.01617
1721.64446	0.01616
1720.35869	0.01624
1719.07292	0.01647
1717.78715	0.01675
1716.50138	0.01694
1715.21561	0.01707
1713.92985	0.01723
1712.64408	0.01748
1711.35831	0.01781
1710.07254	0.01820
1708.78677	0.01863
1707.50100	0.01911
1706.21523	0.01962
1704.92946	0.02006
1703.64370	0.02046
1702.35793	0.02099
1701.07216	0.02161
1699.78639	0.02215
1698.50062	0.02271
1697.21485	0.02353
1695.92908	0.02453
1694.64331	0.02540
1693.35754	0.02617
1692.07178	0.02705
1690.78601	0.02804
1689.50024	0.02898
1688.21447	0.02983
1686.92870	0.03073
1685.64293	0.03172
1684.35716	0.03262
1683.07139	0.03333
1681.78563	0.03402
1680.49986	0.03475
1679.21409	0.03542
1677.92832	0.03607
1676.64255	0.03684
1675.35678	0.03775
1674.07101	0.03865
1672.78524	0.03949
1671.49947	0.04037
1670.21371	0.04130
1668.92794	0.04222
1667.64217	0.04307
1666.35640	0.04384
1665.07063	0.04458
1663.78486	0.04531
1662.49909	0.04599
1661.21332	0.04664
1659.92756	0.04727
1658.64179	0.04782
1657.35602	0.04821
1656.07025	0.04856
1654.78448	0.04905
1653.49871	0.04961
1652.21294	0.05001
1650.92717	0.05025
1649.64140	0.05056
1648.35564	0.05103
1647.06987	0.05151
1645.78410	0.05187
1644.49833	0.05209
1643.21256	0.05222
1641.92679	0.05224
1640.64102	0.05212
1639.35525	0.05190
1638.06949	0.05169
1636.78372	0.05151
1635.49795	0.05125
1634.21218	0.05089
1632.92641	0.05057
1631.64064	0.05036
1630.35487	0.05017
1629.06910	0.04987
1627.78333	0.04944
1626.49757	0.04895
1625.21180	0.04849
1623.92603	0.04810
1622.64026	0.04770
1621.35449	0.04729
1620.06872	0.04693
1618.78295	0.04668
1617.49718	0.04649
1616.21142	0.04621
1614.92565	0.04590
1613.63988	0.04571
1612.35411	0.04569
1611.06834	0.04569
1609.78257	0.04564
1608.49680	0.04555
1607.21103	0.04549
1605.92526	0.04549
1604.63950	0.04552
1603.35373	0.04557
1602.06796	0.04562
1600.78219	0.04567
1599.49642	0.04570
1598.21065	0.04572
1596.92488	0.04576
1595.63911	0.04580
1594.35335	0.04585
1593.06758	0.04590
1591.78181	0.04594
1590.49604	0.04596
1589.21027	0.04597
1587.92450	0.04598
1586.63873	0.04602
1585.35296	0.04609
1584.06719	0.04623
1582.78143	0.04642
1581.49566	0.04666
1580.20989	0.04690
1578.92412	0.04717
1577.63835	0.04748
1576.35258	0.04776
1575.06681	0.04791
1573.78104	0.04804
1572.49528	0.04831
1571.20951	0.04866
1569.92374	0.04893
1568.63797	0.04910
1567.35220	0.04926
1566.06643	0.04951
1564.78066	0.04977
1563.49489	0.04991
1562.20912	0.05001
1560.92336	0.05019
1559.63759	0.05043
1558.35182	0.05057
1557.06605	0.05064
1555.78028	0.05077
1554.49451	0.05096
1553.20874	0.05109
1551.92297	0.05117
1550.63721	0.05126
1549.35144	0.05127
1548.06567	0.05116
1546.77990	0.05096
1545.49413	0.05069
1544.20836	0.05036
1542.92259	0.05002
1541.63682	0.04976
1540.35105	0.04957
1539.06529	0.04934
1537.77952	0.04900
1536.49375	0.04868
1535.20798	0.04846
1533.92221	0.04825
1532.63644	0.04793
1531.35067	0.04755
1530.06490	0.04722
1528.77914	0.04697
1527.49337	0.04676
1526.20760	0.04655
1524.92183	0.04635
1523.63606	0.04625
1522.35029	0.04630
1521.06452	0.04639
1519.77875	0.04645
1518.49298	0.04651
1517.20722	0.04660
1515.92145	0.04665
1514.63568	0.04672
1513.34991	0.04688
1512.06414	0.04710
1510.77837	0.04734
1509.49260	0.04764
1508.20683	0.04806
1506.92107	0.04850
1505.63530	0.04880
1504.34953	0.04903
1503.06376	0.04935
1501.77799	0.04978
1500.49222	0.05016
1499.20645	0.05043
1497.92068	0.05062
1496.63491	0.05077
1495.34915	0.05090
1494.06338	0.05103
1492.77761	0.05123
1491.49184	0.05150
1490.20607	0.05180
1488.92030	0.05210
1487.63453	0.05244
1486.34876	0.05281
1485.06299	0.05320
1483.77723	0.05366
1482.49146	0.05424
1481.20569	0.05491
1479.91992	0.05564
1478.63415	0.05633
1477.34838	0.05693
1476.06261	0.05744
1474.77684	0.05798
1473.49108	0.05864
1472.20531	0.05938
1470.91954	0.06009
1469.63377	0.06072
1468.34800	0.06127
1467.06223	0.06175
1465.77646	0.06217
1464.49069	0.06253
1463.20492	0.06285
1461.91916	0.06322
1460.63339	0.06373
1459.34762	0.06448
1458.06185	0.06543
1456.77608	0.06632
1455.49031	0.06699
1454.20454	0.06747
1452.91877	0.06788
1451.63301	0.06827
1450.34724	0.06862
1449.06147	0.06894
1447.77570	0.06916
1446.48993	0.06922
1445.20416	0.06915
1443.91839	0.06902
1442.63262	0.06885
1441.34685	0.06865
1440.06109	0.06842
1438.77532	0.06820
1437.48955	0.06800
1436.20378	0.06776
1434.91801	0.06752
1433.63224	0.06741
1432.34647	0.06753
1431.06070	0.06784
1429.77494	0.06831
1428.48917	0.06893
1427.20340	0.06969
1425.91763	0.07051
1424.63186	0.07131
1423.34609	0.07204
1422.06032	0.07281
1420.77455	0.07369
1419.48878	0.07456
1418.20302	0.07527
1416.91725	0.07580
1415.63148	0.07626
1414.34571	0.07665
1413.05994	0.07694
1411.77417	0.07707
1410.48840	0.07703
1409.20263	0.07683
1407.91687	0.07650
1406.63110	0.07606
1405.34533	0.07547
1404.05956	0.07471
1402.77379	0.07379
1401.48802	0.07277
1400.20225	0.07169
1398.91648	0.07054
1397.63071	0.06931
1396.34495	0.06806
1395.05918	0.06679
1393.77341	0.06550
1392.48764	0.06422
1391.20187	0.06300
1389.91610	0.06184
1388.63033	0.06070
1387.34456	0.05954
1386.05880	0.05838
1384.77303	0.05724
1383.48726	0.05614
1382.20149	0.05502
1380.91572	0.05387
1379.62995	0.05269
1378.34418	0.05149
1377.05841	0.05028
1375.77264	0.04906
1374.48688	0.04784
1373.20111	0.04661
1371.91534	0.04541
1370.62957	0.04427
1369.34380	0.04321
1368.05803	0.04223
1366.77226	0.04135
1365.48649	0.04055
1364.20073	0.03982
1362.91496	0.03912
1361.62919	0.03845
1360.34342	0.03785
1359.05765	0.03733
1357.77188	0.03686
1356.48611	0.03642
1355.20034	0.03603
1353.91457	0.03568
1352.62881	0.03537
1351.34304	0.03506
1350.05727	0.03476
1348.77150	0.03448
1347.48573	0.03420
1346.19996	0.03392
1344.91419	0.03362
1343.62842	0.03333
1342.34266	0.03306
1341.05689	0.03282
1339.77112	0.03259
1338.48535	0.03231
1337.19958	0.03196
1335.91381	0.03156
1334.62804	0.03114
1333.34227	0.03077
1332.05650	0.03047
1330.77074	0.03022
1329.48497	0.02999
1328.19920	0.02971
1326.91343	0.02938
1325.62766	0.02904
1324.34189	0.02874
1323.05612	0.02847
1321.77035	0.02821
1320.48459	0.02792
1319.19882	0.02760
1317.91305	0.02728
1316.62728	0.02699
1315.34151	0.02678
1314.05574	0.02663
1312.76997	0.02650
1311.48420	0.02635
1310.19843	0.02611
1308.91267	0.02578
1307.62690	0.02537
1306.34113	0.02494
1305.05536	0.02457
1303.76959	0.02430
1302.48382	0.02415
1301.19805	0.02406
1299.91228	0.02398
1298.62652	0.02386
1297.34075	0.02368
1296.05498	0.02346
1294.76921	0.02326
1293.48344	0.02310
1292.19767	0.02300
1290.91190	0.02294
1289.62613	0.02288
1288.34036	0.02282
1287.05460	0.02275
1285.76883	0.02269
1284.48306	0.02267
1283.19729	0.02266
1281.91152	0.02262
1280.62575	0.02251
1279.33998	0.02239
1278.05421	0.02228
1276.76845	0.02223
1275.48268	0.02221
1274.19691	0.02219
1272.91114	0.02212
1271.62537	0.02201
1270.33960	0.02188
1269.05383	0.02180
1267.76806	0.02178
1266.48229	0.02179
1265.19653	0.02181
1263.91076	0.02183
1262.62499	0.02187
1261.33922	0.02192
1260.05345	0.02193
1258.76768	0.02187
1257.48191	0.02177
1256.19614	0.02167
1254.91037	0.02161
1253.62461	0.02161
1252.33884	0.02165
1251.05307	0.02169
1249.76730	0.02171
1248.48153	0.02170
1247.19576	0.02164
1245.90999	0.02158
1244.62422	0.02156
1243.33846	0.02158
1242.05269	0.02163
1240.76692	0.02165
1239.48115	0.02161
1238.19538	0.02150
1236.90961	0.02133
1235.62384	0.02115
1234.33807	0.02100
1233.05230	0.02089
1231.76654	0.02079
1230.48077	0.02067
1229.19500	0.02051
1227.90923	0.02032
1226.62346	0.02011
1225.33769	0.01989
1224.05192	0.01967
1222.76615	0.01945
1221.48039	0.01923
1220.19462	0.01903
1218.90885	0.01882
1217.62308	0.01860
1216.33731	0.01837
1215.05154	0.01817
1213.76577	0.01802
1212.48000	0.01792
1211.19423	0.01787
1209.90847	0.01784
1208.62270	0.01785
1207.33693	0.01789
1206.05116	0.01791
1204.76539	0.01790
1203.47962	0.01784
1202.19385	0.01777
1200.90808	0.01774
1199.62232	0.01779
1198.33655	0.01775
1197.05078	0.01766
1195.76501	0.01752
1194.47924	0.01732
1193.19347	0.01712
1191.90770	0.01694
1190.62193	0.01679
1189.33616	0.01668
1188.05040	0.01664
1186.76463	0.01665
1185.47886	0.01666
1184.19309	0.01661
1182.90732	0.01647
1181.62155	0.01628
1180.33578	0.01609
1179.05001	0.01596
1177.76425	0.01587
1176.47848	0.01579
1175.19271	0.01569
1173.90694	0.01563
1172.62117	0.01566
1171.33540	0.01576
1170.04963	0.01590
1168.76386	0.01604
1167.47809	0.01619
1166.19233	0.01633
1164.90656	0.01641
1163.62079	0.01640
1162.33502	0.01635
1161.04925	0.01633
1159.76348	0.01634
1158.47771	0.01636
1157.19194	0.01636
1155.90618	0.01638
1154.62041	0.01643
1153.33464	0.01653
1152.04887	0.01666
1150.76310	0.01678
1149.47733	0.01688
1148.19156	0.01700
1146.90579	0.01722
1145.62002	0.01756
1144.33426	0.01800
1143.04849	0.01849
1141.76272	0.01898
1140.47695	0.01946
1139.19118	0.01996
1137.90541	0.02054
1136.61964	0.02124
1135.33387	0.02207
1134.04811	0.02301
1132.76234	0.02407
1131.47657	0.02524
1130.19080	0.02651
1128.90503	0.02786
1127.61926	0.02933
1126.33349	0.03095
1125.04772	0.03276
1123.76195	0.03471
1122.47619	0.03674
1121.19042	0.03881
1119.90465	0.04093
1118.61888	0.04313
1117.33311	0.04541
1116.04734	0.04772
1114.76157	0.04998
1113.47580	0.05214
1112.19004	0.05419
1110.90427	0.05621
1109.61850	0.05824
1108.33273	0.06030
1107.04696	0.06235
1105.76119	0.06435
1104.47542	0.06631
1103.18965	0.06825
1101.90388	0.07016
1100.61812	0.07201
1099.33235	0.07374
1098.04658	0.07533
1096.76081	0.07682
1095.47504	0.07824
1094.18927	0.07958
1092.90350	0.08079
1091.61773	0.08187
1090.33197	0.08289
1089.04620	0.08393
1087.76043	0.08503
1086.47466	0.08615
1085.18889	0.08721
1083.90312	0.08818
1082.61735	0.08913
1081.33158	0.09020
1080.04581	0.09147
1078.76005	0.09289
1077.47428	0.09439
1076.18851	0.09593
1074.90274	0.09754
1073.61697	0.09928
1072.33120	0.10113
1071.04543	0.10306
1069.75966	0.10504
1068.47390	0.10704
1067.18813	0.10909
1065.90236	0.11119
1064.61659	0.11330
1063.33082	0.11540
1062.04505	0.11750
1060.75928	0.11963
1059.47351	0.12177
1058.18774	0.12385
1056.90198	0.12586
1055.61621	0.12784
1054.33044	0.12987
1053.04467	0.13192
1051.75890	0.13397
1050.47313	0.13601
1049.18736	0.13805
1047.90159	0.14007
1046.61583	0.14204
1045.33006	0.14399
1044.04429	0.14600
1042.75852	0.14812
1041.47275	0.15032
1040.18698	0.15254
1038.90121	0.15475
1037.61544	0.15691
1036.32967	0.15898
1035.04391	0.16100
1033.75814	0.16300
1032.47237	0.16497
1031.18660	0.16688
1029.90083	0.16868
1028.61506	0.17033
1027.32929	0.17180
1026.04352	0.17304
1024.75775	0.17406
1023.47199	0.17487
1022.18622	0.17553
1020.90045	0.17598
1019.61468	0.17619
1018.32891	0.17613
1017.04314	0.17581
1015.75737	0.17525
1014.47160	0.17449
1013.18584	0.17352
1011.90007	0.17231
1010.61430	0.17076
1009.32853	0.16883
1008.04276	0.16659
1006.75699	0.16416
1005.47122	0.16164
1004.18545	0.15902
1002.89968	0.15622
1001.61392	0.15318
1000.32815	0.14989
999.04238	0.14641
997.75661	0.14277
996.47084	0.13901
995.18507	0.13513
993.89930	0.13119
992.61353	0.12730
991.32777	0.12354
990.04200	0.11991
988.75623	0.11637
987.47046	0.11288
986.18469	0.10944
984.89892	0.10603
983.61315	0.10265
982.32738	0.09936
981.04161	0.09626
979.75585	0.09345
978.47008	0.09092
977.18431	0.08854
975.89854	0.08626
974.61277	0.08411
973.32700	0.08219
972.04123	0.08059
970.75546	0.07931
969.46970	0.07837
968.18393	0.07780
966.89816	0.07765
965.61239	0.07791
964.32662	0.07846
963.04085	0.07910
961.75508	0.07961
960.46931	0.07985
959.18354	0.07969
957.89778	0.07912
956.61201	0.07813
955.32624	0.07680
954.04047	0.07525
952.75470	0.07362
951.46893	0.07198
950.18316	0.07032
948.89739	0.06866
947.61163	0.06707
946.32586	0.06561
945.04009	0.06421
943.75432	0.06282
942.46855	0.06146
941.18278	0.06019
939.89701	0.05900
938.61124	0.05781
937.32547	0.05656
936.03971	0.05528
934.75394	0.05403
933.46817	0.05288
932.18240	0.05183
930.89663	0.05082
929.61086	0.04980
928.32509	0.04882
927.03932	0.04796
925.75356	0.04731
924.46779	0.04679
923.18202	0.04629
921.89625	0.04571
920.61048	0.04509
919.32471	0.04448
918.03894	0.04392
916.75317	0.04338
915.46740	0.04280
914.18164	0.04225
912.89587	0.04181
911.61010	0.04149
910.32433	0.04119
909.03856	0.04079
907.75279	0.04028
906.46702	0.03972
905.18125	0.03923
903.89549	0.03884
902.60972	0.03853
901.32395	0.03824
900.03818	0.03794
898.75241	0.03760
897.46664	0.03720
896.18087	0.03677
894.89510	0.03635
893.60933	0.03599
892.32357	0.03565
891.03780	0.03530
889.75203	0.03503
888.46626	0.03499
887.18049	0.03528
885.89472	0.03592
884.60895	0.03695
883.32318	0.03838
882.03742	0.04014
880.75165	0.04197
879.46588	0.04355
878.18011	0.04475
876.89434	0.04570
875.60857	0.04666
874.32280	0.04772
873.03703	0.04869
871.75126	0.04927
870.46550	0.04928
869.17973	0.04875
867.89396	0.04782
866.60819	0.04662
865.32242	0.04519
864.03665	0.04358
862.75088	0.04196
861.46511	0.04048
860.17935	0.03924
858.89358	0.03819
857.60781	0.03729
856.32204	0.03648
855.03627	0.03574
853.75050	0.03511
852.46473	0.03466
851.17896	0.03438
849.89319	0.03420
848.60743	0.03400
847.32166	0.03375
846.03589	0.03346
844.75012	0.03321
843.46435	0.03297
842.17858	0.03270
840.89281	0.03237
839.60704	0.03198
838.32128	0.03160
837.03551	0.03127
835.74974	0.03101
834.46397	0.03083
833.17820	0.03067
831.89243	0.03047
830.60666	0.03028
829.32089	0.03014
828.03512	0.03005
826.74936	0.02992
825.46359	0.02976
824.17782	0.02967
822.89205	0.02970
821.60628	0.02978
820.32051	0.02978
819.03474	0.02969
817.74897	0.02962
816.46321	0.02964
815.17744	0.02967
813.89167	0.02960
812.60590	0.02940
811.32013	0.02918
810.03436	0.02903
808.74859	0.02897
807.46282	0.02894
806.17705	0.02893
804.89129	0.02894
803.60552	0.02897
802.31975	0.02896
801.03398	0.02889
799.74821	0.02880
798.46244	0.02879
797.17667	0.02889
795.89090	0.02910
794.60513	0.02932
793.31937	0.02946
792.03360	0.02946
790.74783	0.02935
789.46206	0.02920
788.17629	0.02907
786.89052	0.02899
785.60475	0.02894
784.31898	0.02887
783.03322	0.02880
781.74745	0.02877
780.46168	0.02881
779.17591	0.02891
777.89014	0.02899
776.60437	0.02901
775.31860	0.02897
774.03283	0.02892
772.74706	0.02888
771.46130	0.02885
770.17553	0.02884
768.88976	0.02888
767.60399	0.02895
766.31822	0.02901
765.03245	0.02902
763.74668	0.02899
762.46091	0.02893
761.17515	0.02885
759.88938	0.02877
758.60361	0.02870
757.31784	0.02865
756.03207	0.02863
754.74630	0.02864
753.46053	0.02868
752.17476	0.02871
750.88899	0.02871
749.60323	0.02871
748.31746	0.02873
747.03169	0.02877
745.74592	0.02872
744.46015	0.02854
743.17438	0.02827
741.88861	0.02800
740.60284	0.02781
739.31708	0.02774
738.03131	0.02779
736.74554	0.02792
735.45977	0.02808
734.17400	0.02821
732.88823	0.02825
731.60246	0.02821
730.31669	0.02815
729.03092	0.02812
727.74516	0.02812
726.45939	0.02813
725.17362	0.02811
723.88785	0.02808
722.60208	0.02808
721.31631	0.02813
720.03054	0.02822
718.74477	0.02829
717.45901	0.02835
716.17324	0.02834
714.88747	0.02827
713.60170	0.02819
712.31593	0.02815
711.03016	0.02816
709.74439	0.02820
708.45862	0.02823
707.17285	0.02823
705.88709	0.02820
704.60132	0.02815
703.31555	0.02808
702.02978	0.02801
700.74401	0.02794
699.45824	0.02787
698.17247	0.02782
696.88670	0.02778
695.60094	0.02778
694.31517	0.02781
693.02940	0.02788
691.74363	0.02794
690.45786	0.02794
689.17209	0.02787
687.88632	0.02774
686.60055	0.02761
685.31478	0.02750
684.02902	0.02744
682.74325	0.02738
681.45748	0.02733
680.17171	0.02728
678.88594	0.02726
677.60017	0.02726
676.31440	0.02728
675.02863	0.02735
673.74287	0.02748
672.45710	0.02759
671.17133	0.02751
669.88556	0.02738
668.59979	0.02785
667.31402	0.02813
666.02825	0.02773
664.74248	0.02803
663.45671	0.02820
662.17095	0.02807
660.88518	0.02783
659.59941	0.02759
658.31364	0.02742
657.02787	0.02732
655.74210	0.02727
654.45633	0.02722
653.17056	0.02714
651.88480	0.02704
650.59903	0.02696
649.31326	0.02691
648.02749	0.02689
646.74172	0.02690
645.45595	0.02692
644.17018	0.02692
642.88441	0.02690
641.59864	0.02690
640.31288	0.02693
639.02711	0.02694
637.74134	0.02693
636.45557	0.02694
635.16980	0.02704
633.88403	0.02726
632.59826	0.02754
631.31249	0.02773
630.02673	0.02744
628.74096	0.02682
627.45519	0.02706
626.16942	0.02616
624.88365	0.02464
623.59788	0.02356
622.31211	0.02356
621.02634	0.02505
619.74057	0.02812
618.45481	0.03230
617.16904	0.03663
615.88327	0.04022
614.59750	0.04286
613.31173	0.04514
612.02596	0.04802
610.74019	0.05191
609.45442	0.05633
608.16866	0.06034
606.88289	0.06352
605.59712	0.06609
604.31135	0.06826
603.02558	0.06997
601.73981	0.07100
600.45404	0.07119
599.16827	0.07054
597.88250	0.06917
596.59674	0.06735
595.31097	0.06545
594.02520	0.06374
592.73943	0.06233
591.45366	0.06117
590.16789	0.06022
588.88212	0.05955
587.59635	0.05928
586.31059	0.05948
585.02482	0.06012
583.73905	0.06110
582.45328	0.06234
581.16751	0.06384
579.88174	0.06561
578.59597	0.06758
577.31020	0.06967
576.02443	0.07179
574.73867	0.07385
573.45290	0.07570
572.16713	0.07728
570.88136	0.07873
569.59559	0.08037
568.30982	0.08244
567.02405	0.08494
565.73828	0.08766
564.45251	0.09032
563.16675	0.09258
561.88098	0.09407
560.59521	0.09452
559.30944	0.09385
558.02367	0.09218
556.73790	0.08971
555.45213	0.08665
554.16636	0.08322
552.88060	0.07961
551.59483	0.07594
550.30906	0.07239
549.02329	0.06917
547.73752	0.06641
546.45175	0.06403
545.16598	0.06182
543.88021	0.05961
542.59444	0.05746
541.30868	0.05554
540.02291	0.05394
538.73714	0.05260
537.45137	0.05133
536.16560	0.05001
534.87983	0.04868
533.59406	0.04744
532.30829	0.04637
531.02253	0.04545
529.73676	0.04457
528.45099	0.04370
527.16522	0.04286
525.87945	0.04206
524.59368	0.04125
523.30791	0.04034
522.02214	0.03932
520.73637	0.03832
519.45061	0.03748
518.16484	0.03688
516.87907	0.03644
515.59330	0.03605
514.30753	0.03560
513.02176	0.03509
511.73599	0.03450
510.45022	0.03389
509.16446	0.03333
507.87869	0.03283
506.59292	0.03239
505.30715	0.03195
504.02138	0.03150
502.73561	0.03109
501.44984	0.03075
500.16407	0.03045
498.87830	0.03012
497.59254	0.02976
496.30677	0.02943
495.02100	0.02916
493.73523	0.02892
492.44946	0.02865
491.16369	0.02830
489.87792	0.02789
488.59215	0.02745
487.30639	0.02705
486.02062	0.02679
484.73485	0.02671
483.44908	0.02682
482.16331	0.02704
480.87754	0.02728
479.59177	0.02746
478.30600	0.02757
477.02023	0.02761
475.73447	0.02761
474.44870	0.02758
473.16293	0.02755
471.87716	0.02754
470.59139	0.02756
469.30562	0.02756
468.01985	0.02747
466.73408	0.02726
465.44832	0.02695
464.16255	0.02658
462.87678	0.02617
461.59101	0.02577
460.30524	0.02543
459.01947	0.02514
457.73370	0.02487
456.44793	0.02458
455.16216	0.02426
453.87640	0.02394
452.59063	0.02361
451.30486	0.02328
450.01909	0.02297
448.73332	0.02273
447.44755	0.02254
446.16178	0.02239
444.87601	0.02222
443.59025	0.02204
442.30448	0.02185
441.01871	0.02165
439.73294	0.02144
438.44717	0.02124
437.16140	0.02107
435.87563	0.02095
434.58986	0.02085
433.30409	0.02076
432.01833	0.02065
430.73256	0.02054
429.44679	0.02041
428.16102	0.02030
426.87525	0.02017
425.58948	0.02000
424.30371	0.01980
423.01794	0.01961
421.73218	0.01947
420.44641	0.01935
419.16064	0.01919
417.87487	0.01897
416.58910	0.01873
415.30333	0.01855
414.01756	0.01842
412.73179	0.01833
411.44602	0.01825
410.16026	0.01818
408.87449	0.01811
407.58872	0.01805
406.30295	0.01798
405.01718	0.01790
403.73141	0.01784
402.44564	0.01784
401.15987	0.01791
399.87411	0.01800
