3997.45528 0.05351
3996.16951 0.05381
3994.88374 0.05394
3993.59798 0.05374
3992.31221 0.05336
3991.02644 0.05308
3989.74067 0.05305
3988.45490 0.05326
3987.16913 0.05375
3985.88336 0.05441
3984.59759 0.05468
3983.31183 0.05392
3982.02606 0.05211
3980.74029 0.05011
3979.45452 0.04893
3978.16875 0.04900
3976.88298 0.04998
3975.59721 0.05124
3974.31144 0.05217
3973.02567 0.05235
3971.73991 0.05183
3970.45414 0.05121
3969.16837 0.05128
3967.88260 0.05228
3966.59683 0.05371
3965.31106 0.05488
3964.02529 0.05543
3962.73952 0.05541
3961.45376 0.05501
3960.16799 0.05442
3958.88222 0.05384
3957.59645 0.05339
3956.31068 0.05307
3955.02491 0.05273
3953.73914 0.05243
3952.45337 0.05245
3951.16760 0.05290
3949.88184 0.05333
3948.59607 0.05311
3947.31030 0.05224
3946.02453 0.05140
3944.73876 0.05116
3943.45299 0.05139
3942.16722 0.05158
3940.88145 0.05156
3939.59569 0.05154
3938.30992 0.05178
3937.02415 0.05235
3935.73838 0.05312
3934.45261 0.05377
3933.16684 0.05390
3931.88107 0.05334
3930.59530 0.05231
3929.30953 0.05124
3928.02377 0.05046
3926.73800 0.05014
3925.45223 0.05031
3924.16646 0.05077
3922.88069 0.05113
3921.59492 0.05115
3920.30915 0.05104
3919.02338 0.05112
3917.73762 0.05143
3916.45185 0.05156
3915.16608 0.05108
3913.88031 0.04993
3912.59454 0.04858
3911.30877 0.04781
3910.02300 0.04811
3908.73723 0.04928
3907.45146 0.05053
3906.16570 0.05115
3904.87993 0.05107
3903.59416 0.05077
3902.30839 0.05074
3901.02262 0.05102
3899.73685 0.05125
3898.45108 0.05119
3897.16531 0.05104
3895.87955 0.05126
3894.59378 0.05196
3893.30801 0.05265
3892.02224 0.05276
3890.73647 0.05210
3889.45070 0.05093
3888.16493 0.04972
3886.87916 0.04890
3885.59339 0.04881
3884.30763 0.04949
3883.02186 0.05051
3881.73609 0.05118
3880.45032 0.05112
3879.16455 0.05052
3877.87878 0.04989
3876.59301 0.04953
3875.30724 0.04949
3874.02148 0.04981
3872.73571 0.05053
3871.44994 0.05141
3870.16417 0.05188
3868.87840 0.05147
3867.59263 0.05029
3866.30686 0.04897
3865.02109 0.04804
3863.73532 0.04763
3862.44956 0.04758
3861.16379 0.04767
3859.87802 0.04778
3858.59225 0.04780
3857.30648 0.04772
3856.02071 0.04771
3854.73494 0.04801
3853.44917 0.04863
3852.16341 0.04930
3850.87764 0.04966
3849.59187 0.04957
3848.30610 0.04917
3847.02033 0.04879
3845.73456 0.04874
3844.44879 0.04908
3843.16302 0.04963
3841.87725 0.05004
3840.59149 0.04994
3839.30572 0.04909
3838.01995 0.04769
3836.73418 0.04640
3835.44841 0.04600
3834.16264 0.04678
3832.87687 0.04816
3831.59110 0.04922
3830.30534 0.04945
3829.01957 0.04911
3827.73380 0.04865
3826.44803 0.04815
3825.16226 0.04751
3823.87649 0.04689
3822.59072 0.04676
3821.30495 0.04725
3820.01918 0.04785
3818.73342 0.04797
3817.44765 0.04761
3816.16188 0.04726
3814.87611 0.04731
3813.59034 0.04762
3812.30457 0.04787
3811.01880 0.04806
3809.73303 0.04845
3808.44726 0.04907
3807.16150 0.04942
3805.87573 0.04897
3804.58996 0.04781
3803.30419 0.04668
3802.01842 0.04637
3800.73265 0.04709
3799.44688 0.04833
3798.16111 0.04949
3796.87535 0.05026
3795.58958 0.05064
3794.30381 0.05051
3793.01804 0.04961
3791.73227 0.04802
3790.44650 0.04640
3789.16073 0.04551
3787.87496 0.04562
3786.58919 0.04651
3785.30343 0.04775
3784.01766 0.04883
3782.73189 0.04929
3781.44612 0.04912
3780.16035 0.04876
3778.87458 0.04870
3777.58881 0.04897
3776.30304 0.04914
3775.01728 0.04877
3773.73151 0.04787
3772.44574 0.04683
3771.15997 0.04615
3769.87420 0.04613
3768.58843 0.04662
3767.30266 0.04710
3766.01689 0.04710
3764.73112 0.04657
3763.44536 0.04590
3762.15959 0.04540
3760.87382 0.04511
3759.58805 0.04502
3758.30228 0.04528
3757.01651 0.04593
3755.73074 0.04662
3754.44497 0.04684
3753.15921 0.04642
3751.87344 0.04564
3750.58767 0.04489
3749.30190 0.04444
3748.01613 0.04452
3746.73036 0.04506
3745.44459 0.04558
3744.15882 0.04559
3742.87305 0.04521
3741.58729 0.04512
3740.30152 0.04573
3739.01575 0.04673
3737.72998 0.04751
3736.44421 0.04785
3735.15844 0.04809
3733.87267 0.04844
3732.58690 0.04856
3731.30114 0.04785
3730.01537 0.04626
3728.72960 0.04449
3727.44383 0.04351
3726.15806 0.04384
3724.87229 0.04518
3723.58652 0.04669
3722.30075 0.04757
3721.01498 0.04748
3719.72922 0.04668
3718.44345 0.04565
3717.15768 0.04483
3715.87191 0.04438
3714.58614 0.04433
3713.30037 0.04468
3712.01460 0.04525
3710.72883 0.04561
3709.44307 0.04543
3708.15730 0.04500
3706.87153 0.04504
3705.58576 0.04582
3704.29999 0.04678
3703.01422 0.04703
3701.72845 0.04627
3700.44268 0.04510
3699.15691 0.04449
3697.87115 0.04484
3696.58538 0.04567
3695.29961 0.04611
3694.01384 0.04577
3692.72807 0.04495
3691.44230 0.04418
3690.15653 0.04361
3688.87076 0.04300
3687.58500 0.04232
3686.29923 0.04194
3685.01346 0.04206
3683.72769 0.04245
3682.44192 0.04276
3681.15615 0.04293
3679.87038 0.04320
3678.58461 0.04371
3677.29884 0.04433
3676.01308 0.04477
3674.72731 0.04484
3673.44154 0.04453
3672.15577 0.04406
3670.87000 0.04378
3669.58423 0.04410
3668.29846 0.04514
3667.01269 0.04642
3665.72693 0.04703
3664.44116 0.04645
3663.15539 0.04509
3661.86962 0.04387
3660.58385 0.04349
3659.29808 0.04392
3658.01231 0.04469
3656.72654 0.04526
3655.44077 0.04535
3654.15501 0.04511
3652.86924 0.04485
3651.58347 0.04479
3650.29770 0.04489
3649.01193 0.04511
3647.72616 0.04551
3646.44039 0.04608
3645.15462 0.04661
3643.86886 0.04691
3642.58309 0.04712
3641.29732 0.04757
3640.01155 0.04837
3638.72578 0.04932
3637.44001 0.05000
3636.15424 0.05006
3634.86847 0.04940
3633.58270 0.04842
3632.29694 0.04773
3631.01117 0.04769
3629.72540 0.04822
3628.43963 0.04897
3627.15386 0.04956
3625.86809 0.04961
3624.58232 0.04901
3623.29655 0.04794
3622.01079 0.04673
3620.72502 0.04567
3619.43925 0.04500
3618.15348 0.04487
3616.86771 0.04521
3615.58194 0.04578
3614.29617 0.04644
3613.01040 0.04714
3611.72463 0.04772
3610.43887 0.04793
3609.15310 0.04775
3607.86733 0.04754
3606.58156 0.04765
3605.29579 0.04818
3604.01002 0.04902
3602.72425 0.04989
3601.43848 0.05043
3600.15272 0.05054
3598.86695 0.05056
3597.58118 0.05091
3596.29541 0.05149
3595.00964 0.05177
3593.72387 0.05147
3592.43810 0.05084
3591.15233 0.05029
3589.86656 0.04996
3588.58080 0.04971
3587.29503 0.04946
3586.00926 0.04950
3584.72349 0.05008
3583.43772 0.05098
3582.15195 0.05161
3580.86618 0.05175
3579.58041 0.05185
3578.29464 0.05250
3577.00888 0.05371
3575.72311 0.05488
3574.43734 0.05540
3573.15157 0.05516
3571.86580 0.05453
3570.58003 0.05398
3569.29426 0.05381
3568.00849 0.05417
3566.72273 0.05492
3565.43696 0.05568
3564.15119 0.05603
3562.86542 0.05588
3561.57965 0.05560
3560.29388 0.05568
3559.00811 0.05628
3557.72234 0.05714
3556.43657 0.05780
3555.15081 0.05801
3553.86504 0.05784
3552.57927 0.05763
3551.29350 0.05768
3550.00773 0.05790
3548.72196 0.05794
3547.43619 0.05769
3546.15042 0.05750
3544.86466 0.05775
3543.57889 0.05837
3542.29312 0.05898
3541.00735 0.05933
3539.72158 0.05949
3538.43581 0.05960
3537.15004 0.05960
3535.86427 0.05938
3534.57850 0.05892
3533.29274 0.05848
3532.00697 0.05850
3530.72120 0.05925
3529.43543 0.06050
3528.14966 0.06162
3526.86389 0.06208
3525.57812 0.06191
3524.29235 0.06156
3523.00659 0.06146
3521.72082 0.06169
3520.43505 0.06202
3519.14928 0.06212
3517.86351 0.06181
3516.57774 0.06123
3515.29197 0.06077
3514.00620 0.06067
3512.72043 0.06079
3511.43467 0.06078
3510.14890 0.06055
3508.86313 0.06032
3507.57736 0.06035
3506.29159 0.06076
3505.00582 0.06147
3503.72005 0.06225
3502.43428 0.06278
3501.14852 0.06293
3499.86275 0.06284
3498.57698 0.06276
3497.29121 0.06271
3496.00544 0.06252
3494.71967 0.06211
3493.43390 0.06169
3492.14813 0.06156
3490.86236 0.06187
3489.57660 0.06256
3488.29083 0.06333
3487.00506 0.06390
3485.71929 0.06423
3484.43352 0.06449
3483.14775 0.06480
3481.86198 0.06514
3480.57621 0.06546
3479.29045 0.06586
3478.00468 0.06635
3476.71891 0.06676
3475.43314 0.06697
3474.14737 0.06700
3472.86160 0.06696
3471.57583 0.06683
3470.29006 0.06659
3469.00429 0.06637
3467.71853 0.06636
3466.43276 0.06657
3465.14699 0.06681
3463.86122 0.06684
3462.57545 0.06662
3461.28968 0.06633
3460.00391 0.06614
3458.71814 0.06609
3457.43238 0.06611
3456.14661 0.06619
3454.86084 0.06635
3453.57507 0.06655
3452.28930 0.06660
3451.00353 0.06645
3449.71776 0.06636
3448.43199 0.06675
3447.14622 0.06766
3445.86046 0.06859
3444.57469 0.06892
3443.28892 0.06847
3442.00315 0.06770
3440.71738 0.06716
3439.43161 0.06709
3438.14584 0.06734
3436.86007 0.06766
3435.57431 0.06796
3434.28854 0.06825
3433.00277 0.06852
3431.71700 0.06877
3430.43123 0.06900
3429.14546 0.06918
3427.85969 0.06919
3426.57392 0.06902
3425.28815 0.06877
3424.00239 0.06855
3422.71662 0.06831
3421.43085 0.06801
3420.14508 0.06791
3418.85931 0.06833
3417.57354 0.06927
3416.28777 0.07029
3415.00200 0.07094
3413.71624 0.07108
3412.43047 0.07089
3411.14470 0.07060
3409.85893 0.07041
3408.57316 0.07050
3407.28739 0.07101
3406.00162 0.07182
3404.71585 0.07259
3403.43008 0.07300
3402.14432 0.07314
3400.85855 0.07331
3399.57278 0.07370
3398.28701 0.07413
3397.00124 0.07422
3395.71547 0.07389
3394.42970 0.07346
3393.14393 0.07338
3391.85817 0.07372
3390.57240 0.07416
3389.28663 0.07443
3388.00086 0.07449
3386.71509 0.07438
3385.42932 0.07406
3384.14355 0.07353
3382.85778 0.07301
3381.57201 0.07272
3380.28625 0.07276
3379.00048 0.07302
3377.71471 0.07329
3376.42894 0.07326
3375.14317 0.07278
3373.85740 0.07209
3372.57163 0.07183
3371.28586 0.07243
3370.00010 0.07364
3368.71433 0.07472
3367.42856 0.07511
3366.14279 0.07483
3364.85702 0.07425
3363.57125 0.07378
3362.28548 0.07362
3360.99971 0.07382
3359.71394 0.07425
3358.42818 0.07472
3357.14241 0.07507
3355.85664 0.07532
3354.57087 0.07558
3353.28510 0.07582
3351.99933 0.07594
3350.71356 0.07580
3349.42779 0.07543
3348.14202 0.07498
3346.85626 0.07463
3345.57049 0.07453
3344.28472 0.07462
3342.99895 0.07474
3341.71318 0.07473
3340.42741 0.07459
3339.14164 0.07444
3337.85587 0.07441
3336.57011 0.07450
3335.28434 0.07460
3333.99857 0.07460
3332.71280 0.07447
3331.42703 0.07437
3330.14126 0.07447
3328.85549 0.07481
3327.56972 0.07519
3326.28395 0.07540
3324.99819 0.07543
3323.71242 0.07540
3322.42665 0.07542
3321.14088 0.07549
3319.85511 0.07554
3318.56934 0.07552
3317.28357 0.07539
3315.99780 0.07519
3314.71204 0.07514
3313.42627 0.07543
3312.14050 0.07602
3310.85473 0.07660
3309.56896 0.07683
3308.28319 0.07669
3306.99742 0.07640
3305.71165 0.07621
3304.42588 0.07618
3303.14012 0.07615
3301.85435 0.07602
3300.56858 0.07586
3299.28281 0.07590
3297.99704 0.07610
3296.71127 0.07612
3295.42550 0.07561
3294.13973 0.07473
3292.85397 0.07406
3291.56820 0.07406
3290.28243 0.07460
3288.99666 0.07516
3287.71089 0.07536
3286.42512 0.07525
3285.13935 0.07513
3283.85358 0.07515
3282.56781 0.07517
3281.28205 0.07513
3279.99628 0.07518
3278.71051 0.07543
3277.42474 0.07569
3276.13897 0.07572
3274.85320 0.07562
3273.56743 0.07570
3272.28166 0.07610
3270.99590 0.07666
3269.71013 0.07706
3268.42436 0.07707
3267.13859 0.07661
3265.85282 0.07580
3264.56705 0.07495
3263.28128 0.07437
3261.99551 0.07424
3260.70974 0.07451
3259.42398 0.07485
3258.13821 0.07484
3256.85244 0.07428
3255.56667 0.07330
3254.28090 0.07231
3252.99513 0.07177
3251.70936 0.07196
3250.42359 0.07279
3249.13783 0.07374
3247.85206 0.07423
3246.56629 0.07406
3245.28052 0.07361
3243.99475 0.07340
3242.70898 0.07359
3241.42321 0.07378
3240.13744 0.07354
3238.85167 0.07284
3237.56591 0.07208
3236.28014 0.07171
3234.99437 0.07184
3233.70860 0.07222
3232.42283 0.07252
3231.13706 0.07261
3229.85129 0.07259
3228.56552 0.07264
3227.27976 0.07286
3225.99399 0.07314
3224.70822 0.07328
3223.42245 0.07313
3222.13668 0.07265
3220.85091 0.07200
3219.56514 0.07144
3218.27937 0.07114
3216.99360 0.07114
3215.70784 0.07137
3214.42207 0.07169
3213.13630 0.07189
3211.85053 0.07187
3210.56476 0.07170
3209.27899 0.07155
3207.99322 0.07147
3206.70745 0.07126
3205.42169 0.07069
3204.13592 0.06977
3202.85015 0.06876
3201.56438 0.06810
3200.27861 0.06802
3198.99284 0.06850
3197.70707 0.06922
3196.42130 0.06984
3195.13553 0.07016
3193.84977 0.07019
3192.56400 0.07007
3191.27823 0.06977
3189.99246 0.06915
3188.70669 0.06818
3187.42092 0.06722
3186.13515 0.06684
3184.84938 0.06722
3183.56362 0.06806
3182.27785 0.06884
3180.99208 0.06924
3179.70631 0.06918
3178.42054 0.06871
3177.13477 0.06791
3175.84900 0.06693
3174.56323 0.06595
3173.27746 0.06521
3171.99170 0.06488
3170.70593 0.06497
3169.42016 0.06531
3168.13439 0.06567
3166.84862 0.06598
3165.56285 0.06626
3164.27708 0.06657
3162.99131 0.06680
3161.70555 0.06674
3160.41978 0.06636
3159.13401 0.06585
3157.84824 0.06550
3156.56247 0.06544
3155.27670 0.06561
3153.99093 0.06584
3152.70516 0.06591
3151.41939 0.06569
3150.13363 0.06527
3148.84786 0.06493
3147.56209 0.06490
3146.27632 0.06515
3144.99055 0.06549
3143.70478 0.06575
3142.41901 0.06580
3141.13324 0.06556
3139.84748 0.06504
3138.56171 0.06443
3137.27594 0.06401
3135.99017 0.06392
3134.70440 0.06407
3133.41863 0.06422
3132.13286 0.06417
3130.84709 0.06396
3129.56132 0.06380
3128.27556 0.06390
3126.98979 0.06423
3125.70402 0.06462
3124.41825 0.06488
3123.13248 0.06483
3121.84671 0.06435
3120.56094 0.06353
3119.27517 0.06262
3117.98940 0.06196
3116.70364 0.06166
3115.41787 0.06161
3114.13210 0.06165
3112.84633 0.06170
3111.56056 0.06177
3110.27479 0.06188
3108.98902 0.06197
3107.70325 0.06206
3106.41749 0.06225
3105.13172 0.06267
3103.84595 0.06323
3102.56018 0.06368
3101.27441 0.06385
3099.98864 0.06373
3098.70287 0.06350
3097.41710 0.06328
3096.13133 0.06303
3094.84557 0.06264
3093.55980 0.06209
3092.27403 0.06151
3090.98826 0.06107
3089.70249 0.06087
3088.41672 0.06091
3087.13095 0.06113
3085.84518 0.06142
3084.55942 0.06158
3083.27365 0.06142
3081.98788 0.06104
3080.70211 0.06073
3079.41634 0.06073
3078.13057 0.06095
3076.84480 0.06118
3075.55903 0.06139
3074.27326 0.06167
3072.98750 0.06198
3071.70173 0.06208
3070.41596 0.06181
3069.13019 0.06137
3067.84442 0.06106
3066.55865 0.06101
3065.27288 0.06103
3063.98711 0.06087
3062.70135 0.06055
3061.41558 0.06028
3060.12981 0.06021
3058.84404 0.06025
3057.55827 0.06018
3056.27250 0.05992
3054.98673 0.05953
3053.70096 0.05917
3052.41519 0.05895
3051.12943 0.05885
3049.84366 0.05878
3048.55789 0.05866
3047.27212 0.05856
3045.98635 0.05860
3044.70058 0.05881
3043.41481 0.05914
3042.12904 0.05949
3040.84328 0.05976
3039.55751 0.05980
3038.27174 0.05955
3036.98597 0.05906
3035.70020 0.05854
3034.41443 0.05817
3033.12866 0.05796
3031.84289 0.05782
3030.55712 0.05776
3029.27136 0.05790
3027.98559 0.05822
3026.69982 0.05846
3025.41405 0.05831
3024.12828 0.05770
3022.84251 0.05694
3021.55674 0.05638
3020.27097 0.05621
3018.98521 0.05637
3017.69944 0.05676
3016.41367 0.05725
3015.12790 0.05766
3013.84213 0.05788
3012.55636 0.05789
3011.27059 0.05775
3009.98482 0.05746
3008.69905 0.05708
3007.41329 0.05669
3006.12752 0.05646
3004.84175 0.05647
3003.55598 0.05666
3002.27021 0.05685
3000.98444 0.05690
2999.69867 0.05672
2998.41290 0.05632
2997.12714 0.05577
2995.84137 0.05526
2994.55560 0.05500
2993.26983 0.05504
2991.98406 0.05523
2990.69829 0.05545
2989.41252 0.05572
2988.12675 0.05610
2986.84098 0.05651
2985.55522 0.05685
2984.26945 0.05704
2982.98368 0.05711
2981.69791 0.05709
2980.41214 0.05707
2979.12637 0.05716
2977.84060 0.05746
2976.55483 0.05800
2975.26907 0.05868
2973.98330 0.05930
2972.69753 0.05974
2971.41176 0.06011
2970.12599 0.06055
2968.84022 0.06112
2967.55445 0.06174
2966.26868 0.06244
2964.98291 0.06333
2963.69715 0.06444
2962.41138 0.06565
2961.12561 0.06670
2959.83984 0.06749
2958.55407 0.06805
2957.26830 0.06855
2955.98253 0.06898
2954.69676 0.06920
2953.41100 0.06910
2952.12523 0.06870
2950.83946 0.06822
2949.55369 0.06791
2948.26792 0.06792
2946.98215 0.06824
2945.69638 0.06868
2944.41061 0.06901
2943.12484 0.06910
2941.83908 0.06900
2940.55331 0.06890
2939.26754 0.06906
2937.98177 0.06956
2936.69600 0.07015
2935.41023 0.07056
2934.12446 0.07083
2932.83869 0.07123
2931.55293 0.07184
2930.26716 0.07245
2928.98139 0.07283
2927.69562 0.07303
2926.40985 0.07322
2925.12408 0.07346
2923.83831 0.07366
2922.55254 0.07375
2921.26677 0.07370
2919.98101 0.07349
2918.69524 0.07314
2917.40947 0.07266
2916.12370 0.07209
2914.83793 0.07143
2913.55216 0.07071
2912.26639 0.07006
2910.98062 0.06961
2909.69486 0.06934
2908.40909 0.06898
2907.12332 0.06837
2905.83755 0.06768
2904.55178 0.06722
2903.26601 0.06703
2901.98024 0.06683
2900.69447 0.06638
2899.40870 0.06576
2898.12294 0.06519
2896.83717 0.06485
2895.55140 0.06477
2894.26563 0.06485
2892.97986 0.06488
2891.69409 0.06464
2890.40832 0.06412
2889.12255 0.06352
2887.83678 0.06310
2886.55102 0.06288
2885.26525 0.06269
2883.97948 0.06237
2882.69371 0.06201
2881.40794 0.06183
2880.12217 0.06190
2878.83640 0.06216
2877.55063 0.06252
2876.26487 0.06286
2874.97910 0.06306
2873.69333 0.06307
2872.40756 0.06294
2871.12179 0.06284
2869.83602 0.06285
2868.55025 0.06300
2867.26448 0.06321
2865.97871 0.06333
2864.69295 0.06326
2863.40718 0.06301
2862.12141 0.06267
2860.83564 0.06232
2859.54987 0.06203
2858.26410 0.06181
2856.97833 0.06160
2855.69256 0.06135
2854.40680 0.06103
2853.12103 0.06070
2851.83526 0.06037
2850.54949 0.06003
2849.26372 0.05966
2847.97795 0.05924
2846.69218 0.05876
2845.40641 0.05826
2844.12064 0.05781
2842.83488 0.05742
2841.54911 0.05700
2840.26334 0.05648
2838.97757 0.05590
2837.69180 0.05533
2836.40603 0.05481
2835.12026 0.05432
2833.83449 0.05387
2832.54873 0.05355
2831.26296 0.05340
2829.97719 0.05339
2828.69142 0.05341
2827.40565 0.05333
2826.11988 0.05302
2824.83411 0.05247
2823.54834 0.05183
2822.26257 0.05138
2820.97681 0.05124
2819.69104 0.05132
2818.40527 0.05140
2817.11950 0.05127
2815.83373 0.05091
2814.54796 0.05050
2813.26219 0.05019
2811.97642 0.04991
2810.69066 0.04949
2809.40489 0.04896
2808.11912 0.04856
2806.83335 0.04848
2805.54758 0.04867
2804.26181 0.04895
2802.97604 0.04922
2801.69027 0.04940
2800.40450 0.04941
2799.11874 0.04920
2797.83297 0.04880
2796.54720 0.04835
2795.26143 0.04805
2793.97566 0.04797
2792.68989 0.04801
2791.40412 0.04795
2790.11835 0.04766
2788.83259 0.04726
2787.54682 0.04702
2786.26105 0.04712
2784.97528 0.04751
2783.68951 0.04794
2782.40374 0.04815
2781.11797 0.04806
2779.83220 0.04776
2778.54643 0.04742
2777.26067 0.04720
2775.97490 0.04715
2774.68913 0.04715
2773.40336 0.04704
2772.11759 0.04681
2770.83182 0.04662
2769.54605 0.04657
2768.26028 0.04656
2766.97452 0.04647
2765.68875 0.04631
2764.40298 0.04619
2763.11721 0.04614
2761.83144 0.04612
2760.54567 0.04608
2759.25990 0.04609
2757.97413 0.04617
2756.68836 0.04623
2755.40260 0.04613
2754.11683 0.04585
2752.83106 0.04556
2751.54529 0.04546
2750.25952 0.04562
2748.97375 0.04592
2747.68798 0.04611
2746.40221 0.04604
2745.11645 0.04575
2743.83068 0.04544
2742.54491 0.04520
2741.25914 0.04506
2739.97337 0.04498
2738.68760 0.04498
2737.40183 0.04506
2736.11606 0.04520
2734.83029 0.04532
2733.54453 0.04537
2732.25876 0.04531
2730.97299 0.04507
2729.68722 0.04464
2728.40145 0.04411
2727.11568 0.04369
2725.82991 0.04348
2724.54414 0.04348
2723.25838 0.04355
2721.97261 0.04361
2720.68684 0.04367
2719.40107 0.04376
2718.11530 0.04385
2716.82953 0.04387
2715.54376 0.04377
2714.25799 0.04358
2712.97222 0.04337
2711.68646 0.04320
2710.40069 0.04312
2709.11492 0.04316
2707.82915 0.04325
2706.54338 0.04332
2705.25761 0.04335
2703.97184 0.04333
2702.68607 0.04332
2701.40031 0.04331
2700.11454 0.04325
2698.82877 0.04310
2697.54300 0.04282
2696.25723 0.04250
2694.97146 0.04232
2693.68569 0.04242
2692.39992 0.04268
2691.11415 0.04286
2689.82839 0.04280
2688.54262 0.04252
2687.25685 0.04220
2685.97108 0.04197
2684.68531 0.04186
2683.39954 0.04180
2682.11377 0.04169
2680.82800 0.04153
2679.54224 0.04138
2678.25647 0.04135
2676.97070 0.04151
2675.68493 0.04188
2674.39916 0.04233
2673.11339 0.04264
2671.82762 0.04262
2670.54185 0.04232
2669.25608 0.04203
2667.97032 0.04200
2666.68455 0.04223
2665.39878 0.04249
2664.11301 0.04256
2662.82724 0.04240
2661.54147 0.04213
2660.25570 0.04183
2658.96993 0.04150
2657.68417 0.04119
2656.39840 0.04096
2655.11263 0.04090
2653.82686 0.04097
2652.54109 0.04110
2651.25532 0.04117
2649.96955 0.04118
2648.68378 0.04114
2647.39801 0.04114
2646.11225 0.04120
2644.82648 0.04125
2643.54071 0.04121
2642.25494 0.04098
2640.96917 0.04062
2639.68340 0.04023
2638.39763 0.03988
2637.11186 0.03947
2635.82609 0.03889
2634.54033 0.03827
2633.25456 0.03791
2631.96879 0.03800
2630.68302 0.03839
2629.39725 0.03871
2628.11148 0.03871
2626.82571 0.03846
2625.53994 0.03823
2624.25418 0.03817
2622.96841 0.03820
2621.68264 0.03816
2620.39687 0.03798
2619.11110 0.03772
2617.82533 0.03743
2616.53956 0.03716
2615.25379 0.03693
2613.96802 0.03676
2612.68226 0.03662
2611.39649 0.03656
2610.11072 0.03662
2608.82495 0.03680
2607.53918 0.03695
2606.25341 0.03692
2604.96764 0.03665
2603.68187 0.03623
2602.39611 0.03579
2601.11034 0.03544
2599.82457 0.03522
2598.53880 0.03510
2597.25303 0.03498
2595.96726 0.03483
2594.68149 0.03474
2593.39572 0.03481
2592.10995 0.03504
2590.82419 0.03521
2589.53842 0.03513
2588.25265 0.03484
2586.96688 0.03451
2585.68111 0.03424
2584.39534 0.03405
2583.10957 0.03391
2581.82380 0.03384
2580.53804 0.03384
2579.25227 0.03393
2577.96650 0.03410
2576.68073 0.03431
2575.39496 0.03450
2574.10919 0.03464
2572.82342 0.03476
2571.53765 0.03478
2570.25188 0.03451
2568.96612 0.03389
2567.68035 0.03321
2566.39458 0.03288
2565.10881 0.03297
2563.82304 0.03323
2562.53727 0.03340
2561.25150 0.03344
2559.96573 0.03338
2558.67997 0.03324
2557.39420 0.03309
2556.10843 0.03305
2554.82266 0.03316
2553.53689 0.03329
2552.25112 0.03330
2550.96535 0.03317
2549.67958 0.03305
2548.39381 0.03310
2547.10805 0.03335
2545.82228 0.03374
2544.53651 0.03413
2543.25074 0.03438
2541.96497 0.03443
2540.67920 0.03433
2539.39343 0.03418
2538.10766 0.03405
2536.82190 0.03395
2535.53613 0.03387
2534.25036 0.03372
2532.96459 0.03345
2531.67882 0.03317
2530.39305 0.03304
2529.10728 0.03305
2527.82151 0.03297
2526.53574 0.03271
2525.24998 0.03248
2523.96421 0.03251
2522.67844 0.03272
2521.39267 0.03281
2520.10690 0.03266
2518.82113 0.03243
2517.53536 0.03232
2516.24959 0.03239
2514.96383 0.03254
2513.67806 0.03269
2512.39229 0.03281
2511.10652 0.03286
2509.82075 0.03293
2508.53498 0.03313
2507.24921 0.03342
2505.96344 0.03351
2504.67767 0.03310
2503.39191 0.03218
2502.10614 0.03100
2500.82037 0.02999
2499.53460 0.02956
2498.24883 0.02986
2496.96306 0.03052
2495.67729 0.03098
2494.39152 0.03099
2493.10576 0.03078
2491.81999 0.03070
2490.53422 0.03095
2489.24845 0.03143
2487.96268 0.03194
2486.67691 0.03229
2485.39114 0.03243
2484.10537 0.03240
2482.81960 0.03225
2481.53384 0.03199
2480.24807 0.03168
2478.96230 0.03149
2477.67653 0.03155
2476.39076 0.03180
2475.10499 0.03197
2473.81922 0.03178
2472.53345 0.03124
2471.24769 0.03067
2469.96192 0.03043
2468.67615 0.03062
2467.39038 0.03097
2466.10461 0.03116
2464.81884 0.03105
2463.53307 0.03084
2462.24730 0.03084
2460.96153 0.03114
2459.67577 0.03155
2458.39000 0.03170
2457.10423 0.03146
2455.81846 0.03109
2454.53269 0.03100
2453.24692 0.03124
2451.96115 0.03151
2450.67538 0.03157
2449.38962 0.03152
2448.10385 0.03156
2446.81808 0.03160
2445.53231 0.03133
2444.24654 0.03070
2442.96077 0.03007
2441.67500 0.02988
2440.38923 0.03022
2439.10346 0.03074
2437.81770 0.03104
2436.53193 0.03102
2435.24616 0.03091
2433.96039 0.03090
2432.67462 0.03094
2431.38885 0.03082
2430.10308 0.03045
2428.81731 0.03004
2427.53155 0.02989
2426.24578 0.03004
2424.96001 0.03023
2423.67424 0.03023
2422.38847 0.03003
2421.10270 0.02981
2419.81693 0.02966
2418.53116 0.02954
2417.24539 0.02946
2415.95963 0.02942
2414.67386 0.02939
2413.38809 0.02932
2412.10232 0.02921
2410.81655 0.02906
2409.53078 0.02890
2408.24501 0.02878
2406.95924 0.02878
2405.67347 0.02892
2404.38771 0.02913
2403.10194 0.02933
2401.81617 0.02947
2400.53040 0.02959
2399.24463 0.02967
2397.95886 0.02966
2396.67309 0.02953
2395.38732 0.02932
2394.10156 0.02912
2392.81579 0.02904
2391.53002 0.02911
2390.24425 0.02924
2388.95848 0.02929
2387.67271 0.02921
2386.38694 0.02908
2385.10117 0.02908
2383.81540 0.02928
2382.52964 0.02962
2381.24387 0.02993
2379.95810 0.03010
2378.67233 0.03016
2377.38656 0.03013
2376.10079 0.03000
2374.81502 0.02980
2373.52925 0.02959
2372.24349 0.02943
2370.95772 0.02933
2369.67195 0.02931
2368.38618 0.02932
2367.10041 0.02935
2365.81464 0.02947
2364.52887 0.02978
2363.24310 0.03018
2361.95733 0.03044
2360.67157 0.03034
2359.38580 0.03009
2358.10003 0.02994
2356.81426 0.03002
2355.52849 0.03026
2354.24272 0.03051
2352.95695 0.03052
2351.67118 0.03019
2350.38542 0.02987
2349.09965 0.02994
2347.81388 0.03032
2346.52811 0.03046
2345.24234 0.03040
2343.95657 0.03062
2342.67080 0.03102
2341.38503 0.03076
2340.09926 0.02995
2338.81350 0.02990
2337.52773 0.03066
2336.24196 0.03069
2334.95619 0.03009
2333.67042 0.03032
2332.38465 0.03090
2331.09888 0.03034
2329.81311 0.02981
2328.52735 0.03045
2327.24158 0.03075
2325.95581 0.03077
2324.67004 0.03149
2323.38427 0.03179
2322.09850 0.03133
2320.81273 0.03113
2319.52696 0.03057
2318.24119 0.02991
2316.95543 0.02992
2315.66966 0.03002
2314.38389 0.03003
2313.09812 0.03002
2311.81235 0.02965
2310.52658 0.02931
2309.24081 0.02917
2307.95504 0.02914
2306.66928 0.02924
2305.38351 0.02912
2304.09774 0.02868
2302.81197 0.02808
2301.52620 0.02753
2300.24043 0.02727
2298.95466 0.02723
2297.66889 0.02723
2296.38312 0.02710
2295.09736 0.02686
2293.81159 0.02668
2292.52582 0.02674
2291.24005 0.02704
2289.95428 0.02733
2288.66851 0.02730
2287.38274 0.02689
2286.09697 0.02635
2284.81121 0.02605
2283.52544 0.02612
2282.23967 0.02640
2280.95390 0.02666
2279.66813 0.02672
2278.38236 0.02653
2277.09659 0.02613
2275.81082 0.02563
2274.52505 0.02516
2273.23929 0.02473
2271.95352 0.02435
2270.66775 0.02403
2269.38198 0.02383
2268.09621 0.02371
2266.81044 0.02357
2265.52467 0.02339
2264.23890 0.02327
2262.95314 0.02331
2261.66737 0.02353
2260.38160 0.02389
2259.09583 0.02427
2257.81006 0.02441
2256.52429 0.02414
2255.23852 0.02356
2253.95275 0.02295
2252.66698 0.02253
2251.38122 0.02222
2250.09545 0.02182
2248.80968 0.02124
2247.52391 0.02056
2246.23814 0.01991
2244.95237 0.01942
2243.66660 0.01929
2242.38083 0.01963
2241.09507 0.02030
2239.80930 0.02101
2238.52353 0.02147
2237.23776 0.02160
2235.95199 0.02149
2234.66622 0.02139
2233.38045 0.02139
2232.09468 0.02123
2230.80891 0.02063
2229.52315 0.01965
2228.23738 0.01881
2226.95161 0.01861
2225.66584 0.01896
2224.38007 0.01929
2223.09430 0.01917
2221.80853 0.01872
2220.52276 0.01843
2219.23700 0.01852
2217.95123 0.01876
2216.66546 0.01890
2215.37969 0.01887
2214.09392 0.01856
2212.80815 0.01782
2211.52238 0.01683
2210.23661 0.01611
2208.95084 0.01616
2207.66508 0.01697
2206.37931 0.01805
2205.09354 0.01881
2203.80777 0.01895
2202.52200 0.01860
2201.23623 0.01824
2199.95046 0.01826
2198.66469 0.01871
2197.37893 0.01932
2196.09316 0.01967
2194.80739 0.01934
2193.52162 0.01816
2192.23585 0.01643
2190.95008 0.01482
2189.66431 0.01398
2188.37854 0.01425
2187.09277 0.01536
2185.80701 0.01654
2184.52124 0.01695
2183.23547 0.01628
2181.94970 0.01499
2180.66393 0.01400
2179.37816 0.01404
2178.09239 0.01499
2176.80662 0.01588
2175.52085 0.01579
2174.23509 0.01471
2172.94932 0.01350
2171.66355 0.01307
2170.37778 0.01372
2169.09201 0.01495
2167.80624 0.01576
2166.52047 0.01528
2165.23470 0.01358
2163.94894 0.01167
2162.66317 0.01050
2161.37740 0.01016
2160.09163 0.01014
2158.80586 0.01015
2157.52009 0.01031
2156.23432 0.01069
2154.94855 0.01095
2153.66278 0.01069
2152.37702 0.00994
2151.09125 0.00918
2149.80548 0.00885
2148.51971 0.00897
2147.23394 0.00929
2145.94817 0.00958
2144.66240 0.00987
2143.37663 0.01039
2142.09087 0.01132
2140.80510 0.01261
2139.51933 0.01390
2138.23356 0.01484
2136.94779 0.01523
2135.66202 0.01511
2134.37625 0.01462
2133.09048 0.01401
2131.80471 0.01368
2130.51895 0.01401
2129.23318 0.01510
2127.94741 0.01651
2126.66164 0.01749
2125.37587 0.01752
2124.09010 0.01676
2122.80433 0.01588
2121.51856 0.01553
2120.23280 0.01586
2118.94703 0.01651
2117.66126 0.01701
2116.37549 0.01721
2115.08972 0.01733
2113.80395 0.01757
2112.51818 0.01789
2111.23241 0.01806
2109.94664 0.01790
2108.66088 0.01748
2107.37511 0.01705
2106.08934 0.01683
2104.80357 0.01681
2103.51780 0.01681
2102.23203 0.01665
2100.94626 0.01641
2099.66049 0.01607
2098.37473 0.01601
2097.08896 0.01601
2095.80319 0.01577
2094.51742 0.01540
2093.23165 0.01524
2091.94588 0.01550
2090.66011 0.01602
2089.37434 0.01648
2088.08857 0.01673
2086.80281 0.01694
2085.51704 0.01726
2084.23127 0.01759
2082.94550 0.01757
2081.65973 0.01691
2080.37396 0.01572
2079.08819 0.01447
2077.80242 0.01366
2076.51666 0.01344
2075.23089 0.01350
2073.94512 0.01343
2072.65935 0.01302
2071.37358 0.01241
2070.08781 0.01199
2068.80204 0.01200
2067.51627 0.01241
2066.23050 0.01292
2064.94474 0.01329
2063.65897 0.01344
2062.37320 0.01339
2061.08743 0.01315
2059.80166 0.01273
2058.51589 0.01216
2057.23012 0.01153
2055.94435 0.01101
2054.65859 0.01088
2053.37282 0.01132
2052.08705 0.01209
2050.80128 0.01262
2049.51551 0.01247
2048.22974 0.01157
2046.94397 0.01014
2045.65820 0.00845
2044.37243 0.00691
2043.08667 0.00592
2041.80090 0.00566
2040.51513 0.00590
2039.22936 0.00623
2037.94359 0.00629
2036.65782 0.00591
2035.37205 0.00525
2034.08628 0.00482
2032.80052 0.00513
2031.51475 0.00619
2030.22898 0.00735
2028.94321 0.00788
2027.65744 0.00765
2026.37167 0.00714
2025.08590 0.00690
2023.80013 0.00699
2022.51436 0.00711
2021.22860 0.00690
2019.94283 0.00624
2018.65706 0.00526
2017.37129 0.00426
2016.08552 0.00362
2014.79975 0.00360
2013.51398 0.00415
2012.22821 0.00488
2010.94245 0.00541
2009.65668 0.00565
2008.37091 0.00589
2007.08514 0.00648
2005.79937 0.00752
2004.51360 0.00883
2003.22783 0.01000
2001.94206 0.01062
2000.65629 0.01061
1999.37053 0.01028
1998.08476 0.01015
1996.79899 0.01051
1995.51322 0.01119
1994.22745 0.01179
1992.94168 0.01207
1991.65591 0.01210
1990.37014 0.01206
1989.08438 0.01190
1987.79861 0.01156
1986.51284 0.01119
1985.22707 0.01113
1983.94130 0.01145
1982.65553 0.01178
1981.36976 0.01158
1980.08399 0.01068
1978.79822 0.00938
1977.51246 0.00811
1976.22669 0.00720
1974.94092 0.00676
1973.65515 0.00684
1972.36938 0.00740
1971.08361 0.00828
1969.79784 0.00919
1968.51207 0.00993
1967.22631 0.01050
1965.94054 0.01092
1964.65477 0.01109
1963.36900 0.01094
1962.08323 0.01068
1960.79746 0.01081
1959.51169 0.01156
1958.22592 0.01258
1956.94015 0.01325
1955.65439 0.01321
1954.36862 0.01275
1953.08285 0.01242
1951.79708 0.01263
1950.51131 0.01331
1949.22554 0.01417
1947.93977 0.01491
1946.65400 0.01545
1945.36823 0.01584
1944.08247 0.01610
1942.79670 0.01614
1941.51093 0.01583
1940.22516 0.01521
1938.93939 0.01458
1937.65362 0.01424
1936.36785 0.01423
1935.08208 0.01437
1933.79632 0.01451
1932.51055 0.01472
1931.22478 0.01510
1929.93901 0.01558
1928.65324 0.01596
1927.36747 0.01608
1926.08170 0.01595
1924.79593 0.01570
1923.51016 0.01541
1922.22440 0.01513
1920.93863 0.01490
1919.65286 0.01475
1918.36709 0.01479
1917.08132 0.01508
1915.79555 0.01558
1914.50978 0.01602
1913.22401 0.01608
1911.93825 0.01567
1910.65248 0.01505
1909.36671 0.01461
1908.08094 0.01445
1906.79517 0.01446
1905.50940 0.01452
1904.22363 0.01466
1902.93786 0.01499
1901.65209 0.01538
1900.36633 0.01562
1899.08056 0.01560
1897.79479 0.01545
1896.50902 0.01531
1895.22325 0.01529
1893.93748 0.01541
1892.65171 0.01568
1891.36594 0.01600
1890.08018 0.01615
1888.79441 0.01598
1887.50864 0.01569
1886.22287 0.01563
1884.93710 0.01595
1883.65133 0.01644
1882.36556 0.01674
1881.07979 0.01667
1879.79402 0.01641
1878.50826 0.01622
1877.22249 0.01624
1875.93672 0.01638
1874.65095 0.01646
1873.36518 0.01645
1872.07941 0.01643
1870.79364 0.01651
1869.50787 0.01667
1868.22211 0.01681
1866.93634 0.01685
1865.65057 0.01676
1864.36480 0.01658
1863.07903 0.01645
1861.79326 0.01649
1860.50749 0.01671
1859.22172 0.01697
1857.93595 0.01708
1856.65019 0.01698
1855.36442 0.01669
1854.07865 0.01630
1852.79288 0.01593
1851.50711 0.01577
1850.22134 0.01590
1848.93557 0.01626
1847.64980 0.01664
1846.36404 0.01685
1845.07827 0.01687
1843.79250 0.01674
1842.50673 0.01656
1841.22096 0.01638
1839.93519 0.01621
1838.64942 0.01608
1837.36365 0.01603
1836.07788 0.01608
1834.79212 0.01623
1833.50635 0.01646
1832.22058 0.01669
1830.93481 0.01686
1829.64904 0.01690
1828.36327 0.01682
1827.07750 0.01668
1825.79173 0.01655
1824.50597 0.01646
1823.22020 0.01640
1821.93443 0.01637
1820.64866 0.01641
1819.36289 0.01653
1818.07712 0.01669
1816.79135 0.01685
1815.50558 0.01696
1814.21981 0.01704
1812.93405 0.01708
1811.64828 0.01711
1810.36251 0.01714
1809.07674 0.01716
1807.79097 0.01716
1806.50520 0.01718
1805.21943 0.01726
1803.93366 0.01739
1802.64790 0.01747
1801.36213 0.01748
1800.07636 0.01745
1798.79059 0.01744
1797.50482 0.01741
1796.21905 0.01732
1794.93328 0.01719
1793.64751 0.01710
1792.36174 0.01713
1791.07598 0.01725
1789.79021 0.01742
1788.50444 0.01761
1787.21867 0.01777
1785.93290 0.01788
1784.64713 0.01792
1783.36136 0.01789
1782.07559 0.01784
1780.78983 0.01778
1779.50406 0.01772
1778.21829 0.01763
1776.93252 0.01750
1775.64675 0.01738
1774.36098 0.01729
1773.07521 0.01724
1771.78944 0.01726
1770.50367 0.01732
1769.21791 0.01742
1767.93214 0.01752
1766.64637 0.01761
1765.36060 0.01767
1764.07483 0.01771
1762.78906 0.01773
1761.50329 0.01776
1760.21752 0.01780
1758.93176 0.01782
1757.64599 0.01783
1756.36022 0.01784
1755.07445 0.01786
1753.78868 0.01790
1752.50291 0.01792
1751.21714 0.01789
1749.93137 0.01782
1748.64560 0.01775
1747.35984 0.01773
1746.07407 0.01777
1744.78830 0.01787
1743.50253 0.01796
1742.21676 0.01800
1740.93099 0.01796
1739.64522 0.01788
1738.35945 0.01781
1737.07369 0.01777
1735.78792 0.01776
1734.50215 0.01777
1733.21638 0.01781
1731.93061 0.01789
1730.64484 0.01801
1729.35907 0.01815
1728.07330 0.01825
1726.78753 0.01832
1725.50177 0.01833
1724.21600 0.01833
1722.93023 0.01838
1721.64446 0.01853
1720.35869 0.01875
1719.07292 0.01901
1717.78715 0.01931
1716.50138 0.01964
1715.21561 0.02002
1713.92985 0.02040
1712.64408 0.02077
1711.35831 0.02114
1710.07254 0.02157
1708.78677 0.02203
1707.50100 0.02253
1706.21523 0.02305
1704.92946 0.02360
1703.64370 0.02421
1702.35793 0.02489
1701.07216 0.02561
1699.78639 0.02636
1698.50062 0.02710
1697.21485 0.02785
1695.92908 0.02864
1694.64331 0.02949
1693.35754 0.03036
1692.07178 0.03119
1690.78601 0.03198
1689.50024 0.03273
1688.21447 0.03350
1686.92870 0.03429
1685.64293 0.03512
1684.35716 0.03595
1683.07139 0.03679
1681.78563 0.03764
1680.49986 0.03852
1679.21409 0.03942
1677.92832 0.04032
1676.64255 0.04119
1675.35678 0.04203
1674.07101 0.04285
1672.78524 0.04365
1671.49947 0.04440
1670.21371 0.04510
1668.92794 0.04578
1667.64217 0.04652
1666.35640 0.04734
1665.07063 0.04821
1663.78486 0.04906
1662.49909 0.04984
1661.21332 0.05055
1659.92756 0.05123
1658.64179 0.05187
1657.35602 0.05243
1656.07025 0.05289
1654.78448 0.05327
1653.49871 0.05363
1652.21294 0.05398
1650.92717 0.05431
1649.64140 0.05459
1648.35564 0.05480
1647.06987 0.05494
1645.78410 0.05500
1644.49833 0.05499
1643.21256 0.05495
1641.92679 0.05488
1640.64102 0.05475
1639.35525 0.05451
1638.06949 0.05420
1636.78372 0.05387
1635.49795 0.05353
1634.21218 0.05315
1632.92641 0.05266
1631.64064 0.05207
1630.35487 0.05145
1629.06910 0.05084
1627.78333 0.05026
1626.49757 0.04965
1625.21180 0.04897
1623.92603 0.04823
1622.64026 0.04747
1621.35449 0.04677
1620.06872 0.04616
1618.78295 0.04563
1617.49718 0.04517
1616.21142 0.04475
1614.92565 0.04440
1613.63988 0.04412
1612.35411 0.04392
1611.06834 0.04373
1609.78257 0.04352
1608.49680 0.04328
1607.21103 0.04306
1605.92526 0.04289
1604.63950 0.04279
1603.35373 0.04277
1602.06796 0.04285
1600.78219 0.04303
1599.49642 0.04329
1598.21065 0.04360
1596.92488 0.04391
1595.63911 0.04418
1594.35335 0.04439
1593.06758 0.04459
1591.78181 0.04489
1590.49604 0.04529
1589.21027 0.04575
1587.92450 0.04622
1586.63873 0.04668
1585.35296 0.04718
1584.06719 0.04775
1582.78143 0.04843
1581.49566 0.04918
1580.20989 0.04993
1578.92412 0.05065
1577.63835 0.05133
1576.35258 0.05201
1575.06681 0.05267
1573.78104 0.05332
1572.49528 0.05400
1571.20951 0.05471
1569.92374 0.05544
1568.63797 0.05614
1567.35220 0.05678
1566.06643 0.05736
1564.78066 0.05789
1563.49489 0.05838
1562.20912 0.05886
1560.92336 0.05932
1559.63759 0.05978
1558.35182 0.06021
1557.06605 0.06057
1555.78028 0.06086
1554.49451 0.06111
1553.20874 0.06134
1551.92297 0.06156
1550.63721 0.06174
1549.35144 0.06184
1548.06567 0.06184
1546.77990 0.06175
1545.49413 0.06154
1544.20836 0.06124
1542.92259 0.06089
1541.63682 0.06052
1540.35105 0.06017
1539.06529 0.05982
1537.77952 0.05943
1536.49375 0.05902
1535.20798 0.05865
1533.92221 0.05837
1532.63644 0.05821
1531.35067 0.05815
1530.06490 0.05819
1528.77914 0.05830
1527.49337 0.05847
1526.20760 0.05869
1524.92183 0.05893
1523.63606 0.05921
1522.35029 0.05956
1521.06452 0.06001
1519.77875 0.06057
1518.49298 0.06124
1517.20722 0.06194
1515.92145 0.06264
1514.63568 0.06334
1513.34991 0.06407
1512.06414 0.06486
1510.77837 0.06570
1509.49260 0.06657
1508.20683 0.06747
1506.92107 0.06840
1505.63530 0.06934
1504.34953 0.07026
1503.06376 0.07114
1501.77799 0.07197
1500.49222 0.07273
1499.20645 0.07340
1497.92068 0.07400
1496.63491 0.07457
1495.34915 0.07512
1494.06338 0.07568
1492.77761 0.07624
1491.49184 0.07685
1490.20607 0.07755
1488.92030 0.07835
1487.63453 0.07923
1486.34876 0.08017
1485.06299 0.08118
1483.77723 0.08222
1482.49146 0.08328
1481.20569 0.08435
1479.91992 0.08548
1478.63415 0.08668
1477.34838 0.08793
1476.06261 0.08916
1474.77684 0.09028
1473.49108 0.09125
1472.20531 0.09211
1470.91954 0.09290
1469.63377 0.09367
1468.34800 0.09442
1467.06223 0.09514
1465.77646 0.09585
1464.49069 0.09662
1463.20492 0.09746
1461.91916 0.09840
1460.63339 0.09941
1459.34762 0.10043
1458.06185 0.10144
1456.77608 0.10242
1455.49031 0.10334
1454.20454 0.10419
1452.91877 0.10497
1451.63301 0.10566
1450.34724 0.10623
1449.06147 0.10669
1447.77570 0.10705
1446.48993 0.10732
1445.20416 0.10748
1443.91839 0.10749
1442.63262 0.10735
1441.34685 0.10712
1440.06109 0.10687
1438.77532 0.10667
1437.48955 0.10659
1436.20378 0.10665
1434.91801 0.10690
1433.63224 0.10736
1432.34647 0.10803
1431.06070 0.10888
1429.77494 0.10990
1428.48917 0.11108
1427.20340 0.11239
1425.91763 0.11377
1424.63186 0.11521
1423.34609 0.11667
1422.06032 0.11813
1420.77455 0.11952
1419.48878 0.12082
1418.20302 0.12201
1416.91725 0.12305
1415.63148 0.12394
1414.34571 0.12465
1413.05994 0.12517
1411.77417 0.12548
1410.48840 0.12556
1409.20263 0.12542
1407.91687 0.12504
1406.63110 0.12444
1405.34533 0.12363
1404.05956 0.12263
1402.77379 0.12140
1401.48802 0.11995
1400.20225 0.11828
1398.91648 0.11644
1397.63071 0.11446
1396.34495 0.11235
1395.05918 0.11014
1393.77341 0.10788
1392.48764 0.10560
1391.20187 0.10332
1389.91610 0.10102
1388.63033 0.09872
1387.34456 0.09645
1386.05880 0.09424
1384.77303 0.09206
1383.48726 0.08988
1382.20149 0.08770
1380.91572 0.08555
1379.62995 0.08343
1378.34418 0.08133
1377.05841 0.07918
1375.77264 0.07692
1374.48688 0.07455
1373.20111 0.07215
1371.91534 0.06978
1370.62957 0.06750
1369.34380 0.06537
1368.05803 0.06341
1366.77226 0.06161
1365.48649 0.05993
1364.20073 0.05831
1362.91496 0.05677
1361.62919 0.05532
1360.34342 0.05398
1359.05765 0.05274
1357.77188 0.05156
1356.48611 0.05045
1355.20034 0.04945
1353.91457 0.04861
1352.62881 0.04791
1351.34304 0.04732
1350.05727 0.04677
1348.77150 0.04620
1347.48573 0.04561
1346.19996 0.04503
1344.91419 0.04452
1343.62842 0.04407
1342.34266 0.04365
1341.05689 0.04321
1339.77112 0.04274
1338.48535 0.04225
1337.19958 0.04176
1335.91381 0.04126
1334.62804 0.04075
1333.34227 0.04024
1332.05650 0.03975
1330.77074 0.03927
1329.48497 0.03881
1328.19920 0.03838
1326.91343 0.03803
1325.62766 0.03771
1324.34189 0.03739
1323.05612 0.03701
1321.77035 0.03660
1320.48459 0.03621
1319.19882 0.03590
1317.91305 0.03562
1316.62728 0.03532
1315.34151 0.03500
1314.05574 0.03465
1312.76997 0.03431
1311.48420 0.03400
1310.19843 0.03369
1308.91267 0.03341
1307.62690 0.03313
1306.34113 0.03286
1305.05536 0.03258
1303.76959 0.03232
1302.48382 0.03210
1301.19805 0.03191
1299.91228 0.03171
1298.62652 0.03148
1297.34075 0.03122
1296.05498 0.03095
1294.76921 0.03069
1293.48344 0.03046
1292.19767 0.03027
1290.91190 0.03010
1289.62613 0.02995
1288.34036 0.02979
1287.05460 0.02963
1285.76883 0.02948
1284.48306 0.02938
1283.19729 0.02931
1281.91152 0.02923
1280.62575 0.02912
1279.33998 0.02898
1278.05421 0.02886
1276.76845 0.02876
1275.48268 0.02866
1274.19691 0.02853
1272.91114 0.02837
1271.62537 0.02821
1270.33960 0.02805
1269.05383 0.02788
1267.76806 0.02769
1266.48229 0.02750
1265.19653 0.02731
1263.91076 0.02716
1262.62499 0.02705
1261.33922 0.02697
1260.05345 0.02690
1258.76768 0.02685
1257.48191 0.02682
1256.19614 0.02683
1254.91037 0.02686
1253.62461 0.02688
1252.33884 0.02685
1251.05307 0.02680
1249.76730 0.02671
1248.48153 0.02662
1247.19576 0.02652
1245.90999 0.02642
1244.62422 0.02634
1243.33846 0.02625
1242.05269 0.02615
1240.76692 0.02602
1239.48115 0.02588
1238.19538 0.02573
1236.90961 0.02560
1235.62384 0.02545
1234.33807 0.02530
1233.05230 0.02514
1231.76654 0.02496
1230.48077 0.02476
1229.19500 0.02456
1227.90923 0.02434
1226.62346 0.02412
1225.33769 0.02390
1224.05192 0.02370
1222.76615 0.02355
1221.48039 0.02344
1220.19462 0.02332
1218.90885 0.02316
1217.62308 0.02292
1216.33731 0.02261
1215.05154 0.02226
1213.76577 0.02194
1212.48000 0.02172
1211.19423 0.02163
1209.90847 0.02163
1208.62270 0.02163
1207.33693 0.02159
1206.05116 0.02152
1204.76539 0.02143
1203.47962 0.02132
1202.19385 0.02121
1200.90808 0.02112
1199.62232 0.02108
1198.33655 0.02102
1197.05078 0.02096
1195.76501 0.02086
1194.47924 0.02074
1193.19347 0.02062
1191.90770 0.02048
1190.62193 0.02031
1189.33616 0.02009
1188.05040 0.01985
1186.76463 0.01964
1185.47886 0.01947
1184.19309 0.01933
1182.90732 0.01920
1181.62155 0.01911
1180.33578 0.01904
1179.05001 0.01898
1177.76425 0.01892
1176.47848 0.01885
1175.19271 0.01876
1173.90694 0.01867
1172.62117 0.01865
1171.33540 0.01872
1170.04963 0.01885
1168.76386 0.01897
1167.47809 0.01905
1166.19233 0.01908
1164.90656 0.01908
1163.62079 0.01906
1162.33502 0.01903
1161.04925 0.01899
1159.76348 0.01897
1158.47771 0.01902
1157.19194 0.01919
1155.90618 0.01946
1154.62041 0.01975
1153.33464 0.01996
1152.04887 0.02005
1150.76310 0.02008
1149.47733 0.02016
1148.19156 0.02039
1146.90579 0.02080
1145.62002 0.02131
1144.33426 0.02182
1143.04849 0.02233
1141.76272 0.02290
1140.47695 0.02361
1139.19118 0.02441
1137.90541 0.02524
1136.61964 0.02610
1135.33387 0.02706
1134.04811 0.02825
1132.76234 0.02976
1131.47657 0.03161
1130.19080 0.03373
1128.90503 0.03598
1127.61926 0.03824
1126.33349 0.04047
1125.04772 0.04281
1123.76195 0.04539
1122.47619 0.04826
1121.19042 0.05134
1119.90465 0.05451
1118.61888 0.05770
1117.33311 0.06090
1116.04734 0.06410
1114.76157 0.06725
1113.47580 0.07032
1112.19004 0.07327
1110.90427 0.07614
1109.61850 0.07898
1108.33273 0.08187
1107.04696 0.08480
1105.76119 0.08772
1104.47542 0.09052
1103.18965 0.09318
1101.90388 0.09575
1100.61812 0.09832
1099.33235 0.10089
1098.04658 0.10342
1096.76081 0.10583
1095.47504 0.10812
1094.18927 0.11027
1092.90350 0.11228
1091.61773 0.11414
1090.33197 0.11588
1089.04620 0.11755
1087.76043 0.11922
1086.47466 0.12091
1085.18889 0.12263
1083.90312 0.12436
1082.61735 0.12612
1081.33158 0.12796
1080.04581 0.12996
1078.76005 0.13216
1077.47428 0.13457
1076.18851 0.13711
1074.90274 0.13972
1073.61697 0.14241
1072.33120 0.14522
1071.04543 0.14815
1069.75966 0.15117
1068.47390 0.15420
1067.18813 0.15725
1065.90236 0.16039
1064.61659 0.16364
1063.33082 0.16699
1062.04505 0.17038
1060.75928 0.17380
1059.47351 0.17720
1058.18774 0.18055
1056.90198 0.18381
1055.61621 0.18695
1054.33044 0.18997
1053.04467 0.19290
1051.75890 0.19582
1050.47313 0.19885
1049.18736 0.20201
1047.90159 0.20525
1046.61583 0.20847
1045.33006 0.21164
1044.04429 0.21476
1042.75852 0.21785
1041.47275 0.22099
1040.18698 0.22420
1038.90121 0.22748
1037.61544 0.23081
1036.32967 0.23415
1035.04391 0.23745
1033.75814 0.24066
1032.47237 0.24373
1031.18660 0.24662
1029.90083 0.24930
1028.61506 0.25175
1027.32929 0.25399
1026.04352 0.25605
1024.75775 0.25791
1023.47199 0.25945
1022.18622 0.26060
1020.90045 0.26137
1019.61468 0.26183
1018.32891 0.26199
1017.04314 0.26181
1015.75737 0.26124
1014.47160 0.26022
1013.18584 0.25873
1011.90007 0.25675
1010.61430 0.25433
1009.32853 0.25157
1008.04276 0.24851
1006.75699 0.24512
1005.47122 0.24133
1004.18545 0.23711
1002.89968 0.23248
1001.61392 0.22750
1000.32815 0.22220
999.04238 0.21662
997.75661 0.21080
996.47084 0.20485
995.18507 0.19884
993.89930 0.19279
992.61353 0.18666
991.32777 0.18046
990.04200 0.17425
988.75623 0.16814
987.47046 0.16216
986.18469 0.15633
984.89892 0.15069
983.61315 0.14526
982.32738 0.14005
981.04161 0.13508
979.75585 0.13039
978.47008 0.12607
977.18431 0.12217
975.89854 0.11867
974.61277 0.11555
973.32700 0.11282
972.04123 0.11058
970.75546 0.10896
969.46970 0.10800
968.18393 0.10769
966.89816 0.10794
965.61239 0.10864
964.32662 0.10960
963.04085 0.11052
961.75508 0.11113
960.46931 0.11123
959.18354 0.11069
957.89778 0.10948
956.61201 0.10773
955.32624 0.10558
954.04047 0.10316
952.75470 0.10054
951.46893 0.09780
950.18316 0.09508
948.89739 0.09251
947.61163 0.09010
946.32586 0.08777
945.04009 0.08548
943.75432 0.08326
942.46855 0.08118
941.18278 0.07924
939.89701 0.07738
938.61124 0.07555
937.32547 0.07373
936.03971 0.07198
934.75394 0.07036
933.46817 0.06894
932.18240 0.06770
930.89663 0.06655
929.61086 0.06539
928.32509 0.06418
927.03932 0.06293
925.75356 0.06168
924.46779 0.06051
923.18202 0.05947
921.89625 0.05859
920.61048 0.05784
919.32471 0.05713
918.03894 0.05638
916.75317 0.05562
915.46740 0.05490
914.18164 0.05424
912.89587 0.05363
911.61010 0.05300
910.32433 0.05234
909.03856 0.05164
907.75279 0.05099
906.46702 0.05050
905.18125 0.05017
903.89549 0.04985
902.60972 0.04937
901.32395 0.04870
900.03818 0.04803
898.75241 0.04750
897.46664 0.04715
896.18087 0.04691
894.89510 0.04668
893.60933 0.04641
892.32357 0.04612
891.03780 0.04586
889.75203 0.04574
888.46626 0.04588
887.18049 0.04643
885.89472 0.04756
884.60895 0.04940
883.32318 0.05196
882.03742 0.05513
880.75165 0.05852
879.46588 0.06165
878.18011 0.06421
876.89434 0.06625
875.60857 0.06811
874.32280 0.06994
873.03703 0.07156
871.75126 0.07257
870.46550 0.07271
869.17973 0.07196
867.89396 0.07039
866.60819 0.06812
865.32242 0.06536
864.03665 0.06238
862.75088 0.05947
861.46511 0.05687
860.17935 0.05465
858.89358 0.05275
857.60781 0.05108
856.32204 0.04958
855.03627 0.04830
853.75050 0.04727
852.46473 0.04648
851.17896 0.04583
849.89319 0.04524
848.60743 0.04466
847.32166 0.04410
846.03589 0.04357
844.75012 0.04310
843.46435 0.04270
842.17858 0.04232
840.89281 0.04192
839.60704 0.04150
838.32128 0.04109
837.03551 0.04072
835.74974 0.04042
834.46397 0.04017
833.17820 0.03994
831.89243 0.03971
830.60666 0.03945
829.32089 0.03916
828.03512 0.03889
826.74936 0.03868
825.46359 0.03855
824.17782 0.03845
822.89205 0.03831
821.60628 0.03812
820.32051 0.03792
819.03474 0.03776
817.74897 0.03766
816.46321 0.03764
815.17744 0.03763
813.89167 0.03760
812.60590 0.03753
811.32013 0.03740
810.03436 0.03717
808.74859 0.03688
807.46282 0.03661
806.17705 0.03645
804.89129 0.03639
803.60552 0.03637
802.31975 0.03633
801.03398 0.03623
799.74821 0.03608
798.46244 0.03595
797.17667 0.03589
795.89090 0.03588
794.60513 0.03586
793.31937 0.03584
792.03360 0.03587
790.74783 0.03588
789.46206 0.03580
788.17629 0.03560
786.89052 0.03532
785.60475 0.03505
784.31898 0.03483
783.03322 0.03465
781.74745 0.03453
780.46168 0.03452
779.17591 0.03466
777.89014 0.03495
776.60437 0.03525
775.31860 0.03544
774.03283 0.03546
772.74706 0.03535
771.46130 0.03516
770.17553 0.03494
768.88976 0.03473
767.60399 0.03457
766.31822 0.03449
765.03245 0.03449
763.74668 0.03454
762.46091 0.03461
761.17515 0.03472
759.88938 0.03488
758.60361 0.03504
757.31784 0.03511
756.03207 0.03504
754.74630 0.03491
753.46053 0.03484
752.17476 0.03487
750.88899 0.03491
749.60323 0.03490
748.31746 0.03483
747.03169 0.03468
745.74592 0.03449
744.46015 0.03432
743.17438 0.03427
741.88861 0.03435
740.60284 0.03449
739.31708 0.03456
738.03131 0.03448
736.74554 0.03430
735.45977 0.03410
734.17400 0.03390
732.88823 0.03365
731.60246 0.03337
730.31669 0.03316
729.03092 0.03313
727.74516 0.03326
726.45939 0.03343
725.17362 0.03351
723.88785 0.03351
722.60208 0.03352
721.31631 0.03364
720.03054 0.03389
718.74477 0.03416
717.45901 0.03432
716.17324 0.03433
714.88747 0.03424
713.60170 0.03415
712.31593 0.03411
711.03016 0.03409
709.74439 0.03406
708.45862 0.03399
707.17285 0.03392
705.88709 0.03386
704.60132 0.03381
703.31555 0.03375
702.02978 0.03365
700.74401 0.03353
699.45824 0.03343
698.17247 0.03336
696.88670 0.03334
695.60094 0.03336
694.31517 0.03341
693.02940 0.03347
691.74363 0.03348
690.45786 0.03343
689.17209 0.03335
687.88632 0.03329
686.60055 0.03326
685.31478 0.03322
684.02902 0.03315
682.74325 0.03304
681.45748 0.03291
680.17171 0.03280
678.88594 0.03271
677.60017 0.03266
676.31440 0.03268
675.02863 0.03280
673.74287 0.03303
672.45710 0.03333
671.17133 0.03363
669.88556 0.03388
668.59979 0.03406
667.31402 0.03416
666.02825 0.03402
664.74248 0.03376
663.45671 0.03342
662.17095 0.03309
660.88518 0.03281
659.59941 0.03257
658.31364 0.03237
657.02787 0.03224
655.74210 0.03219
654.45633 0.03216
653.17056 0.03208
651.88480 0.03192
650.59903 0.03170
649.31326 0.03149
648.02749 0.03133
646.74172 0.03125
645.45595 0.03121
644.17018 0.03120
642.88441 0.03117
641.59864 0.03115
640.31288 0.03117
639.02711 0.03122
637.74134 0.03127
636.45557 0.03128
635.16980 0.03130
633.88403 0.03141
632.59826 0.03161
631.31249 0.03184
630.02673 0.03192
628.74096 0.03193
627.45519 0.03248
626.16942 0.03259
624.88365 0.03251
623.59788 0.03301
622.31211 0.03476
621.02634 0.03777
619.74057 0.04117
618.45481 0.04426
617.16904 0.04737
615.88327 0.05119
614.59750 0.05577
613.31173 0.06062
612.02596 0.06549
610.74019 0.07061
609.45442 0.07620
608.16866 0.08212
606.88289 0.08799
605.59712 0.09335
604.31135 0.09759
603.02558 0.10025
601.73981 0.10123
600.45404 0.10070
599.16827 0.09889
597.88250 0.09608
596.59674 0.09271
595.31097 0.08932
594.02520 0.08635
592.73943 0.08398
591.45366 0.08225
590.16789 0.08119
588.88212 0.08081
587.59635 0.08112
586.31059 0.08207
585.02482 0.08357
583.73905 0.08556
582.45328 0.08793
581.16751 0.09058
579.88174 0.09344
578.59597 0.09640
577.31020 0.09927
576.02443 0.10186
574.73867 0.10406
573.45290 0.10601
572.16713 0.10809
570.88136 0.11071
569.59559 0.11414
568.30982 0.11824
567.02405 0.12258
565.73828 0.12662
564.45251 0.12999
563.16675 0.13246
561.88098 0.13374
560.59521 0.13357
559.30944 0.13176
558.02367 0.12835
556.73790 0.12365
555.45213 0.11805
554.16636 0.11197
552.88060 0.10576
551.59483 0.09968
550.30906 0.09392
549.02329 0.08857
547.73752 0.08368
546.45175 0.07927
545.16598 0.07537
543.88021 0.07194
542.59444 0.06893
541.30868 0.06624
540.02291 0.06382
538.73714 0.06164
537.45137 0.05969
536.16560 0.05796
534.87983 0.05639
533.59406 0.05490
532.30829 0.05345
531.02253 0.05206
529.73676 0.05076
528.45099 0.04950
527.16522 0.04823
525.87945 0.04698
524.59368 0.04586
523.30791 0.04494
522.02214 0.04416
520.73637 0.04342
519.45061 0.04266
518.16484 0.04189
516.87907 0.04111
515.59330 0.04034
514.30753 0.03958
513.02176 0.03890
511.73599 0.03834
510.45022 0.03791
509.16446 0.03752
507.87869 0.03707
506.59292 0.03653
505.30715 0.03594
504.02138 0.03537
502.73561 0.03482
501.44984 0.03427
500.16407 0.03372
498.87830 0.03321
497.59254 0.03277
496.30677 0.03245
495.02100 0.03222
493.73523 0.03200
492.44946 0.03168
491.16369 0.03122
489.87792 0.03067
488.59215 0.03016
487.30639 0.02981
486.02062 0.02967
484.73485 0.02974
483.44908 0.02995
482.16331 0.03022
480.87754 0.03044
479.59177 0.03057
478.30600 0.03064
477.02023 0.03072
475.73447 0.03079
474.44870 0.03083
473.16293 0.03086
471.87716 0.03091
470.59139 0.03097
469.30562 0.03094
468.01985 0.03073
466.73408 0.03040
465.44832 0.03003
464.16255 0.02967
462.87678 0.02928
461.59101 0.02886
460.30524 0.02843
459.01947 0.02802
457.73370 0.02760
456.44793 0.02714
455.16216 0.02670
453.87640 0.02631
452.59063 0.02598
451.30486 0.02568
450.01909 0.02538
448.73332 0.02507
447.44755 0.02478
446.16178 0.02457
444.87601 0.02444
443.59025 0.02435
442.30448 0.02418
441.01871 0.02388
439.73294 0.02354
438.44717 0.02325
437.16140 0.02310
435.87563 0.02305
434.58986 0.02302
433.30409 0.02295
432.01833 0.02282
430.73256 0.02264
429.44679 0.02243
428.16102 0.02219
426.87525 0.02197
425.58948 0.02176
424.30371 0.02156
423.01794 0.02136
421.73218 0.02116
420.44641 0.02101
419.16064 0.02092
417.87487 0.02088
416.58910 0.02083
415.30333 0.02076
414.01756 0.02065
412.73179 0.02053
411.44602 0.02040
410.16026 0.02030
408.87449 0.02027
407.58872 0.02029
406.30295 0.02035
405.01718 0.02041
403.73141 0.02047
402.44564 0.02054
401.15987 0.02064
399.87411 0.02077
