3997.45528	0.07159
3996.16951	0.07125
3994.88374	0.07133
3993.59798	0.07190
3992.31221	0.07276
3991.02644	0.07368
3989.74067	0.07443
3988.45490	0.07489
3987.16913	0.07513
3985.88336	0.07537
3984.59759	0.07570
3983.31183	0.07592
3982.02606	0.07583
3980.74029	0.07549
3979.45452	0.07517
3978.16875	0.07496
3976.88298	0.07483
3975.59721	0.07477
3974.31144	0.07469
3973.02567	0.07434
3971.73991	0.07355
3970.45414	0.07261
3969.16837	0.07195
3967.88260	0.07170
3966.59683	0.07161
3965.31106	0.07153
3964.02529	0.07161
3962.73952	0.07201
3961.45376	0.07268
3960.16799	0.07335
3958.88222	0.07378
3957.59645	0.07398
3956.31068	0.07412
3955.02491	0.07434
3953.73914	0.07448
3952.45337	0.07419
3951.16760	0.07327
3949.88184	0.07202
3948.59607	0.07103
3947.31030	0.07067
3946.02453	0.07073
3944.73876	0.07075
3943.45299	0.07061
3942.16722	0.07069
3940.88145	0.07143
3939.59569	0.07262
3938.30992	0.07348
3937.02415	0.07336
3935.73838	0.07249
3934.45261	0.07167
3933.16684	0.07143
3931.88107	0.07171
3930.59530	0.07216
3929.30953	0.07258
3928.02377	0.07288
3926.73800	0.07298
3925.45223	0.07274
3924.16646	0.07217
3922.88069	0.07166
3921.59492	0.07169
3920.30915	0.07225
3919.02338	0.07284
3917.73762	0.07295
3916.45185	0.07260
3915.16608	0.07211
3913.88031	0.07169
3912.59454	0.07130
3911.30877	0.07105
3910.02300	0.07121
3908.73723	0.07184
3907.45146	0.07258
3906.16570	0.07292
3904.87993	0.07252
3903.59416	0.07151
3902.30839	0.07042
3901.02262	0.06984
3899.73685	0.07000
3898.45108	0.07065
3897.16531	0.07123
3895.87955	0.07124
3894.59378	0.07064
3893.30801	0.06989
3892.02224	0.06948
3890.73647	0.06938
3889.45070	0.06926
3888.16493	0.06899
3886.87916	0.06863
3885.59339	0.06818
3884.30763	0.06777
3883.02186	0.06774
3881.73609	0.06822
3880.45032	0.06900
3879.16455	0.06983
3877.87878	0.07071
3876.59301	0.07179
3875.30724	0.07303
3874.02148	0.07430
3872.73571	0.07550
3871.44994	0.07628
3870.16417	0.07595
3868.87840	0.07413
3867.59263	0.07156
3866.30686	0.06936
3865.02109	0.06803
3863.73532	0.06748
3862.44956	0.06755
3861.16379	0.06807
3859.87802	0.06866
3858.59225	0.06897
3857.30648	0.06904
3856.02071	0.06919
3854.73494	0.06950
3853.44917	0.06959
3852.16341	0.06932
3850.87764	0.06896
3849.59187	0.06868
3848.30610	0.06833
3847.02033	0.06779
3845.73456	0.06719
3844.44879	0.06677
3843.16302	0.06661
3841.87725	0.06657
3840.59149	0.06650
3839.30572	0.06621
3838.01995	0.06556
3836.73418	0.06480
3835.44841	0.06467
3834.16264	0.06564
3832.87687	0.06721
3831.59110	0.06838
3830.30534	0.06867
3829.01957	0.06842
3827.73380	0.06817
3826.44803	0.06802
3825.16226	0.06784
3823.87649	0.06778
3822.59072	0.06791
3821.30495	0.06794
3820.01918	0.06773
3818.73342	0.06777
3817.44765	0.06841
3816.16188	0.06905
3814.87611	0.06899
3813.59034	0.06836
3812.30457	0.06771
3811.01880	0.06729
3809.73303	0.06712
3808.44726	0.06725
3807.16150	0.06755
3805.87573	0.06788
3804.58996	0.06831
3803.30419	0.06873
3802.01842	0.06854
3800.73265	0.06738
3799.44688	0.06597
3798.16111	0.06527
3796.87535	0.06528
3795.58958	0.06531
3794.30381	0.06514
3793.01804	0.06518
3791.73227	0.06592
3790.44650	0.06739
3789.16073	0.06897
3787.87496	0.06983
3786.58919	0.06954
3785.30343	0.06847
3784.01766	0.06745
3782.73189	0.06699
3781.44612	0.06707
3780.16035	0.06732
3778.87458	0.06748
3777.58881	0.06754
3776.30304	0.06749
3775.01728	0.06720
3773.73151	0.06666
3772.44574	0.06612
3771.15997	0.06582
3769.87420	0.06564
3768.58843	0.06538
3767.30266	0.06497
3766.01689	0.06438
3764.73112	0.06359
3763.44536	0.06289
3762.15959	0.06265
3760.87382	0.06277
3759.58805	0.06273
3758.30228	0.06214
3757.01651	0.06121
3755.73074	0.06058
3754.44497	0.06081
3753.15921	0.06181
3751.87344	0.06290
3750.58767	0.06349
3749.30190	0.06348
3748.01613	0.06327
3746.73036	0.06339
3745.44459	0.06365
3744.15882	0.06316
3742.87305	0.06184
3741.58729	0.06069
3740.30152	0.06044
3739.01575	0.06091
3737.72998	0.06156
3736.44421	0.06198
3735.15844	0.06203
3733.87267	0.06192
3732.58690	0.06187
3731.30114	0.06190
3730.01537	0.06201
3728.72960	0.06220
3727.44383	0.06220
3726.15806	0.06169
3724.87229	0.06084
3723.58652	0.06026
3722.30075	0.06024
3721.01498	0.06056
3719.72922	0.06082
3718.44345	0.06083
3717.15768	0.06078
3715.87191	0.06089
3714.58614	0.06119
3713.30037	0.06149
3712.01460	0.06156
3710.72883	0.06153
3709.44307	0.06175
3708.15730	0.06236
3706.87153	0.06305
3705.58576	0.06317
3704.29999	0.06224
3703.01422	0.06029
3701.72845	0.05793
3700.44268	0.05598
3699.15691	0.05509
3697.87115	0.05546
3696.58538	0.05687
3695.29961	0.05884
3694.01384	0.06070
3692.72807	0.06185
3691.44230	0.06229
3690.15653	0.06254
3688.87076	0.06273
3687.58500	0.06242
3686.29923	0.06131
3685.01346	0.05954
3683.72769	0.05762
3682.44192	0.05613
3681.15615	0.05553
3679.87038	0.05615
3678.58461	0.05816
3677.29884	0.06117
3676.01308	0.06399
3674.72731	0.06549
3673.44154	0.06583
3672.15577	0.06602
3670.87000	0.06638
3669.58423	0.06638
3668.29846	0.06574
3667.01269	0.06483
3665.72693	0.06398
3664.44116	0.06316
3663.15539	0.06230
3661.86962	0.06158
3660.58385	0.06137
3659.29808	0.06182
3658.01231	0.06259
3656.72654	0.06310
3655.44077	0.06305
3654.15501	0.06275
3652.86924	0.06274
3651.58347	0.06322
3650.29770	0.06397
3649.01193	0.06472
3647.72616	0.06527
3646.44039	0.06559
3645.15462	0.06591
3643.86886	0.06655
3642.58309	0.06747
3641.29732	0.06823
3640.01155	0.06836
3638.72578	0.06787
3637.44001	0.06715
3636.15424	0.06663
3634.86847	0.06652
3633.58270	0.06672
3632.29694	0.06701
3631.01117	0.06719
3629.72540	0.06700
3628.43963	0.06628
3627.15386	0.06530
3625.86809	0.06466
3624.58232	0.06472
3623.29655	0.06541
3622.01079	0.06650
3620.72502	0.06768
3619.43925	0.06868
3618.15348	0.06942
3616.86771	0.06988
3615.58194	0.06997
3614.29617	0.06955
3613.01040	0.06882
3611.72463	0.06836
3610.43887	0.06869
3609.15310	0.06968
3607.86733	0.07065
3606.58156	0.07111
3605.29579	0.07112
3604.01002	0.07110
3602.72425	0.07134
3601.43848	0.07175
3600.15272	0.07207
3598.86695	0.07228
3597.58118	0.07246
3596.29541	0.07264
3595.00964	0.07283
3593.72387	0.07312
3592.43810	0.07359
3591.15233	0.07428
3589.86656	0.07512
3588.58080	0.07581
3587.29503	0.07595
3586.00926	0.07546
3584.72349	0.07478
3583.43772	0.07432
3582.15195	0.07410
3580.86618	0.07385
3579.58041	0.07358
3578.29464	0.07360
3577.00888	0.07413
3575.72311	0.07498
3574.43734	0.07581
3573.15157	0.07645
3571.86580	0.07691
3570.58003	0.07724
3569.29426	0.07754
3568.00849	0.07800
3566.72273	0.07882
3565.43696	0.07995
3564.15119	0.08107
3562.86542	0.08179
3561.57965	0.08195
3560.29388	0.08165
3559.00811	0.08112
3557.72234	0.08063
3556.43657	0.08048
3555.15081	0.08077
3553.86504	0.08134
3552.57927	0.08181
3551.29350	0.08195
3550.00773	0.08195
3548.72196	0.08217
3547.43619	0.08268
3546.15042	0.08327
3544.86466	0.08371
3543.57889	0.08398
3542.29312	0.08411
3541.00735	0.08408
3539.72158	0.08401
3538.43581	0.08413
3537.15004	0.08457
3535.86427	0.08513
3534.57850	0.08555
3533.29274	0.08582
3532.00697	0.08610
3530.72120	0.08638
3529.43543	0.08654
3528.14966	0.08653
3526.86389	0.08648
3525.57812	0.08657
3524.29235	0.08678
3523.00659	0.08702
3521.72082	0.08730
3520.43505	0.08766
3519.14928	0.08817
3517.86351	0.08879
3516.57774	0.08950
3515.29197	0.09017
3514.00620	0.09057
3512.72043	0.09055
3511.43467	0.09009
3510.14890	0.08940
3508.86313	0.08876
3507.57736	0.08840
3506.29159	0.08842
3505.00582	0.08874
3503.72005	0.08927
3502.43428	0.09003
3501.14852	0.09101
3499.86275	0.09207
3498.57698	0.09299
3497.29121	0.09361
3496.00544	0.09388
3494.71967	0.09375
3493.43390	0.09336
3492.14813	0.09302
3490.86236	0.09310
3489.57660	0.09369
3488.29083	0.09448
3487.00506	0.09511
3485.71929	0.09542
3484.43352	0.09543
3483.14775	0.09516
3481.86198	0.09469
3480.57621	0.09436
3479.29045	0.09448
3478.00468	0.09502
3476.71891	0.09560
3475.43314	0.09589
3474.14737	0.09588
3472.86160	0.09576
3471.57583	0.09569
3470.29006	0.09572
3469.00429	0.09585
3467.71853	0.09616
3466.43276	0.09671
3465.14699	0.09748
3463.86122	0.09822
3462.57545	0.09869
3461.28968	0.09886
3460.00391	0.09889
3458.71814	0.09885
3457.43238	0.09865
3456.14661	0.09829
3454.86084	0.09803
3453.57507	0.09819
3452.28930	0.09881
3451.00353	0.09964
3449.71776	0.10039
3448.43199	0.10093
3447.14622	0.10122
3445.86046	0.10128
3444.57469	0.10119
3443.28892	0.10109
3442.00315	0.10103
3440.71738	0.10095
3439.43161	0.10071
3438.14584	0.10033
3436.86007	0.10012
3435.57431	0.10041
3434.28854	0.10121
3433.00277	0.10210
3431.71700	0.10259
3430.43123	0.10266
3429.14546	0.10261
3427.85969	0.10263
3426.57392	0.10258
3425.28815	0.10228
3424.00239	0.10182
3422.71662	0.10156
3421.43085	0.10178
3420.14508	0.10247
3418.85931	0.10332
3417.57354	0.10389
3416.28777	0.10393
3415.00200	0.10352
3413.71624	0.10293
3412.43047	0.10245
3411.14470	0.10232
3409.85893	0.10274
3408.57316	0.10368
3407.28739	0.10474
3406.00162	0.10538
3404.71585	0.10531
3403.43008	0.10474
3402.14432	0.10405
3400.85855	0.10358
3399.57278	0.10350
3398.28701	0.10398
3397.00124	0.10488
3395.71547	0.10578
3394.42970	0.10626
3393.14393	0.10622
3391.85817	0.10596
3390.57240	0.10588
3389.28663	0.10612
3388.00086	0.10652
3386.71509	0.10678
3385.42932	0.10678
3384.14355	0.10668
3382.85778	0.10669
3381.57201	0.10678
3380.28625	0.10677
3379.00048	0.10653
3377.71471	0.10621
3376.42894	0.10599
3375.14317	0.10594
3373.85740	0.10600
3372.57163	0.10612
3371.28586	0.10627
3370.00010	0.10647
3368.71433	0.10672
3367.42856	0.10706
3366.14279	0.10747
3364.85702	0.10791
3363.57125	0.10828
3362.28548	0.10855
3360.99971	0.10873
3359.71394	0.10889
3358.42818	0.10908
3357.14241	0.10928
3355.85664	0.10945
3354.57087	0.10963
3353.28510	0.10983
3351.99933	0.11009
3350.71356	0.11040
3349.42779	0.11071
3348.14202	0.11087
3346.85626	0.11072
3345.57049	0.11022
3344.28472	0.10944
3342.99895	0.10860
3341.71318	0.10793
3340.42741	0.10761
3339.14164	0.10770
3337.85587	0.10809
3336.57011	0.10854
3335.28434	0.10889
3333.99857	0.10910
3332.71280	0.10918
3331.42703	0.10908
3330.14126	0.10881
3328.85549	0.10852
3327.56972	0.10846
3326.28395	0.10875
3324.99819	0.10928
3323.71242	0.10977
3322.42665	0.11001
3321.14088	0.10994
3319.85511	0.10964
3318.56934	0.10923
3317.28357	0.10884
3315.99780	0.10857
3314.71204	0.10852
3313.42627	0.10869
3312.14050	0.10894
3310.85473	0.10907
3309.56896	0.10901
3308.28319	0.10889
3306.99742	0.10893
3305.71165	0.10923
3304.42588	0.10967
3303.14012	0.10992
3301.85435	0.10971
3300.56858	0.10911
3299.28281	0.10847
3297.99704	0.10815
3296.71127	0.10822
3295.42550	0.10843
3294.13973	0.10855
3292.85397	0.10857
3291.56820	0.10871
3290.28243	0.10914
3288.99666	0.10971
3287.71089	0.11008
3286.42512	0.10999
3285.13935	0.10948
3283.85358	0.10882
3282.56781	0.10824
3281.28205	0.10776
3279.99628	0.10731
3278.71051	0.10687
3277.42474	0.10658
3276.13897	0.10647
3274.85320	0.10641
3273.56743	0.10627
3272.28166	0.10609
3270.99590	0.10602
3269.71013	0.10616
3268.42436	0.10647
3267.13859	0.10682
3265.85282	0.10719
3264.56705	0.10755
3263.28128	0.10773
3261.99551	0.10749
3260.70974	0.10682
3259.42398	0.10606
3258.13821	0.10567
3256.85244	0.10586
3255.56667	0.10650
3254.28090	0.10726
3252.99513	0.10777
3251.70936	0.10784
3250.42359	0.10748
3249.13783	0.10695
3247.85206	0.10647
3246.56629	0.10610
3245.28052	0.10579
3243.99475	0.10542
3242.70898	0.10497
3241.42321	0.10454
3240.13744	0.10432
3238.85167	0.10433
3237.56591	0.10439
3236.28014	0.10424
3234.99437	0.10384
3233.70860	0.10331
3232.42283	0.10279
3231.13706	0.10243
3229.85129	0.10239
3228.56552	0.10261
3227.27976	0.10279
3225.99399	0.10256
3224.70822	0.10196
3223.42245	0.10142
3222.13668	0.10138
3220.85091	0.10182
3219.56514	0.10228
3218.27937	0.10235
3216.99360	0.10201
3215.70784	0.10166
3214.42207	0.10164
3213.13630	0.10191
3211.85053	0.10218
3210.56476	0.10220
3209.27899	0.10198
3207.99322	0.10166
3206.70745	0.10132
3205.42169	0.10103
3204.13592	0.10085
3202.85015	0.10082
3201.56438	0.10087
3200.27861	0.10084
3198.99284	0.10067
3197.70707	0.10046
3196.42130	0.10022
3195.13553	0.09980
3193.84977	0.09910
3192.56400	0.09832
3191.27823	0.09797
3189.99246	0.09831
3188.70669	0.09908
3187.42092	0.09976
3186.13515	0.10005
3184.84938	0.10000
3183.56362	0.09969
3182.27785	0.09910
3180.99208	0.09824
3179.70631	0.09740
3178.42054	0.09702
3177.13477	0.09722
3175.84900	0.09767
3174.56323	0.09789
3173.27746	0.09772
3171.99170	0.09731
3170.70593	0.09691
3169.42016	0.09667
3168.13439	0.09665
3166.84862	0.09676
3165.56285	0.09683
3164.27708	0.09668
3162.99131	0.09635
3161.70555	0.09605
3160.41978	0.09597
3159.13401	0.09612
3157.84824	0.09643
3156.56247	0.09679
3155.27670	0.09711
3153.99093	0.09728
3152.70516	0.09718
3151.41939	0.09680
3150.13363	0.09624
3148.84786	0.09559
3147.56209	0.09495
3146.27632	0.09441
3144.99055	0.09399
3143.70478	0.09365
3142.41901	0.09332
3141.13324	0.09298
3139.84748	0.09266
3138.56171	0.09240
3137.27594	0.09223
3135.99017	0.09216
3134.70440	0.09216
3133.41863	0.09218
3132.13286	0.09221
3130.84709	0.09231
3129.56132	0.09252
3128.27556	0.09274
3126.98979	0.09279
3125.70402	0.09254
3124.41825	0.09205
3123.13248	0.09146
3121.84671	0.09091
3120.56094	0.09043
3119.27517	0.09001
3117.98940	0.08968
3116.70364	0.08948
3115.41787	0.08943
3114.13210	0.08951
3112.84633	0.08968
3111.56056	0.08990
3110.27479	0.09012
3108.98902	0.09033
3107.70325	0.09046
3106.41749	0.09043
3105.13172	0.09025
3103.84595	0.09005
3102.56018	0.08994
3101.27441	0.08993
3099.98864	0.08993
3098.70287	0.08986
3097.41710	0.08969
3096.13133	0.08941
3094.84557	0.08896
3093.55980	0.08834
3092.27403	0.08778
3090.98826	0.08752
3089.70249	0.08760
3088.41672	0.08780
3087.13095	0.08792
3085.84518	0.08791
3084.55942	0.08785
3083.27365	0.08779
3081.98788	0.08775
3080.70211	0.08779
3079.41634	0.08795
3078.13057	0.08813
3076.84480	0.08826
3075.55903	0.08834
3074.27326	0.08852
3072.98750	0.08880
3071.70173	0.08896
3070.41596	0.08882
3069.13019	0.08835
3067.84442	0.08777
3066.55865	0.08727
3065.27288	0.08694
3063.98711	0.08677
3062.70135	0.08667
3061.41558	0.08657
3060.12981	0.08640
3058.84404	0.08615
3057.55827	0.08583
3056.27250	0.08554
3054.98673	0.08536
3053.70096	0.08529
3052.41519	0.08530
3051.12943	0.08538
3049.84366	0.08551
3048.55789	0.08560
3047.27212	0.08556
3045.98635	0.08540
3044.70058	0.08517
3043.41481	0.08493
3042.12904	0.08469
3040.84328	0.08443
3039.55751	0.08417
3038.27174	0.08396
3036.98597	0.08381
3035.70020	0.08363
3034.41443	0.08331
3033.12866	0.08282
3031.84289	0.08231
3030.55712	0.08196
3029.27136	0.08182
3027.98559	0.08178
3026.69982	0.08164
3025.41405	0.08134
3024.12828	0.08097
3022.84251	0.08070
3021.55674	0.08065
3020.27097	0.08078
3018.98521	0.08093
3017.69944	0.08101
3016.41367	0.08102
3015.12790	0.08105
3013.84213	0.08112
3012.55636	0.08116
3011.27059	0.08106
3009.98482	0.08081
3008.69905	0.08051
3007.41329	0.08027
3006.12752	0.08008
3004.84175	0.07983
3003.55598	0.07940
3002.27021	0.07887
3000.98444	0.07839
2999.69867	0.07808
2998.41290	0.07799
2997.12714	0.07806
2995.84137	0.07833
2994.55560	0.07872
2993.26983	0.07898
2991.98406	0.07893
2990.69829	0.07873
2989.41252	0.07865
2988.12675	0.07879
2986.84098	0.07901
2985.55522	0.07927
2984.26945	0.07972
2982.98368	0.08050
2981.69791	0.08149
2980.41214	0.08242
2979.12637	0.08311
2977.84060	0.08349
2976.55483	0.08366
2975.26907	0.08381
2973.98330	0.08422
2972.69753	0.08506
2971.41176	0.08631
2970.12599	0.08773
2968.84022	0.08902
2967.55445	0.09004
2966.26868	0.09088
2964.98291	0.09174
2963.69715	0.09279
2962.41138	0.09409
2961.12561	0.09560
2959.83984	0.09715
2958.55407	0.09855
2957.26830	0.09963
2955.98253	0.10042
2954.69676	0.10100
2953.41100	0.10146
2952.12523	0.10182
2950.83946	0.10200
2949.55369	0.10194
2948.26792	0.10174
2946.98215	0.10166
2945.69638	0.10187
2944.41061	0.10227
2943.12484	0.10260
2941.83908	0.10271
2940.55331	0.10272
2939.26754	0.10296
2937.98177	0.10372
2936.69600	0.10498
2935.41023	0.10638
2934.12446	0.10755
2932.83869	0.10838
2931.55293	0.10905
2930.26716	0.10981
2928.98139	0.11075
2927.69562	0.11174
2926.40985	0.11262
2925.12408	0.11330
2923.83831	0.11380
2922.55254	0.11408
2921.26677	0.11407
2919.98101	0.11380
2918.69524	0.11337
2917.40947	0.11280
2916.12370	0.11202
2914.83793	0.11103
2913.55216	0.11006
2912.26639	0.10929
2910.98062	0.10861
2909.69486	0.10766
2908.40909	0.10633
2907.12332	0.10486
2905.83755	0.10362
2904.55178	0.10275
2903.26601	0.10213
2901.98024	0.10160
2900.69447	0.10108
2899.40870	0.10050
2898.12294	0.09982
2896.83717	0.09902
2895.55140	0.09821
2894.26563	0.09751
2892.97986	0.09693
2891.69409	0.09636
2890.40832	0.09567
2889.12255	0.09482
2887.83678	0.09384
2886.55102	0.09282
2885.26525	0.09197
2883.97948	0.09152
2882.69371	0.09146
2881.40794	0.09152
2880.12217	0.09146
2878.83640	0.09135
2877.55063	0.09151
2876.26487	0.09210
2874.97910	0.09294
2873.69333	0.09368
2872.40756	0.09418
2871.12179	0.09446
2869.83602	0.09458
2868.55025	0.09456
2867.26448	0.09444
2865.97871	0.09436
2864.69295	0.09446
2863.40718	0.09468
2862.12141	0.09484
2860.83564	0.09482
2859.54987	0.09467
2858.26410	0.09452
2856.97833	0.09438
2855.69256	0.09413
2854.40680	0.09372
2853.12103	0.09326
2851.83526	0.09290
2850.54949	0.09265
2849.26372	0.09231
2847.97795	0.09170
2846.69218	0.09085
2845.40641	0.08991
2844.12064	0.08897
2842.83488	0.08798
2841.54911	0.08693
2840.26334	0.08585
2838.97757	0.08481
2837.69180	0.08385
2836.40603	0.08301
2835.12026	0.08221
2833.83449	0.08133
2832.54873	0.08030
2831.26296	0.07927
2829.97719	0.07848
2828.69142	0.07804
2827.40565	0.07780
2826.11988	0.07757
2824.83411	0.07720
2823.54834	0.07658
2822.26257	0.07574
2820.97681	0.07486
2819.69104	0.07418
2818.40527	0.07380
2817.11950	0.07362
2815.83373	0.07350
2814.54796	0.07340
2813.26219	0.07331
2811.97642	0.07317
2810.69066	0.07292
2809.40489	0.07260
2808.11912	0.07230
2806.83335	0.07209
2805.54758	0.07194
2804.26181	0.07178
2802.97604	0.07156
2801.69027	0.07131
2800.40450	0.07108
2799.11874	0.07085
2797.83297	0.07052
2796.54720	0.07006
2795.26143	0.06964
2793.97566	0.06950
2792.68989	0.06970
2791.40412	0.07004
2790.11835	0.07013
2788.83259	0.06975
2787.54682	0.06906
2786.26105	0.06845
2784.97528	0.06821
2783.68951	0.06832
2782.40374	0.06855
2781.11797	0.06871
2779.83220	0.06877
2778.54643	0.06872
2777.26067	0.06851
2775.97490	0.06802
2774.68913	0.06734
2773.40336	0.06678
2772.11759	0.06664
2770.83182	0.06695
2769.54605	0.06742
2768.26028	0.06776
2766.97452	0.06783
2765.68875	0.06771
2764.40298	0.06747
2763.11721	0.06718
2761.83144	0.06684
2760.54567	0.06651
2759.25990	0.06627
2757.97413	0.06615
2756.68836	0.06613
2755.40260	0.06615
2754.11683	0.06620
2752.83106	0.06621
2751.54529	0.06614
2750.25952	0.06598
2748.97375	0.06577
2747.68798	0.06552
2746.40221	0.06523
2745.11645	0.06493
2743.83068	0.06475
2742.54491	0.06483
2741.25914	0.06520
2739.97337	0.06563
2738.68760	0.06586
2737.40183	0.06578
2736.11606	0.06551
2734.83029	0.06521
2733.54453	0.06500
2732.25876	0.06483
2730.97299	0.06462
2729.68722	0.06445
2728.40145	0.06452
2727.11568	0.06488
2725.82991	0.06521
2724.54414	0.06512
2723.25838	0.06456
2721.97261	0.06388
2720.68684	0.06345
2719.40107	0.06332
2718.11530	0.06326
2716.82953	0.06301
2715.54376	0.06254
2714.25799	0.06209
2712.97222	0.06190
2711.68646	0.06203
2710.40069	0.06232
2709.11492	0.06266
2707.82915	0.06297
2706.54338	0.06317
2705.25761	0.06310
2703.97184	0.06270
2702.68607	0.06214
2701.40031	0.06165
2700.11454	0.06139
2698.82877	0.06130
2697.54300	0.06123
2696.25723	0.06113
2694.97146	0.06108
2693.68569	0.06117
2692.39992	0.06139
2691.11415	0.06162
2689.82839	0.06170
2688.54262	0.06153
2687.25685	0.06112
2685.97108	0.06071
2684.68531	0.06054
2683.39954	0.06060
2682.11377	0.06072
2680.82800	0.06074
2679.54224	0.06072
2678.25647	0.06076
2676.97070	0.06091
2675.68493	0.06108
2674.39916	0.06112
2673.11339	0.06095
2671.82762	0.06065
2670.54185	0.06035
2669.25608	0.06010
2667.97032	0.05984
2666.68455	0.05960
2665.39878	0.05953
2664.11301	0.05969
2662.82724	0.05997
2661.54147	0.06018
2660.25570	0.06019
2658.96993	0.05999
2657.68417	0.05964
2656.39840	0.05930
2655.11263	0.05912
2653.82686	0.05908
2652.54109	0.05897
2651.25532	0.05865
2649.96955	0.05820
2648.68378	0.05783
2647.39801	0.05757
2646.11225	0.05736
2644.82648	0.05718
2643.54071	0.05706
2642.25494	0.05699
2640.96917	0.05686
2639.68340	0.05664
2638.39763	0.05639
2637.11186	0.05618
2635.82609	0.05601
2634.54033	0.05587
2633.25456	0.05573
2631.96879	0.05555
2630.68302	0.05528
2629.39725	0.05496
2628.11148	0.05464
2626.82571	0.05437
2625.53994	0.05416
2624.25418	0.05405
2622.96841	0.05411
2621.68264	0.05423
2620.39687	0.05414
2619.11110	0.05374
2617.82533	0.05325
2616.53956	0.05296
2615.25379	0.05291
2613.96802	0.05294
2612.68226	0.05293
2611.39649	0.05287
2610.11072	0.05266
2608.82495	0.05219
2607.53918	0.05153
2606.25341	0.05093
2604.96764	0.05056
2603.68187	0.05030
2602.39611	0.05007
2601.11034	0.04996
2599.82457	0.05008
2598.53880	0.05035
2597.25303	0.05052
2595.96726	0.05046
2594.68149	0.05023
2593.39572	0.04998
2592.10995	0.04973
2590.82419	0.04942
2589.53842	0.04910
2588.25265	0.04897
2586.96688	0.04912
2585.68111	0.04937
2584.39534	0.04948
2583.10957	0.04939
2581.82380	0.04928
2580.53804	0.04926
2579.25227	0.04925
2577.96650	0.04904
2576.68073	0.04852
2575.39496	0.04794
2574.10919	0.04765
2572.82342	0.04779
2571.53765	0.04812
2570.25188	0.04835
2568.96612	0.04842
2567.68035	0.04846
2566.39458	0.04854
2565.10881	0.04861
2563.82304	0.04854
2562.53727	0.04817
2561.25150	0.04742
2559.96573	0.04652
2558.67997	0.04581
2557.39420	0.04549
2556.10843	0.04557
2554.82266	0.04598
2553.53689	0.04664
2552.25112	0.04739
2550.96535	0.04797
2549.67958	0.04817
2548.39381	0.04804
2547.10805	0.04779
2545.82228	0.04754
2544.53651	0.04725
2543.25074	0.04691
2541.96497	0.04665
2540.67920	0.04661
2539.39343	0.04678
2538.10766	0.04698
2536.82190	0.04706
2535.53613	0.04703
2534.25036	0.04691
2532.96459	0.04673
2531.67882	0.04657
2530.39305	0.04657
2529.10728	0.04678
2527.82151	0.04705
2526.53574	0.04713
2525.24998	0.04684
2523.96421	0.04623
2522.67844	0.04558
2521.39267	0.04520
2520.10690	0.04525
2518.82113	0.04561
2517.53536	0.04598
2516.24959	0.04602
2514.96383	0.04565
2513.67806	0.04502
2512.39229	0.04448
2511.10652	0.04426
2509.82075	0.04433
2508.53498	0.04446
2507.24921	0.04450
2505.96344	0.04452
2504.67767	0.04467
2503.39191	0.04489
2502.10614	0.04499
2500.82037	0.04480
2499.53460	0.04440
2498.24883	0.04402
2496.96306	0.04388
2495.67729	0.04402
2494.39152	0.04427
2493.10576	0.04444
2491.81999	0.04449
2490.53422	0.04448
2489.24845	0.04440
2487.96268	0.04418
2486.67691	0.04380
2485.39114	0.04346
2484.10537	0.04341
2482.81960	0.04375
2481.53384	0.04426
2480.24807	0.04458
2478.96230	0.04447
2477.67653	0.04409
2476.39076	0.04378
2475.10499	0.04380
2473.81922	0.04414
2472.53345	0.04463
2471.24769	0.04508
2469.96192	0.04528
2468.67615	0.04509
2467.39038	0.04460
2466.10461	0.04414
2464.81884	0.04395
2463.53307	0.04396
2462.24730	0.04396
2460.96153	0.04378
2459.67577	0.04349
2458.39000	0.04325
2457.10423	0.04322
2455.81846	0.04348
2454.53269	0.04385
2453.24692	0.04397
2451.96115	0.04367
2450.67538	0.04323
2449.38962	0.04309
2448.10385	0.04329
2446.81808	0.04345
2445.53231	0.04325
2444.24654	0.04277
2442.96077	0.04226
2441.67500	0.04188
2440.38923	0.04165
2439.10346	0.04157
2437.81770	0.04163
2436.53193	0.04182
2435.24616	0.04212
2433.96039	0.04250
2432.67462	0.04282
2431.38885	0.04295
2430.10308	0.04285
2428.81731	0.04265
2427.53155	0.04249
2426.24578	0.04249
2424.96001	0.04268
2423.67424	0.04297
2422.38847	0.04321
2421.10270	0.04331
2419.81693	0.04325
2418.53116	0.04303
2417.24539	0.04269
2415.95963	0.04233
2414.67386	0.04213
2413.38809	0.04214
2412.10232	0.04229
2410.81655	0.04241
2409.53078	0.04237
2408.24501	0.04211
2406.95924	0.04168
2405.67347	0.04130
2404.38771	0.04128
2403.10194	0.04172
2401.81617	0.04239
2400.53040	0.04296
2399.24463	0.04318
2397.95886	0.04284
2396.67309	0.04215
2395.38732	0.04154
2394.10156	0.04128
2392.81579	0.04130
2391.53002	0.04132
2390.24425	0.04120
2388.95848	0.04109
2387.67271	0.04110
2386.38694	0.04120
2385.10117	0.04132
2383.81540	0.04146
2382.52964	0.04163
2381.24387	0.04163
2379.95810	0.04129
2378.67233	0.04061
2377.38656	0.03983
2376.10079	0.03920
2374.81502	0.03880
2373.52925	0.03845
2372.24349	0.03815
2370.95772	0.03791
2369.67195	0.03798
2368.38618	0.03824
2367.10041	0.03834
2365.81464	0.03807
2364.52887	0.03783
2363.24310	0.03773
2361.95733	0.03777
2360.67157	0.03779
2359.38580	0.03801
2358.10003	0.03826
2356.81426	0.03849
2355.52849	0.03871
2354.24272	0.03886
2352.95695	0.03910
2351.67118	0.03926
2350.38542	0.03922
2349.09965	0.03931
2347.81388	0.03976
2346.52811	0.04001
2345.24234	0.03997
2343.95657	0.04001
2342.67080	0.04042
2341.38503	0.04051
2340.09926	0.03994
2338.81350	0.03946
2337.52773	0.03935
2336.24196	0.03907
2334.95619	0.03872
2333.67042	0.03891
2332.38465	0.03951
2331.09888	0.03908
2329.81311	0.03841
2328.52735	0.03885
2327.24158	0.03889
2325.95581	0.03893
2324.67004	0.04013
2323.38427	0.04090
2322.09850	0.04084
2320.81273	0.04137
2319.52696	0.04137
2318.24119	0.04115
2316.95543	0.04154
2315.66966	0.04141
2314.38389	0.04095
2313.09812	0.04068
2311.81235	0.04012
2310.52658	0.03981
2309.24081	0.03959
2307.95504	0.03930
2306.66928	0.03932
2305.38351	0.03935
2304.09774	0.03944
2302.81197	0.03959
2301.52620	0.03965
2300.24043	0.03974
2298.95466	0.03970
2297.66889	0.03949
2296.38312	0.03911
2295.09736	0.03864
2293.81159	0.03826
2292.52582	0.03800
2291.24005	0.03793
2289.95428	0.03795
2288.66851	0.03796
2287.38274	0.03788
2286.09697	0.03770
2284.81121	0.03740
2283.52544	0.03694
2282.23967	0.03636
2280.95390	0.03583
2279.66813	0.03550
2278.38236	0.03536
2277.09659	0.03530
2275.81082	0.03530
2274.52505	0.03535
2273.23929	0.03540
2271.95352	0.03532
2270.66775	0.03505
2269.38198	0.03469
2268.09621	0.03441
2266.81044	0.03434
2265.52467	0.03451
2264.23890	0.03476
2262.95314	0.03481
2261.66737	0.03445
2260.38160	0.03385
2259.09583	0.03336
2257.81006	0.03313
2256.52429	0.03292
2255.23852	0.03253
2253.95275	0.03198
2252.66698	0.03150
2251.38122	0.03125
2250.09545	0.03127
2248.80968	0.03149
2247.52391	0.03128
2246.23814	0.03095
2244.95237	0.03044
2243.66660	0.02980
2242.38083	0.02933
2241.09507	0.02927
2239.80930	0.02944
2238.52353	0.02945
2237.23776	0.02920
2235.95199	0.02894
2234.66622	0.02888
2233.38045	0.02901
2232.09468	0.02920
2230.80891	0.02936
2229.52315	0.02937
2228.23738	0.02910
2226.95161	0.02866
2225.66584	0.02833
2224.38007	0.02826
2223.09430	0.02830
2221.80853	0.02826
2220.52276	0.02803
2219.23700	0.02756
2217.95123	0.02672
2216.66546	0.02563
2215.37969	0.02471
2214.09392	0.02438
2212.80815	0.02458
2211.52238	0.02487
2210.23661	0.02480
2208.95084	0.02439
2207.66508	0.02412
2206.37931	0.02445
2205.09354	0.02522
2203.80777	0.02574
2202.52200	0.02541
2201.23623	0.02448
2199.95046	0.02376
2198.66469	0.02374
2197.37893	0.02417
2196.09316	0.02439
2194.80739	0.02398
2193.52162	0.02317
2192.23585	0.02275
2190.95008	0.02335
2189.66431	0.02475
2188.37854	0.02599
2187.09277	0.02624
2185.80701	0.02542
2184.52124	0.02411
2183.23547	0.02304
2181.94970	0.02262
2180.66393	0.02271
2179.37816	0.02273
2178.09239	0.02221
2176.80662	0.02125
2175.52085	0.02049
2174.23509	0.02046
2172.94932	0.02101
2171.66355	0.02133
2170.37778	0.02058
2169.09201	0.01862
2167.80624	0.01619
2166.52047	0.01452
2165.23470	0.01445
2163.94894	0.01576
2162.66317	0.01719
2161.37740	0.01744
2160.09163	0.01637
2158.80586	0.01514
2157.52009	0.01502
2156.23432	0.01613
2154.94855	0.01762
2153.66278	0.01872
2152.37702	0.01928
2151.09125	0.01954
2149.80548	0.01970
2148.51971	0.01974
2147.23394	0.01967
2145.94817	0.01962
2144.66240	0.01973
2143.37663	0.01998
2142.09087	0.02035
2140.80510	0.02088
2139.51933	0.02156
2138.23356	0.02232
2136.94779	0.02296
2135.66202	0.02320
2134.37625	0.02303
2133.09048	0.02289
2131.80471	0.02343
2130.51895	0.02472
2129.23318	0.02601
2127.94741	0.02644
2126.66164	0.02587
2125.37587	0.02493
2124.09010	0.02431
2122.80433	0.02421
2121.51856	0.02443
2120.23280	0.02476
2118.94703	0.02511
2117.66126	0.02550
2116.37549	0.02593
2115.08972	0.02636
2113.80395	0.02668
2112.51818	0.02673
2111.23241	0.02644
2109.94664	0.02596
2108.66088	0.02556
2107.37511	0.02534
2106.08934	0.02518
2104.80357	0.02487
2103.51780	0.02439
2102.23203	0.02394
2100.94626	0.02383
2099.66049	0.02519
2098.37473	0.02599
2097.08896	0.02595
2095.80319	0.02550
2094.51742	0.02496
2093.23165	0.02461
2091.94588	0.02452
2090.66011	0.02450
2089.37434	0.02428
2088.08857	0.02386
2086.80281	0.02345
2085.51704	0.02327
2084.23127	0.02330
2082.94550	0.02334
2081.65973	0.02334
2080.37396	0.02345
2079.08819	0.02372
2077.80242	0.02390
2076.51666	0.02367
2075.23089	0.02301
2073.94512	0.02232
2072.65935	0.02216
2071.37358	0.02272
2070.08781	0.02366
2068.80204	0.02435
2067.51627	0.02428
2066.23050	0.02342
2064.94474	0.02217
2063.65897	0.02101
2062.37320	0.02015
2061.08743	0.01949
2059.80166	0.01893
2058.51589	0.01854
2057.23012	0.01838
2055.94435	0.01839
2054.65859	0.01845
2053.37282	0.01858
2052.08705	0.01894
2050.80128	0.01950
2049.51551	0.01992
2048.22974	0.01983
2046.94397	0.01925
2045.65820	0.01860
2044.37243	0.01812
2043.08667	0.01766
2041.80090	0.01706
2040.51513	0.01660
2039.22936	0.01669
2037.94359	0.01727
2036.65782	0.01767
2035.37205	0.01730
2034.08628	0.01623
2032.80052	0.01512
2031.51475	0.01460
2030.22898	0.01465
2028.94321	0.01478
2027.65744	0.01452
2026.37167	0.01391
2025.08590	0.01337
2023.80013	0.01318
2022.51436	0.01320
2021.22860	0.01311
2019.94283	0.01278
2018.65706	0.01234
2017.37129	0.01207
2016.08552	0.01231
2014.79975	0.01313
2013.51398	0.01430
2012.22821	0.01535
2010.94245	0.01596
2009.65668	0.01621
2008.37091	0.01636
2007.08514	0.01665
2005.79937	0.01707
2004.51360	0.01743
2003.22783	0.01762
2001.94206	0.01766
2000.65629	0.01761
1999.37053	0.01745
1998.08476	0.01709
1996.79899	0.01654
1995.51322	0.01601
1994.22745	0.01571
1992.94168	0.01573
1991.65591	0.01607
1990.37014	0.01675
1989.08438	0.01762
1987.79861	0.01831
1986.51284	0.01855
1985.22707	0.01842
1983.94130	0.01828
1982.65553	0.01846
1981.36976	0.01910
1980.08399	0.01998
1978.79822	0.02059
1977.51246	0.02033
1976.22669	0.01916
1974.94092	0.01765
1973.65515	0.01657
1972.36938	0.01627
1971.08361	0.01658
1969.79784	0.01700
1968.51207	0.01716
1967.22631	0.01715
1965.94054	0.01739
1964.65477	0.01811
1963.36900	0.01895
1962.08323	0.01939
1960.79746	0.01943
1959.51169	0.01960
1958.22592	0.02025
1956.94015	0.02114
1955.65439	0.02173
1954.36862	0.02180
1953.08285	0.02156
1951.79708	0.02132
1950.51131	0.02129
1949.22554	0.02151
1947.93977	0.02192
1946.65400	0.02235
1945.36823	0.02256
1944.08247	0.02245
1942.79670	0.02214
1941.51093	0.02187
1940.22516	0.02180
1938.93939	0.02189
1937.65362	0.02205
1936.36785	0.02226
1935.08208	0.02266
1933.79632	0.02330
1932.51055	0.02400
1931.22478	0.02442
1929.93901	0.02435
1928.65324	0.02391
1927.36747	0.02338
1926.08170	0.02304
1924.79593	0.02299
1923.51016	0.02321
1922.22440	0.02360
1920.93863	0.02406
1919.65286	0.02448
1918.36709	0.02476
1917.08132	0.02483
1915.79555	0.02473
1914.50978	0.02458
1913.22401	0.02446
1911.93825	0.02439
1910.65248	0.02437
1909.36671	0.02440
1908.08094	0.02457
1906.79517	0.02500
1905.50940	0.02558
1904.22363	0.02595
1902.93786	0.02587
1901.65209	0.02548
1900.36633	0.02516
1899.08056	0.02515
1897.79479	0.02528
1896.50902	0.02519
1895.22325	0.02474
1893.93748	0.02419
1892.65171	0.02401
1891.36594	0.02442
1890.08018	0.02511
1888.79441	0.02557
1887.50864	0.02561
1886.22287	0.02537
1884.93710	0.02507
1883.65133	0.02479
1882.36556	0.02454
1881.07979	0.02430
1879.79402	0.02415
1878.50826	0.02418
1877.22249	0.02438
1875.93672	0.02464
1874.65095	0.02482
1873.36518	0.02487
1872.07941	0.02489
1870.79364	0.02496
1869.50787	0.02513
1868.22211	0.02536
1866.93634	0.02560
1865.65057	0.02577
1864.36480	0.02575
1863.07903	0.02551
1861.79326	0.02515
1860.50749	0.02487
1859.22172	0.02484
1857.93595	0.02500
1856.65019	0.02517
1855.36442	0.02520
1854.07865	0.02517
1852.79288	0.02523
1851.50711	0.02541
1850.22134	0.02557
1848.93557	0.02560
1847.64980	0.02551
1846.36404	0.02537
1845.07827	0.02515
1843.79250	0.02480
1842.50673	0.02451
1841.22096	0.02457
1839.93519	0.02500
1838.64942	0.02547
1837.36365	0.02569
1836.07788	0.02565
1834.79212	0.02552
1833.50635	0.02544
1832.22058	0.02545
1830.93481	0.02547
1829.64904	0.02546
1828.36327	0.02542
1827.07750	0.02546
1825.79173	0.02559
1824.50597	0.02575
1823.22020	0.02594
1821.93443	0.02620
1820.64866	0.02646
1819.36289	0.02655
1818.07712	0.02635
1816.79135	0.02588
1815.50558	0.02535
1814.21981	0.02497
1812.93405	0.02483
1811.64828	0.02485
1810.36251	0.02487
1809.07674	0.02484
1807.79097	0.02477
1806.50520	0.02474
1805.21943	0.02485
1803.93366	0.02514
1802.64790	0.02551
1801.36213	0.02582
1800.07636	0.02594
1798.79059	0.02593
1797.50482	0.02588
1796.21905	0.02588
1794.93328	0.02599
1793.64751	0.02615
1792.36174	0.02624
1791.07598	0.02617
1789.79021	0.02605
1788.50444	0.02602
1787.21867	0.02612
1785.93290	0.02625
1784.64713	0.02630
1783.36136	0.02629
1782.07559	0.02630
1780.78983	0.02635
1779.50406	0.02635
1778.21829	0.02632
1776.93252	0.02628
1775.64675	0.02634
1774.36098	0.02652
1773.07521	0.02668
1771.78944	0.02669
1770.50367	0.02661
1769.21791	0.02665
1767.93214	0.02681
1766.64637	0.02692
1765.36060	0.02692
1764.07483	0.02687
1762.78906	0.02683
1761.50329	0.02679
1760.21752	0.02679
1758.93176	0.02689
1757.64599	0.02706
1756.36022	0.02718
1755.07445	0.02719
1753.78868	0.02721
1752.50291	0.02725
1751.21714	0.02721
1749.93137	0.02706
1748.64560	0.02692
1747.35984	0.02695
1746.07407	0.02711
1744.78830	0.02728
1743.50253	0.02742
1742.21676	0.02752
1740.93099	0.02763
1739.64522	0.02771
1738.35945	0.02780
1737.07369	0.02809
1735.78792	0.02864
1734.50215	0.02912
1733.21638	0.02916
1731.93061	0.02885
1730.64484	0.02858
1729.35907	0.02855
1728.07330	0.02868
1726.78753	0.02887
1725.50177	0.02907
1724.21600	0.02927
1722.93023	0.02948
1721.64446	0.02980
1720.35869	0.03036
1719.07292	0.03112
1717.78715	0.03180
1716.50138	0.03215
1715.21561	0.03227
1713.92985	0.03240
1712.64408	0.03268
1711.35831	0.03314
1710.07254	0.03373
1708.78677	0.03442
1707.50100	0.03518
1706.21523	0.03593
1704.92946	0.03660
1703.64370	0.03735
1702.35793	0.03838
1701.07216	0.03953
1699.78639	0.04044
1698.50062	0.04111
1697.21485	0.04181
1695.92908	0.04251
1694.64331	0.04299
1693.35754	0.04340
1692.07178	0.04404
1690.78601	0.04490
1689.50024	0.04577
1688.21447	0.04662
1686.92870	0.04765
1685.64293	0.04883
1684.35716	0.04980
1683.07139	0.05037
1681.78563	0.05076
1680.49986	0.05131
1679.21409	0.05207
1677.92832	0.05300
1676.64255	0.05401
1675.35678	0.05495
1674.07101	0.05576
1672.78524	0.05658
1671.49947	0.05754
1670.21371	0.05854
1668.92794	0.05935
1667.64217	0.05997
1666.35640	0.06060
1665.07063	0.06145
1663.78486	0.06246
1662.49909	0.06336
1661.21332	0.06400
1659.92756	0.06445
1658.64179	0.06490
1657.35602	0.06555
1656.07025	0.06657
1654.78448	0.06788
1653.49871	0.06896
1652.21294	0.06932
1650.92717	0.06910
1649.64140	0.06894
1648.35564	0.06917
1647.06987	0.06959
1645.78410	0.06988
1644.49833	0.06998
1643.21256	0.07001
1641.92679	0.07006
1640.64102	0.07012
1639.35525	0.07021
1638.06949	0.07039
1636.78372	0.07058
1635.49795	0.07052
1634.21218	0.07008
1632.92641	0.06948
1631.64064	0.06897
1630.35487	0.06862
1629.06910	0.06830
1627.78333	0.06793
1626.49757	0.06753
1625.21180	0.06716
1623.92603	0.06680
1622.64026	0.06636
1621.35449	0.06583
1620.06872	0.06540
1618.78295	0.06517
1617.49718	0.06501
1616.21142	0.06465
1614.92565	0.06407
1613.63988	0.06352
1612.35411	0.06316
1611.06834	0.06292
1609.78257	0.06269
1608.49680	0.06249
1607.21103	0.06235
1605.92526	0.06228
1604.63950	0.06225
1603.35373	0.06222
1602.06796	0.06217
1600.78219	0.06209
1599.49642	0.06199
1598.21065	0.06189
1596.92488	0.06183
1595.63911	0.06183
1594.35335	0.06194
1593.06758	0.06211
1591.78181	0.06231
1590.49604	0.06249
1589.21027	0.06261
1587.92450	0.06271
1586.63873	0.06282
1585.35296	0.06296
1584.06719	0.06316
1582.78143	0.06342
1581.49566	0.06372
1580.20989	0.06404
1578.92412	0.06443
1577.63835	0.06491
1576.35258	0.06531
1575.06681	0.06544
1573.78104	0.06546
1572.49528	0.06566
1571.20951	0.06610
1569.92374	0.06660
1568.63797	0.06697
1567.35220	0.06721
1566.06643	0.06743
1564.78066	0.06765
1563.49489	0.06796
1562.20912	0.06849
1560.92336	0.06925
1559.63759	0.06986
1558.35182	0.06993
1557.06605	0.06958
1555.78028	0.06921
1554.49451	0.06905
1553.20874	0.06901
1551.92297	0.06900
1550.63721	0.06900
1549.35144	0.06896
1548.06567	0.06885
1546.77990	0.06874
1545.49413	0.06866
1544.20836	0.06858
1542.92259	0.06850
1541.63682	0.06843
1540.35105	0.06820
1539.06529	0.06763
1537.77952	0.06682
1536.49375	0.06617
1535.20798	0.06591
1533.92221	0.06589
1532.63644	0.06584
1531.35067	0.06571
1530.06490	0.06565
1528.77914	0.06575
1527.49337	0.06597
1526.20760	0.06624
1524.92183	0.06654
1523.63606	0.06695
1522.35029	0.06742
1521.06452	0.06779
1519.77875	0.06803
1518.49298	0.06834
1517.20722	0.06887
1515.92145	0.06953
1514.63568	0.07025
1513.34991	0.07104
1512.06414	0.07191
1510.77837	0.07286
1509.49260	0.07397
1508.20683	0.07523
1506.92107	0.07638
1505.63530	0.07717
1504.34953	0.07764
1503.06376	0.07811
1501.77799	0.07875
1500.49222	0.07952
1499.20645	0.08034
1497.92068	0.08118
1496.63491	0.08189
1495.34915	0.08238
1494.06338	0.08271
1492.77761	0.08308
1491.49184	0.08363
1490.20607	0.08430
1488.92030	0.08502
1487.63453	0.08576
1486.34876	0.08650
1485.06299	0.08727
1483.77723	0.08812
1482.49146	0.08908
1481.20569	0.09014
1479.91992	0.09127
1478.63415	0.09244
1477.34838	0.09360
1476.06261	0.09476
1474.77684	0.09591
1473.49108	0.09702
1472.20531	0.09799
1470.91954	0.09882
1469.63377	0.09962
1468.34800	0.10051
1467.06223	0.10147
1465.77646	0.10237
1464.49069	0.10309
1463.20492	0.10367
1461.91916	0.10425
1460.63339	0.10502
1459.34762	0.10605
1458.06185	0.10719
1456.77608	0.10813
1455.49031	0.10868
1454.20454	0.10900
1452.91877	0.10927
1451.63301	0.10952
1450.34724	0.10971
1449.06147	0.10981
1447.77570	0.10982
1446.48993	0.10972
1445.20416	0.10956
1443.91839	0.10935
1442.63262	0.10910
1441.34685	0.10880
1440.06109	0.10851
1438.77532	0.10833
1437.48955	0.10825
1436.20378	0.10817
1434.91801	0.10810
1433.63224	0.10821
1432.34647	0.10864
1431.06070	0.10930
1429.77494	0.11011
1428.48917	0.11098
1427.20340	0.11196
1425.91763	0.11306
1424.63186	0.11427
1423.34609	0.11556
1422.06032	0.11693
1420.77455	0.11835
1419.48878	0.11960
1418.20302	0.12051
1416.91725	0.12114
1415.63148	0.12166
1414.34571	0.12217
1413.05994	0.12262
1411.77417	0.12289
1410.48840	0.12293
1409.20263	0.12273
1407.91687	0.12238
1406.63110	0.12193
1405.34533	0.12136
1404.05956	0.12063
1402.77379	0.11971
1401.48802	0.11863
1400.20225	0.11740
1398.91648	0.11600
1397.63071	0.11447
1396.34495	0.11287
1395.05918	0.11124
1393.77341	0.10951
1392.48764	0.10772
1391.20187	0.10596
1389.91610	0.10434
1388.63033	0.10283
1387.34456	0.10136
1386.05880	0.09988
1384.77303	0.09842
1383.48726	0.09701
1382.20149	0.09565
1380.91572	0.09433
1379.62995	0.09298
1378.34418	0.09153
1377.05841	0.08990
1375.77264	0.08805
1374.48688	0.08603
1373.20111	0.08396
1371.91534	0.08194
1370.62957	0.07999
1369.34380	0.07807
1368.05803	0.07617
1366.77226	0.07438
1365.48649	0.07274
1364.20073	0.07120
1362.91496	0.06967
1361.62919	0.06808
1360.34342	0.06651
1359.05765	0.06506
1357.77188	0.06377
1356.48611	0.06262
1355.20034	0.06158
1353.91457	0.06060
1352.62881	0.05970
1351.34304	0.05886
1350.05727	0.05808
1348.77150	0.05734
1347.48573	0.05660
1346.19996	0.05589
1344.91419	0.05522
1343.62842	0.05459
1342.34266	0.05403
1341.05689	0.05353
1339.77112	0.05307
1338.48535	0.05264
1337.19958	0.05220
1335.91381	0.05176
1334.62804	0.05132
1333.34227	0.05087
1332.05650	0.05040
1330.77074	0.04989
1329.48497	0.04937
1328.19920	0.04887
1326.91343	0.04841
1325.62766	0.04800
1324.34189	0.04763
1323.05612	0.04730
1321.77035	0.04700
1320.48459	0.04670
1319.19882	0.04642
1317.91305	0.04611
1316.62728	0.04577
1315.34151	0.04539
1314.05574	0.04498
1312.76997	0.04461
1311.48420	0.04430
1310.19843	0.04403
1308.91267	0.04379
1307.62690	0.04356
1306.34113	0.04331
1305.05536	0.04305
1303.76959	0.04275
1302.48382	0.04244
1301.19805	0.04213
1299.91228	0.04183
1298.62652	0.04155
1297.34075	0.04126
1296.05498	0.04099
1294.76921	0.04077
1293.48344	0.04062
1292.19767	0.04052
1290.91190	0.04044
1289.62613	0.04035
1288.34036	0.04023
1287.05460	0.04009
1285.76883	0.03995
1284.48306	0.03980
1283.19729	0.03963
1281.91152	0.03942
1280.62575	0.03921
1279.33998	0.03901
1278.05421	0.03885
1276.76845	0.03870
1275.48268	0.03856
1274.19691	0.03840
1272.91114	0.03824
1271.62537	0.03807
1270.33960	0.03789
1269.05383	0.03770
1267.76806	0.03751
1266.48229	0.03734
1265.19653	0.03721
1263.91076	0.03713
1262.62499	0.03708
1261.33922	0.03704
1260.05345	0.03698
1258.76768	0.03692
1257.48191	0.03688
1256.19614	0.03687
1254.91037	0.03685
1253.62461	0.03681
1252.33884	0.03672
1251.05307	0.03663
1249.76730	0.03654
1248.48153	0.03646
1247.19576	0.03636
1245.90999	0.03625
1244.62422	0.03615
1243.33846	0.03607
1242.05269	0.03601
1240.76692	0.03594
1239.48115	0.03588
1238.19538	0.03584
1236.90961	0.03579
1235.62384	0.03571
1234.33807	0.03555
1233.05230	0.03533
1231.76654	0.03507
1230.48077	0.03480
1229.19500	0.03453
1227.90923	0.03427
1226.62346	0.03402
1225.33769	0.03380
1224.05192	0.03360
1222.76615	0.03340
1221.48039	0.03320
1220.19462	0.03301
1218.90885	0.03283
1217.62308	0.03265
1216.33731	0.03249
1215.05154	0.03235
1213.76577	0.03222
1212.48000	0.03208
1211.19423	0.03195
1209.90847	0.03183
1208.62270	0.03173
1207.33693	0.03166
1206.05116	0.03163
1204.76539	0.03166
1203.47962	0.03174
1202.19385	0.03180
1200.90808	0.03173
1199.62232	0.03149
1198.33655	0.03140
1197.05078	0.03133
1195.76501	0.03126
1194.47924	0.03111
1193.19347	0.03088
1191.90770	0.03060
1190.62193	0.03038
1189.33616	0.03027
1188.05040	0.03024
1186.76463	0.03020
1185.47886	0.03010
1184.19309	0.02999
1182.90732	0.02993
1181.62155	0.02995
1180.33578	0.02998
1179.05001	0.02996
1177.76425	0.02989
1176.47848	0.02983
1175.19271	0.02984
1173.90694	0.02991
1172.62117	0.02999
1171.33540	0.03003
1170.04963	0.03003
1168.76386	0.03005
1167.47809	0.03015
1166.19233	0.03032
1164.90656	0.03053
1163.62079	0.03068
1162.33502	0.03075
1161.04925	0.03076
1159.76348	0.03080
1158.47771	0.03089
1157.19194	0.03102
1155.90618	0.03115
1154.62041	0.03126
1153.33464	0.03137
1152.04887	0.03156
1150.76310	0.03186
1149.47733	0.03223
1148.19156	0.03260
1146.90579	0.03296
1145.62002	0.03335
1144.33426	0.03386
1143.04849	0.03450
1141.76272	0.03523
1140.47695	0.03599
1139.19118	0.03677
1137.90541	0.03762
1136.61964	0.03861
1135.33387	0.03980
1134.04811	0.04126
1132.76234	0.04301
1131.47657	0.04501
1130.19080	0.04724
1128.90503	0.04971
1127.61926	0.05248
1126.33349	0.05557
1125.04772	0.05893
1123.76195	0.06247
1122.47619	0.06609
1121.19042	0.06976
1119.90465	0.07340
1118.61888	0.07696
1117.33311	0.08043
1116.04734	0.08381
1114.76157	0.08709
1113.47580	0.09025
1112.19004	0.09327
1110.90427	0.09623
1109.61850	0.09911
1108.33273	0.10187
1107.04696	0.10448
1105.76119	0.10699
1104.47542	0.10947
1103.18965	0.11191
1101.90388	0.11420
1100.61812	0.11630
1099.33235	0.11822
1098.04658	0.12002
1096.76081	0.12176
1095.47504	0.12348
1094.18927	0.12513
1092.90350	0.12664
1091.61773	0.12798
1090.33197	0.12915
1089.04620	0.13020
1087.76043	0.13126
1086.47466	0.13242
1085.18889	0.13372
1083.90312	0.13512
1082.61735	0.13662
1081.33158	0.13825
1080.04581	0.14005
1078.76005	0.14199
1077.47428	0.14405
1076.18851	0.14618
1074.90274	0.14835
1073.61697	0.15058
1072.33120	0.15288
1071.04543	0.15528
1069.75966	0.15780
1068.47390	0.16041
1067.18813	0.16310
1065.90236	0.16593
1064.61659	0.16893
1063.33082	0.17206
1062.04505	0.17517
1060.75928	0.17821
1059.47351	0.18123
1058.18774	0.18433
1056.90198	0.18752
1055.61621	0.19072
1054.33044	0.19390
1053.04467	0.19709
1051.75890	0.20035
1050.47313	0.20371
1049.18736	0.20716
1047.90159	0.21070
1046.61583	0.21439
1045.33006	0.21831
1044.04429	0.22243
1042.75852	0.22667
1041.47275	0.23096
1040.18698	0.23529
1038.90121	0.23968
1037.61544	0.24415
1036.32967	0.24867
1035.04391	0.25318
1033.75814	0.25759
1032.47237	0.26179
1031.18660	0.26570
1029.90083	0.26926
1028.61506	0.27246
1027.32929	0.27529
1026.04352	0.27774
1024.75775	0.27979
1023.47199	0.28140
1022.18622	0.28248
1020.90045	0.28297
1019.61468	0.28295
1018.32891	0.28252
1017.04314	0.28174
1015.75737	0.28052
1014.47160	0.27879
1013.18584	0.27655
1011.90007	0.27384
1010.61430	0.27073
1009.32853	0.26724
1008.04276	0.26336
1006.75699	0.25907
1005.47122	0.25435
1004.18545	0.24923
1002.89968	0.24378
1001.61392	0.23807
1000.32815	0.23212
999.04238	0.22601
997.75661	0.21979
996.47084	0.21351
995.18507	0.20713
993.89930	0.20065
992.61353	0.19415
991.32777	0.18779
990.04200	0.18166
988.75623	0.17583
987.47046	0.17030
986.18469	0.16502
984.89892	0.15993
983.61315	0.15500
982.32738	0.15025
981.04161	0.14573
979.75585	0.14144
978.47008	0.13739
977.18431	0.13363
975.89854	0.13025
974.61277	0.12729
973.32700	0.12473
972.04123	0.12258
970.75546	0.12089
969.46970	0.11977
968.18393	0.11929
966.89816	0.11936
965.61239	0.11983
964.32662	0.12047
963.04085	0.12109
961.75508	0.12147
960.46931	0.12138
959.18354	0.12066
957.89778	0.11933
956.61201	0.11753
955.32624	0.11541
954.04047	0.11309
952.75470	0.11068
951.46893	0.10829
950.18316	0.10601
948.89739	0.10378
947.61163	0.10151
946.32586	0.09923
945.04009	0.09705
943.75432	0.09501
942.46855	0.09311
941.18278	0.09128
939.89701	0.08949
938.61124	0.08775
937.32547	0.08606
936.03971	0.08441
934.75394	0.08284
933.46817	0.08141
932.18240	0.08016
930.89663	0.07905
929.61086	0.07803
928.32509	0.07707
927.03932	0.07613
925.75356	0.07519
924.46779	0.07420
923.18202	0.07323
921.89625	0.07234
920.61048	0.07154
919.32471	0.07080
918.03894	0.07009
916.75317	0.06940
915.46740	0.06872
914.18164	0.06803
912.89587	0.06731
911.61010	0.06659
910.32433	0.06585
909.03856	0.06511
907.75279	0.06435
906.46702	0.06358
905.18125	0.06287
903.89549	0.06229
902.60972	0.06186
901.32395	0.06150
900.03818	0.06114
898.75241	0.06078
897.46664	0.06047
896.18087	0.06023
894.89510	0.05999
893.60933	0.05968
892.32357	0.05928
891.03780	0.05884
889.75203	0.05844
888.46626	0.05826
887.18049	0.05851
885.89472	0.05936
884.60895	0.06085
883.32318	0.06291
882.03742	0.06534
880.75165	0.06780
879.46588	0.06997
878.18011	0.07170
876.89434	0.07311
875.60857	0.07448
874.32280	0.07593
873.03703	0.07730
871.75126	0.07826
870.46550	0.07857
869.17973	0.07812
867.89396	0.07693
866.60819	0.07514
865.32242	0.07296
864.03665	0.07065
862.75088	0.06841
861.46511	0.06630
860.17935	0.06434
858.89358	0.06259
857.60781	0.06115
856.32204	0.06005
855.03627	0.05917
853.75050	0.05840
852.46473	0.05765
851.17896	0.05694
849.89319	0.05627
848.60743	0.05568
847.32166	0.05516
846.03589	0.05475
844.75012	0.05446
843.46435	0.05425
842.17858	0.05402
840.89281	0.05371
839.60704	0.05336
838.32128	0.05302
837.03551	0.05269
835.74974	0.05236
834.46397	0.05202
833.17820	0.05174
831.89243	0.05153
830.60666	0.05134
829.32089	0.05112
828.03512	0.05090
826.74936	0.05073
825.46359	0.05063
824.17782	0.05053
822.89205	0.05040
821.60628	0.05029
820.32051	0.05023
819.03474	0.05021
817.74897	0.05018
816.46321	0.05015
815.17744	0.05014
813.89167	0.05010
812.60590	0.05000
811.32013	0.04983
810.03436	0.04962
808.74859	0.04946
807.46282	0.04939
806.17705	0.04938
804.89129	0.04935
803.60552	0.04927
802.31975	0.04919
801.03398	0.04919
799.74821	0.04932
798.46244	0.04948
797.17667	0.04957
795.89090	0.04954
794.60513	0.04943
793.31937	0.04931
792.03360	0.04921
790.74783	0.04908
789.46206	0.04891
788.17629	0.04873
786.89052	0.04860
785.60475	0.04854
784.31898	0.04855
783.03322	0.04861
781.74745	0.04867
780.46168	0.04868
779.17591	0.04858
777.89014	0.04839
776.60437	0.04820
775.31860	0.04807
774.03283	0.04799
772.74706	0.04789
771.46130	0.04775
770.17553	0.04765
768.88976	0.04768
767.60399	0.04784
766.31822	0.04804
765.03245	0.04815
763.74668	0.04814
762.46091	0.04807
761.17515	0.04801
759.88938	0.04800
758.60361	0.04804
757.31784	0.04810
756.03207	0.04816
754.74630	0.04816
753.46053	0.04809
752.17476	0.04799
750.88899	0.04792
749.60323	0.04791
748.31746	0.04790
747.03169	0.04784
745.74592	0.04767
744.46015	0.04745
743.17438	0.04723
741.88861	0.04706
740.60284	0.04698
739.31708	0.04697
738.03131	0.04695
736.74554	0.04687
735.45977	0.04675
734.17400	0.04669
732.88823	0.04668
731.60246	0.04666
730.31669	0.04660
729.03092	0.04655
727.74516	0.04656
726.45939	0.04666
725.17362	0.04680
723.88785	0.04679
722.60208	0.04690
721.31631	0.04702
720.03054	0.04710
718.74477	0.04713
717.45901	0.04711
716.17324	0.04700
714.88747	0.04680
713.60170	0.04655
712.31593	0.04631
711.03016	0.04612
709.74439	0.04601
708.45862	0.04600
707.17285	0.04603
705.88709	0.04607
704.60132	0.04607
703.31555	0.04602
702.02978	0.04594
700.74401	0.04585
699.45824	0.04580
698.17247	0.04579
696.88670	0.04579
695.60094	0.04578
694.31517	0.04573
693.02940	0.04566
691.74363	0.04559
690.45786	0.04552
689.17209	0.04544
687.88632	0.04534
686.60055	0.04520
685.31478	0.04500
684.02902	0.04479
682.74325	0.04458
681.45748	0.04441
680.17171	0.04429
678.88594	0.04420
677.60017	0.04416
676.31440	0.04416
675.02863	0.04420
673.74287	0.04421
672.45710	0.04412
671.17133	0.04387
669.88556	0.04358
668.59979	0.04367
667.31402	0.04363
666.02825	0.04323
664.74248	0.04325
663.45671	0.04322
662.17095	0.04304
660.88518	0.04283
659.59941	0.04264
658.31364	0.04250
657.02787	0.04242
655.74210	0.04234
654.45633	0.04219
653.17056	0.04200
651.88480	0.04182
650.59903	0.04168
649.31326	0.04160
648.02749	0.04154
646.74172	0.04147
645.45595	0.04138
644.17018	0.04130
642.88441	0.04126
641.59864	0.04127
640.31288	0.04130
639.02711	0.04127
637.74134	0.04121
636.45557	0.04115
635.16980	0.04115
633.88403	0.04115
632.59826	0.04109
631.31249	0.04114
630.02673	0.04202
628.74096	0.04339
627.45519	0.04263
626.16942	0.04448
624.88365	0.04836
623.59788	0.05285
622.31211	0.05749
621.02634	0.06154
619.74057	0.06407
618.45481	0.06491
617.16904	0.06489
615.88327	0.06510
614.59750	0.06627
613.31173	0.06859
612.02596	0.07201
610.74019	0.07663
609.45442	0.08258
608.16866	0.08951
606.88289	0.09635
605.59712	0.10200
604.31135	0.10598
603.02558	0.10837
601.73981	0.10937
600.45404	0.10914
599.16827	0.10789
597.88250	0.10583
596.59674	0.10311
595.31097	0.09991
594.02520	0.09652
592.73943	0.09337
591.45366	0.09083
590.16789	0.08915
588.88212	0.08841
587.59635	0.08850
586.31059	0.08917
585.02482	0.09024
583.73905	0.09167
582.45328	0.09357
581.16751	0.09591
579.88174	0.09854
578.59597	0.10119
577.31020	0.10368
576.02443	0.10599
574.73867	0.10814
573.45290	0.11021
572.16713	0.11236
570.88136	0.11481
569.59559	0.11778
568.30982	0.12140
567.02405	0.12562
565.73828	0.13019
564.45251	0.13464
563.16675	0.13832
561.88098	0.14055
560.59521	0.14087
559.30944	0.13922
558.02367	0.13598
556.73790	0.13173
555.45213	0.12688
554.16636	0.12165
552.88060	0.11616
551.59483	0.11067
550.30906	0.10550
549.02329	0.10084
547.73752	0.09673
546.45175	0.09310
545.16598	0.08985
543.88021	0.08692
542.59444	0.08426
541.30868	0.08190
540.02291	0.07985
538.73714	0.07802
537.45137	0.07626
536.16560	0.07444
534.87983	0.07266
533.59406	0.07108
532.30829	0.06976
531.02253	0.06859
529.73676	0.06745
528.45099	0.06627
527.16522	0.06506
525.87945	0.06385
524.59368	0.06270
523.30791	0.06169
522.02214	0.06085
520.73637	0.06012
519.45061	0.05938
518.16484	0.05855
516.87907	0.05764
515.59330	0.05668
514.30753	0.05569
513.02176	0.05473
511.73599	0.05393
510.45022	0.05335
509.16446	0.05298
507.87869	0.05267
506.59292	0.05222
505.30715	0.05157
504.02138	0.05085
502.73561	0.05023
501.44984	0.04977
500.16407	0.04947
498.87830	0.04924
497.59254	0.04900
496.30677	0.04865
495.02100	0.04813
493.73523	0.04748
492.44946	0.04686
491.16369	0.04640
489.87792	0.04607
488.59215	0.04580
487.30639	0.04550
486.02062	0.04521
484.73485	0.04500
483.44908	0.04489
482.16331	0.04482
480.87754	0.04472
479.59177	0.04464
478.30600	0.04466
477.02023	0.04486
475.73447	0.04525
474.44870	0.04576
473.16293	0.04622
471.87716	0.04647
470.59139	0.04651
469.30562	0.04644
468.01985	0.04635
466.73408	0.04619
465.44832	0.04591
464.16255	0.04552
462.87678	0.04508
461.59101	0.04468
460.30524	0.04428
459.01947	0.04383
457.73370	0.04329
456.44793	0.04267
455.16216	0.04208
453.87640	0.04158
452.59063	0.04118
451.30486	0.04081
450.01909	0.04047
448.73332	0.04015
447.44755	0.03982
446.16178	0.03944
444.87601	0.03899
443.59025	0.03852
442.30448	0.03810
441.01871	0.03779
439.73294	0.03758
438.44717	0.03740
437.16140	0.03720
435.87563	0.03695
434.58986	0.03672
433.30409	0.03656
432.01833	0.03647
430.73256	0.03637
429.44679	0.03621
428.16102	0.03599
426.87525	0.03576
425.58948	0.03554
424.30371	0.03531
423.01794	0.03503
421.73218	0.03473
420.44641	0.03442
419.16064	0.03409
417.87487	0.03373
416.58910	0.03340
415.30333	0.03315
414.01756	0.03298
412.73179	0.03283
411.44602	0.03265
410.16026	0.03240
408.87449	0.03211
407.58872	0.03186
406.30295	0.03170
405.01718	0.03161
403.73141	0.03158
402.44564	0.03158
401.15987	0.03160
399.87411	0.03166
