3997.45528 0.03848
3996.16951 0.03877
3994.88374 0.03859
3993.59798 0.03817
3992.31221 0.03789
3991.02644 0.03778
3989.74067 0.03758
3988.45490 0.03715
3987.16913 0.03668
3985.88336 0.03638
3984.59759 0.03630
3983.31183 0.03648
3982.02606 0.03702
3980.74029 0.03784
3979.45452 0.03845
3978.16875 0.03838
3976.88298 0.03773
3975.59721 0.03717
3974.31144 0.03724
3973.02567 0.03794
3971.73991 0.03873
3970.45414 0.03895
3969.16837 0.03836
3967.88260 0.03726
3966.59683 0.03628
3965.31106 0.03593
3964.02529 0.03621
3962.73952 0.03672
3961.45376 0.03702
3960.16799 0.03684
3958.88222 0.03622
3957.59645 0.03549
3956.31068 0.03507
3955.02491 0.03517
3953.73914 0.03557
3952.45337 0.03599
3951.16760 0.03649
3949.88184 0.03724
3948.59607 0.03805
3947.31030 0.03847
3946.02453 0.03832
3944.73876 0.03783
3943.45299 0.03723
3942.16722 0.03658
3940.88145 0.03593
3939.59569 0.03552
3938.30992 0.03551
3937.02415 0.03588
3935.73838 0.03657
3934.45261 0.03757
3933.16684 0.03876
3931.88107 0.03972
3930.59530 0.03993
3929.30953 0.03921
3928.02377 0.03804
3926.73800 0.03719
3925.45223 0.03699
3924.16646 0.03709
3922.88069 0.03699
3921.59492 0.03642
3920.30915 0.03556
3919.02338 0.03496
3917.73762 0.03505
3916.45185 0.03570
3915.16608 0.03624
3913.88031 0.03625
3912.59454 0.03590
3911.30877 0.03563
3910.02300 0.03573
3908.73723 0.03626
3907.45146 0.03720
3906.16570 0.03840
3904.87993 0.03938
3903.59416 0.03959
3902.30839 0.03902
3901.02262 0.03836
3899.73685 0.03840
3898.45108 0.03933
3897.16531 0.04066
3895.87955 0.04162
3894.59378 0.04175
3893.30801 0.04120
3892.02224 0.04036
3890.73647 0.03943
3889.45070 0.03852
3888.16493 0.03787
3886.87916 0.03748
3885.59339 0.03696
3884.30763 0.03617
3883.02186 0.03555
3881.73609 0.03562
3880.45032 0.03635
3879.16455 0.03717
3877.87878 0.03754
3876.59301 0.03724
3875.30724 0.03635
3874.02148 0.03528
3872.73571 0.03466
3871.44994 0.03480
3870.16417 0.03522
3868.87840 0.03547
3867.59263 0.03579
3866.30686 0.03655
3865.02109 0.03739
3863.73532 0.03764
3862.44956 0.03726
3861.16379 0.03670
3859.87802 0.03619
3858.59225 0.03546
3857.30648 0.03430
3856.02071 0.03301
3854.73494 0.03206
3853.44917 0.03152
3852.16341 0.03126
3850.87764 0.03146
3849.59187 0.03219
3848.30610 0.03307
3847.02033 0.03357
3845.73456 0.03365
3844.44879 0.03382
3843.16302 0.03450
3841.87725 0.03539
3840.59149 0.03587
3839.30572 0.03577
3838.01995 0.03550
3836.73418 0.03555
3835.44841 0.03597
3834.16264 0.03630
3832.87687 0.03600
3831.59110 0.03507
3830.30534 0.03411
3829.01957 0.03370
3827.73380 0.03379
3826.44803 0.03368
3825.16226 0.03288
3823.87649 0.03185
3822.59072 0.03138
3821.30495 0.03157
3820.01918 0.03188
3818.73342 0.03198
3817.44765 0.03190
3816.16188 0.03152
3814.87611 0.03085
3813.59034 0.03046
3812.30457 0.03076
3811.01880 0.03150
3809.73303 0.03221
3808.44726 0.03266
3807.16150 0.03272
3805.87573 0.03249
3804.58996 0.03258
3803.30419 0.03344
3802.01842 0.03479
3800.73265 0.03599
3799.44688 0.03678
3798.16111 0.03702
3796.87535 0.03629
3795.58958 0.03456
3794.30381 0.03276
3793.01804 0.03198
3791.73227 0.03246
3790.44650 0.03356
3789.16073 0.03446
3787.87496 0.03464
3786.58919 0.03403
3785.30343 0.03298
3784.01766 0.03208
3782.73189 0.03176
3781.44612 0.03209
3780.16035 0.03280
3778.87458 0.03351
3777.58881 0.03393
3776.30304 0.03389
3775.01728 0.03344
3773.73151 0.03286
3772.44574 0.03258
3771.15997 0.03284
3769.87420 0.03357
3768.58843 0.03443
3767.30266 0.03494
3766.01689 0.03458
3764.73112 0.03337
3763.44536 0.03202
3762.15959 0.03132
3760.87382 0.03146
3759.58805 0.03211
3758.30228 0.03291
3757.01651 0.03350
3755.73074 0.03365
3754.44497 0.03343
3753.15921 0.03311
3751.87344 0.03287
3750.58767 0.03257
3749.30190 0.03187
3748.01613 0.03103
3746.73036 0.03111
3745.44459 0.03249
3744.15882 0.03395
3742.87305 0.03425
3741.58729 0.03352
3740.30152 0.03247
3739.01575 0.03149
3737.72998 0.03073
3736.44421 0.03025
3735.15844 0.03019
3733.87267 0.03068
3732.58690 0.03136
3731.30114 0.03155
3730.01537 0.03105
3728.72960 0.03038
3727.44383 0.03000
3726.15806 0.02987
3724.87229 0.02999
3723.58652 0.03052
3722.30075 0.03153
3721.01498 0.03285
3719.72922 0.03431
3718.44345 0.03559
3717.15768 0.03619
3715.87191 0.03577
3714.58614 0.03458
3713.30037 0.03315
3712.01460 0.03176
3710.72883 0.03043
3709.44307 0.02926
3708.15730 0.02851
3706.87153 0.02837
3705.58576 0.02882
3704.29999 0.02985
3703.01422 0.03132
3701.72845 0.03284
3700.44268 0.03380
3699.15691 0.03394
3697.87115 0.03354
3696.58538 0.03308
3695.29961 0.03280
3694.01384 0.03262
3692.72807 0.03243
3691.44230 0.03231
3690.15653 0.03250
3688.87076 0.03285
3687.58500 0.03286
3686.29923 0.03227
3685.01346 0.03132
3683.72769 0.03052
3682.44192 0.03035
3681.15615 0.03105
3679.87038 0.03235
3678.58461 0.03387
3677.29884 0.03541
3676.01308 0.03665
3674.72731 0.03716
3673.44154 0.03700
3672.15577 0.03662
3670.87000 0.03616
3669.58423 0.03553
3668.29846 0.03508
3667.01269 0.03522
3665.72693 0.03590
3664.44116 0.03674
3663.15539 0.03750
3661.86962 0.03808
3660.58385 0.03838
3659.29808 0.03836
3658.01231 0.03804
3656.72654 0.03738
3655.44077 0.03636
3654.15501 0.03533
3652.86924 0.03476
3651.58347 0.03467
3650.29770 0.03476
3649.01193 0.03489
3647.72616 0.03533
3646.44039 0.03617
3645.15462 0.03709
3643.86886 0.03756
3642.58309 0.03745
3641.29732 0.03711
3640.01155 0.03700
3638.72578 0.03722
3637.44001 0.03751
3636.15424 0.03759
3634.86847 0.03743
3633.58270 0.03732
3632.29694 0.03773
3631.01117 0.03884
3629.72540 0.04013
3628.43963 0.04081
3627.15386 0.04083
3625.86809 0.04086
3624.58232 0.04120
3623.29655 0.04147
3622.01079 0.04139
3620.72502 0.04112
3619.43925 0.04092
3618.15348 0.04078
3616.86771 0.04064
3615.58194 0.04057
3614.29617 0.04066
3613.01040 0.04097
3611.72463 0.04165
3610.43887 0.04284
3609.15310 0.04436
3607.86733 0.04561
3606.58156 0.04600
3605.29579 0.04538
3604.01002 0.04415
3602.72425 0.04311
3601.43848 0.04293
3600.15272 0.04357
3598.86695 0.04448
3597.58118 0.04520
3596.29541 0.04561
3595.00964 0.04574
3593.72387 0.04566
3592.43810 0.04571
3591.15233 0.04630
3589.86656 0.04729
3588.58080 0.04798
3587.29503 0.04785
3586.00926 0.04720
3584.72349 0.04683
3583.43772 0.04730
3582.15195 0.04840
3580.86618 0.04936
3579.58041 0.04956
3578.29464 0.04903
3577.00888 0.04841
3575.72311 0.04839
3574.43734 0.04908
3573.15157 0.05001
3571.86580 0.05069
3570.58003 0.05110
3569.29426 0.05140
3568.00849 0.05147
3566.72273 0.05110
3565.43696 0.05050
3564.15119 0.05023
3562.86542 0.05060
3561.57965 0.05139
3560.29388 0.05208
3559.00811 0.05234
3557.72234 0.05232
3556.43657 0.05250
3555.15081 0.05323
3553.86504 0.05417
3552.57927 0.05453
3551.29350 0.05392
3550.00773 0.05283
3548.72196 0.05228
3547.43619 0.05285
3546.15042 0.05436
3544.86466 0.05618
3543.57889 0.05769
3542.29312 0.05840
3541.00735 0.05812
3539.72158 0.05716
3538.43581 0.05619
3537.15004 0.05569
3535.86427 0.05555
3534.57850 0.05552
3533.29274 0.05574
3532.00697 0.05661
3530.72120 0.05807
3529.43543 0.05937
3528.14966 0.05970
3526.86389 0.05900
3525.57812 0.05799
3524.29235 0.05747
3523.00659 0.05763
3521.72082 0.05806
3520.43505 0.05833
3519.14928 0.05847
3517.86351 0.05888
3516.57774 0.05975
3515.29197 0.06073
3514.00620 0.06116
3512.72043 0.06081
3511.43467 0.06017
3510.14890 0.05992
3508.86313 0.06019
3507.57736 0.06052
3506.29159 0.06052
3505.00582 0.06032
3503.72005 0.06044
3502.43428 0.06109
3501.14852 0.06198
3499.86275 0.06265
3498.57698 0.06312
3497.29121 0.06379
3496.00544 0.06491
3494.71967 0.06606
3493.43390 0.06661
3492.14813 0.06628
3490.86236 0.06526
3489.57660 0.06391
3488.29083 0.06277
3487.00506 0.06239
3485.71929 0.06298
3484.43352 0.06402
3483.14775 0.06461
3481.86198 0.06432
3480.57621 0.06357
3479.29045 0.06312
3478.00468 0.06331
3476.71891 0.06391
3475.43314 0.06449
3474.14737 0.06481
3472.86160 0.06493
3471.57583 0.06492
3470.29006 0.06475
3469.00429 0.06437
3467.71853 0.06403
3466.43276 0.06413
3465.14699 0.06483
3463.86122 0.06579
3462.57545 0.06651
3461.28968 0.06673
3460.00391 0.06652
3458.71814 0.06618
3457.43238 0.06607
3456.14661 0.06636
3454.86084 0.06693
3453.57507 0.06745
3452.28930 0.06768
3451.00353 0.06761
3449.71776 0.06742
3448.43199 0.06725
3447.14622 0.06717
3445.86046 0.06720
3444.57469 0.06730
3443.28892 0.06731
3442.00315 0.06711
3440.71738 0.06672
3439.43161 0.06639
3438.14584 0.06647
3436.86007 0.06723
3435.57431 0.06865
3434.28854 0.07033
3433.00277 0.07159
3431.71700 0.07196
3430.43123 0.07150
3429.14546 0.07066
3427.85969 0.06992
3426.57392 0.06967
3425.28815 0.06996
3424.00239 0.07052
3422.71662 0.07085
3421.43085 0.07062
3420.14508 0.06983
3418.85931 0.06885
3417.57354 0.06819
3416.28777 0.06822
3415.00200 0.06885
3413.71624 0.06960
3412.43047 0.07002
3411.14470 0.07012
3409.85893 0.07025
3408.57316 0.07062
3407.28739 0.07109
3406.00162 0.07136
3404.71585 0.07132
3403.43008 0.07109
3402.14432 0.07086
3400.85855 0.07077
3399.57278 0.07078
3398.28701 0.07080
3397.00124 0.07090
3395.71547 0.07095
3394.42970 0.07083
3393.14393 0.07066
3391.85817 0.07076
3390.57240 0.07127
3389.28663 0.07192
3388.00086 0.07224
3386.71509 0.07208
3385.42932 0.07174
3384.14355 0.07169
3382.85778 0.07210
3381.57201 0.07275
3380.28625 0.07335
3379.00048 0.07367
3377.71471 0.07367
3376.42894 0.07340
3375.14317 0.07310
3373.85740 0.07306
3372.57163 0.07345
3371.28586 0.07406
3370.00010 0.07447
3368.71433 0.07433
3367.42856 0.07371
3366.14279 0.07297
3364.85702 0.07245
3363.57125 0.07218
3362.28548 0.07199
3360.99971 0.07169
3359.71394 0.07129
3358.42818 0.07098
3357.14241 0.07096
3355.85664 0.07132
3354.57087 0.07179
3353.28510 0.07196
3351.99933 0.07162
3350.71356 0.07103
3349.42779 0.07070
3348.14202 0.07097
3346.85626 0.07172
3345.57049 0.07246
3344.28472 0.07275
3342.99895 0.07246
3341.71318 0.07176
3340.42741 0.07090
3339.14164 0.07016
3337.85587 0.06980
3336.57011 0.06994
3335.28434 0.07038
3333.99857 0.07087
3332.71280 0.07125
3331.42703 0.07145
3330.14126 0.07146
3328.85549 0.07132
3327.56972 0.07127
3326.28395 0.07147
3324.99819 0.07182
3323.71242 0.07217
3322.42665 0.07253
3321.14088 0.07303
3319.85511 0.07348
3318.56934 0.07348
3317.28357 0.07279
3315.99780 0.07165
3314.71204 0.07061
3313.42627 0.07018
3312.14050 0.07048
3310.85473 0.07116
3309.56896 0.07164
3308.28319 0.07157
3306.99742 0.07120
3305.71165 0.07104
3304.42588 0.07132
3303.14012 0.07172
3301.85435 0.07171
3300.56858 0.07122
3299.28281 0.07061
3297.99704 0.07027
3296.71127 0.07018
3295.42550 0.07003
3294.13973 0.06970
3292.85397 0.06939
3291.56820 0.06941
3290.28243 0.06977
3288.99666 0.07014
3287.71089 0.07017
3286.42512 0.06985
3285.13935 0.06941
3283.85358 0.06909
3282.56781 0.06896
3281.28205 0.06903
3279.99628 0.06927
3278.71051 0.06954
3277.42474 0.06970
3276.13897 0.06971
3274.85320 0.06978
3273.56743 0.07017
3272.28166 0.07088
3270.99590 0.07150
3269.71013 0.07150
3268.42436 0.07072
3267.13859 0.06955
3265.85282 0.06861
3264.56705 0.06829
3263.28128 0.06847
3261.99551 0.06870
3260.70974 0.06862
3259.42398 0.06827
3258.13821 0.06800
3256.85244 0.06812
3255.56667 0.06857
3254.28090 0.06901
3252.99513 0.06909
3251.70936 0.06871
3250.42359 0.06801
3249.13783 0.06737
3247.85206 0.06716
3246.56629 0.06763
3245.28052 0.06863
3243.99475 0.06974
3242.70898 0.07046
3241.42321 0.07062
3240.13744 0.07034
3238.85167 0.06986
3237.56591 0.06932
3236.28014 0.06872
3234.99437 0.06817
3233.70860 0.06773
3232.42283 0.06737
3231.13706 0.06694
3229.85129 0.06648
3228.56552 0.06620
3227.27976 0.06624
3225.99399 0.06642
3224.70822 0.06647
3223.42245 0.06633
3222.13668 0.06621
3220.85091 0.06632
3219.56514 0.06665
3218.27937 0.06700
3216.99360 0.06723
3215.70784 0.06735
3214.42207 0.06742
3213.13630 0.06747
3211.85053 0.06755
3210.56476 0.06764
3209.27899 0.06761
3207.99322 0.06735
3206.70745 0.06694
3205.42169 0.06662
3204.13592 0.06652
3202.85015 0.06641
3201.56438 0.06598
3200.27861 0.06530
3198.99284 0.06483
3197.70707 0.06491
3196.42130 0.06537
3195.13553 0.06579
3193.84977 0.06586
3192.56400 0.06565
3191.27823 0.06538
3189.99246 0.06530
3188.70669 0.06549
3187.42092 0.06584
3186.13515 0.06609
3184.84938 0.06595
3183.56362 0.06538
3182.27785 0.06467
3180.99208 0.06423
3179.70631 0.06430
3178.42054 0.06471
3177.13477 0.06513
3175.84900 0.06530
3174.56323 0.06515
3173.27746 0.06480
3171.99170 0.06465
3170.70593 0.06507
3169.42016 0.06596
3168.13439 0.06665
3166.84862 0.06658
3165.56285 0.06588
3164.27708 0.06513
3162.99131 0.06470
3161.70555 0.06454
3160.41978 0.06449
3159.13401 0.06443
3157.84824 0.06429
3156.56247 0.06401
3155.27670 0.06371
3153.99093 0.06353
3152.70516 0.06346
3151.41939 0.06331
3150.13363 0.06292
3148.84786 0.06234
3147.56209 0.06181
3146.27632 0.06154
3144.99055 0.06150
3143.70478 0.06150
3142.41901 0.06150
3141.13324 0.06172
3139.84748 0.06223
3138.56171 0.06278
3137.27594 0.06298
3135.99017 0.06270
3134.70440 0.06214
3133.41863 0.06148
3132.13286 0.06073
3130.84709 0.05988
3129.56132 0.05913
3128.27556 0.05876
3126.98979 0.05891
3125.70402 0.05941
3124.41825 0.05995
3123.13248 0.06034
3121.84671 0.06051
3120.56094 0.06048
3119.27517 0.06025
3117.98940 0.05983
3116.70364 0.05932
3115.41787 0.05892
3114.13210 0.05879
3112.84633 0.05894
3111.56056 0.05923
3110.27479 0.05947
3108.98902 0.05950
3107.70325 0.05927
3106.41749 0.05883
3105.13172 0.05826
3103.84595 0.05768
3102.56018 0.05724
3101.27441 0.05710
3099.98864 0.05728
3098.70287 0.05769
3097.41710 0.05819
3096.13133 0.05869
3094.84557 0.05904
3093.55980 0.05901
3092.27403 0.05857
3090.98826 0.05798
3089.70249 0.05756
3088.41672 0.05741
3087.13095 0.05736
3085.84518 0.05726
3084.55942 0.05706
3083.27365 0.05682
3081.98788 0.05655
3080.70211 0.05630
3079.41634 0.05607
3078.13057 0.05580
3076.84480 0.05546
3075.55903 0.05508
3074.27326 0.05481
3072.98750 0.05482
3071.70173 0.05504
3070.41596 0.05524
3069.13019 0.05525
3067.84442 0.05515
3066.55865 0.05514
3065.27288 0.05526
3063.98711 0.05537
3062.70135 0.05535
3061.41558 0.05518
3060.12981 0.05494
3058.84404 0.05470
3057.55827 0.05442
3056.27250 0.05410
3054.98673 0.05377
3053.70096 0.05359
3052.41519 0.05370
3051.12943 0.05403
3049.84366 0.05438
3048.55789 0.05455
3047.27212 0.05450
3045.98635 0.05435
3044.70058 0.05418
3043.41481 0.05395
3042.12904 0.05358
3040.84328 0.05309
3039.55751 0.05263
3038.27174 0.05243
3036.98597 0.05256
3035.70020 0.05284
3034.41443 0.05308
3033.12866 0.05323
3031.84289 0.05327
3030.55712 0.05318
3029.27136 0.05293
3027.98559 0.05258
3026.69982 0.05226
3025.41405 0.05209
3024.12828 0.05201
3022.84251 0.05191
3021.55674 0.05169
3020.27097 0.05133
3018.98521 0.05095
3017.69944 0.05075
3016.41367 0.05092
3015.12790 0.05144
3013.84213 0.05201
3012.55636 0.05229
3011.27059 0.05223
3009.98482 0.05211
3008.69905 0.05223
3007.41329 0.05256
3006.12752 0.05276
3004.84175 0.05253
3003.55598 0.05192
3002.27021 0.05125
3000.98444 0.05079
2999.69867 0.05054
2998.41290 0.05046
2997.12714 0.05050
2995.84137 0.05055
2994.55560 0.05049
2993.26983 0.05031
2991.98406 0.05012
2990.69829 0.05004
2989.41252 0.05014
2988.12675 0.05047
2986.84098 0.05108
2985.55522 0.05184
2984.26945 0.05248
2982.98368 0.05277
2981.69791 0.05266
2980.41214 0.05237
2979.12637 0.05222
2977.84060 0.05243
2976.55483 0.05297
2975.26907 0.05372
2973.98330 0.05456
2972.69753 0.05539
2971.41176 0.05613
2970.12599 0.05674
2968.84022 0.05725
2967.55445 0.05775
2966.26868 0.05832
2964.98291 0.05894
2963.69715 0.05949
2962.41138 0.05983
2961.12561 0.05989
2959.83984 0.05974
2958.55407 0.05958
2957.26830 0.05968
2955.98253 0.06022
2954.69676 0.06114
2953.41100 0.06210
2952.12523 0.06285
2950.83946 0.06334
2949.55369 0.06363
2948.26792 0.06371
2946.98215 0.06354
2945.69638 0.06316
2944.41061 0.06279
2943.12484 0.06269
2941.83908 0.06292
2940.55331 0.06327
2939.26754 0.06339
2937.98177 0.06318
2936.69600 0.06288
2935.41023 0.06270
2934.12446 0.06262
2932.83869 0.06249
2931.55293 0.06221
2930.26716 0.06183
2928.98139 0.06126
2927.69562 0.06028
2926.40985 0.05864
2925.12408 0.05623
2923.83831 0.05306
2922.55254 0.04915
2921.26677 0.04462
2919.98101 0.03984
2918.69524 0.03556
2917.40947 0.03274
2916.12370 0.03216
2914.83793 0.03404
2913.55216 0.03781
2912.26639 0.04230
2910.98062 0.04639
2909.69486 0.04953
2908.40909 0.05169
2907.12332 0.05306
2905.83755 0.05386
2904.55178 0.05431
2903.26601 0.05456
2901.98024 0.05453
2900.69447 0.05418
2899.40870 0.05369
2898.12294 0.05333
2896.83717 0.05325
2895.55140 0.05331
2894.26563 0.05329
2892.97986 0.05310
2891.69409 0.05282
2890.40832 0.05256
2889.12255 0.05232
2887.83678 0.05212
2886.55102 0.05203
2885.26525 0.05210
2883.97948 0.05224
2882.69371 0.05232
2881.40794 0.05242
2880.12217 0.05267
2878.83640 0.05306
2877.55063 0.05341
2876.26487 0.05358
2874.97910 0.05369
2873.69333 0.05398
2872.40756 0.05457
2871.12179 0.05530
2869.83602 0.05588
2868.55025 0.05607
2867.26448 0.05581
2865.97871 0.05521
2864.69295 0.05442
2863.40718 0.05362
2862.12141 0.05291
2860.83564 0.05232
2859.54987 0.05177
2858.26410 0.05102
2856.97833 0.04976
2855.69256 0.04764
2854.40680 0.04447
2853.12103 0.04037
2851.83526 0.03597
2850.54949 0.03241
2849.26372 0.03087
2847.97795 0.03184
2846.69218 0.03472
2845.40641 0.03821
2844.12064 0.04115
2842.83488 0.04308
2841.54911 0.04419
2840.26334 0.04484
2838.97757 0.04525
2837.69180 0.04545
2836.40603 0.04541
2835.12026 0.04520
2833.83449 0.04495
2832.54873 0.04475
2831.26296 0.04465
2829.97719 0.04466
2828.69142 0.04466
2827.40565 0.04448
2826.11988 0.04408
2824.83411 0.04356
2823.54834 0.04307
2822.26257 0.04265
2820.97681 0.04228
2819.69104 0.04196
2818.40527 0.04170
2817.11950 0.04150
2815.83373 0.04136
2814.54796 0.04130
2813.26219 0.04128
2811.97642 0.04119
2810.69066 0.04096
2809.40489 0.04063
2808.11912 0.04037
2806.83335 0.04027
2805.54758 0.04028
2804.26181 0.04030
2802.97604 0.04027
2801.69027 0.04021
2800.40450 0.04018
2799.11874 0.04016
2797.83297 0.04018
2796.54720 0.04027
2795.26143 0.04043
2793.97566 0.04059
2792.68989 0.04066
2791.40412 0.04062
2790.11835 0.04055
2788.83259 0.04049
2787.54682 0.04040
2786.26105 0.04023
2784.97528 0.04004
2783.68951 0.03994
2782.40374 0.03994
2781.11797 0.03996
2779.83220 0.03990
2778.54643 0.03975
2777.26067 0.03956
2775.97490 0.03938
2774.68913 0.03921
2773.40336 0.03901
2772.11759 0.03876
2770.83182 0.03848
2769.54605 0.03822
2768.26028 0.03802
2766.97452 0.03795
2765.68875 0.03805
2764.40298 0.03833
2763.11721 0.03866
2761.83144 0.03881
2760.54567 0.03866
2759.25990 0.03830
2757.97413 0.03797
2756.68836 0.03787
2755.40260 0.03804
2754.11683 0.03832
2752.83106 0.03850
2751.54529 0.03845
2750.25952 0.03817
2748.97375 0.03781
2747.68798 0.03756
2746.40221 0.03749
2745.11645 0.03750
2743.83068 0.03746
2742.54491 0.03739
2741.25914 0.03742
2739.97337 0.03758
2738.68760 0.03773
2737.40183 0.03767
2736.11606 0.03738
2734.83029 0.03703
2733.54453 0.03678
2732.25876 0.03662
2730.97299 0.03647
2729.68722 0.03638
2728.40145 0.03647
2727.11568 0.03668
2725.82991 0.03684
2724.54414 0.03682
2723.25838 0.03669
2721.97261 0.03657
2720.68684 0.03650
2719.40107 0.03649
2718.11530 0.03655
2716.82953 0.03663
2715.54376 0.03663
2714.25799 0.03652
2712.97222 0.03638
2711.68646 0.03624
2710.40069 0.03609
2709.11492 0.03589
2707.82915 0.03570
2706.54338 0.03564
2705.25761 0.03570
2703.97184 0.03571
2702.68607 0.03557
2701.40031 0.03527
2700.11454 0.03491
2698.82877 0.03458
2697.54300 0.03439
2696.25723 0.03446
2694.97146 0.03475
2693.68569 0.03511
2692.39992 0.03541
2691.11415 0.03556
2689.82839 0.03558
2688.54262 0.03550
2687.25685 0.03539
2685.97108 0.03533
2684.68531 0.03527
2683.39954 0.03515
2682.11377 0.03494
2680.82800 0.03468
2679.54224 0.03443
2678.25647 0.03427
2676.97070 0.03426
2675.68493 0.03435
2674.39916 0.03442
2673.11339 0.03436
2671.82762 0.03417
2670.54185 0.03392
2669.25608 0.03369
2667.97032 0.03356
2666.68455 0.03360
2665.39878 0.03374
2664.11301 0.03383
2662.82724 0.03379
2661.54147 0.03375
2660.25570 0.03385
2658.96993 0.03407
2657.68417 0.03419
2656.39840 0.03407
2655.11263 0.03373
2653.82686 0.03331
2652.54109 0.03290
2651.25532 0.03254
2649.96955 0.03223
2648.68378 0.03193
2647.39801 0.03161
2646.11225 0.03134
2644.82648 0.03126
2643.54071 0.03139
2642.25494 0.03160
2640.96917 0.03171
2639.68340 0.03163
2638.39763 0.03141
2637.11186 0.03110
2635.82609 0.03075
2634.54033 0.03037
2633.25456 0.02998
2631.96879 0.02962
2630.68302 0.02941
2629.39725 0.02948
2628.11148 0.02976
2626.82571 0.03005
2625.53994 0.03022
2624.25418 0.03025
2622.96841 0.03014
2621.68264 0.02988
2620.39687 0.02948
2619.11110 0.02906
2617.82533 0.02865
2616.53956 0.02825
2615.25379 0.02784
2613.96802 0.02749
2612.68226 0.02728
2611.39649 0.02724
2610.11072 0.02739
2608.82495 0.02771
2607.53918 0.02813
2606.25341 0.02859
2604.96764 0.02899
2603.68187 0.02911
2602.39611 0.02879
2601.11034 0.02815
2599.82457 0.02752
2598.53880 0.02717
2597.25303 0.02715
2595.96726 0.02731
2594.68149 0.02748
2593.39572 0.02762
2592.10995 0.02784
2590.82419 0.02821
2589.53842 0.02849
2588.25265 0.02830
2586.96688 0.02759
2585.68111 0.02682
2584.39534 0.02651
2583.10957 0.02667
2581.82380 0.02692
2580.53804 0.02699
2579.25227 0.02697
2577.96650 0.02702
2576.68073 0.02707
2575.39496 0.02697
2574.10919 0.02672
2572.82342 0.02653
2571.53765 0.02657
2570.25188 0.02676
2568.96612 0.02691
2567.68035 0.02693
2566.39458 0.02692
2565.10881 0.02696
2563.82304 0.02695
2562.53727 0.02670
2561.25150 0.02617
2559.96573 0.02561
2558.67997 0.02534
2557.39420 0.02541
2556.10843 0.02551
2554.82266 0.02543
2553.53689 0.02532
2552.25112 0.02544
2550.96535 0.02576
2549.67958 0.02602
2548.39381 0.02607
2547.10805 0.02600
2545.82228 0.02594
2544.53651 0.02595
2543.25074 0.02602
2541.96497 0.02619
2540.67920 0.02639
2539.39343 0.02641
2538.10766 0.02605
2536.82190 0.02539
2535.53613 0.02471
2534.25036 0.02419
2532.96459 0.02388
2531.67882 0.02385
2530.39305 0.02419
2529.10728 0.02481
2527.82151 0.02535
2526.53574 0.02545
2525.24998 0.02507
2523.96421 0.02455
2522.67844 0.02420
2521.39267 0.02408
2520.10690 0.02399
2518.82113 0.02379
2517.53536 0.02355
2516.24959 0.02351
2514.96383 0.02373
2513.67806 0.02398
2512.39229 0.02403
2511.10652 0.02396
2509.82075 0.02412
2508.53498 0.02467
2507.24921 0.02536
2505.96344 0.02569
2504.67767 0.02547
2503.39191 0.02496
2502.10614 0.02460
2500.82037 0.02466
2499.53460 0.02503
2498.24883 0.02537
2496.96306 0.02533
2495.67729 0.02477
2494.39152 0.02383
2493.10576 0.02291
2491.81999 0.02236
2490.53422 0.02231
2489.24845 0.02263
2487.96268 0.02311
2486.67691 0.02362
2485.39114 0.02407
2484.10537 0.02437
2482.81960 0.02446
2481.53384 0.02438
2480.24807 0.02429
2478.96230 0.02431
2477.67653 0.02438
2476.39076 0.02445
2475.10499 0.02454
2473.81922 0.02471
2472.53345 0.02491
2471.24769 0.02498
2469.96192 0.02481
2468.67615 0.02450
2467.39038 0.02428
2466.10461 0.02438
2464.81884 0.02481
2463.53307 0.02533
2462.24730 0.02559
2460.96153 0.02536
2459.67577 0.02476
2458.39000 0.02416
2457.10423 0.02380
2455.81846 0.02367
2454.53269 0.02361
2453.24692 0.02355
2451.96115 0.02360
2450.67538 0.02387
2449.38962 0.02427
2448.10385 0.02454
2446.81808 0.02443
2445.53231 0.02388
2444.24654 0.02317
2442.96077 0.02266
2441.67500 0.02248
2440.38923 0.02247
2439.10346 0.02245
2437.81770 0.02246
2436.53193 0.02261
2435.24616 0.02286
2433.96039 0.02307
2432.67462 0.02311
2431.38885 0.02294
2430.10308 0.02259
2428.81731 0.02218
2427.53155 0.02187
2426.24578 0.02183
2424.96001 0.02211
2423.67424 0.02260
2422.38847 0.02315
2421.10270 0.02358
2419.81693 0.02382
2418.53116 0.02378
2417.24539 0.02346
2415.95963 0.02300
2414.67386 0.02262
2413.38809 0.02255
2412.10232 0.02283
2410.81655 0.02328
2409.53078 0.02365
2408.24501 0.02384
2406.95924 0.02382
2405.67347 0.02362
2404.38771 0.02325
2403.10194 0.02281
2401.81617 0.02241
2400.53040 0.02210
2399.24463 0.02193
2397.95886 0.02172
2396.67309 0.02170
2395.38732 0.02190
2394.10156 0.02220
2392.81579 0.02243
2391.53002 0.02244
2390.24425 0.02220
2388.95848 0.02181
2387.67271 0.02144
2386.38694 0.02120
2385.10117 0.02114
2383.81540 0.02127
2382.52964 0.02151
2381.24387 0.02173
2379.95810 0.02178
2378.67233 0.02168
2377.38656 0.02158
2376.10079 0.02158
2374.81502 0.02174
2373.52925 0.02201
2372.24349 0.02229
2370.95772 0.02247
2369.67195 0.02250
2368.38618 0.02244
2367.10041 0.02243
2365.81464 0.02247
2364.52887 0.02253
2363.24310 0.02262
2361.95733 0.02281
2360.67157 0.02316
2359.38580 0.02356
2358.10003 0.02382
2356.81426 0.02381
2355.52849 0.02352
2354.24272 0.02306
2352.95695 0.02263
2351.67118 0.02238
2350.38542 0.02235
2349.09965 0.02245
2347.81388 0.02254
2346.52811 0.02253
2345.24234 0.02244
2343.95657 0.02238
2342.67080 0.02242
2341.38503 0.02258
2340.09926 0.02285
2338.81350 0.02320
2337.52773 0.02353
2336.24196 0.02368
2334.95619 0.02360
2333.67042 0.02337
2332.38465 0.02311
2331.09888 0.02288
2329.81311 0.02267
2328.52735 0.02253
2327.24158 0.02252
2325.95581 0.02263
2324.67004 0.02269
2323.38427 0.02260
2322.09850 0.02236
2320.81273 0.02207
2319.52696 0.02179
2318.24119 0.02148
2316.95543 0.02118
2315.66966 0.02106
2314.38389 0.02121
2313.09812 0.02153
2311.81235 0.02186
2310.52658 0.02208
2309.24081 0.02217
2307.95504 0.02218
2306.66928 0.02208
2305.38351 0.02175
2304.09774 0.02110
2302.81197 0.02026
2301.52620 0.01952
2300.24043 0.01915
2298.95466 0.01917
2297.66889 0.01931
2296.38312 0.01932
2295.09736 0.01920
2293.81159 0.01917
2292.52582 0.01941
2291.24005 0.01986
2289.95428 0.02029
2288.66851 0.02052
2287.38274 0.02048
2286.09697 0.02019
2284.81121 0.01967
2283.52544 0.01907
2282.23967 0.01862
2280.95390 0.01849
2279.66813 0.01863
2278.38236 0.01872
2277.09659 0.01833
2275.81082 0.01743
2274.52505 0.01653
2273.23929 0.01628
2271.95352 0.01678
2270.66775 0.01756
2269.38198 0.01811
2268.09621 0.01827
2266.81044 0.01811
2265.52467 0.01778
2264.23890 0.01744
2262.95314 0.01729
2261.66737 0.01735
2260.38160 0.01739
2259.09583 0.01705
2257.81006 0.01628
2256.52429 0.01546
2255.23852 0.01507
2253.95275 0.01511
2252.66698 0.01501
2251.38122 0.01427
2250.09545 0.01327
2248.80968 0.01299
2247.52391 0.01347
2246.23814 0.01468
2244.95237 0.01580
2243.66660 0.01625
2242.38083 0.01603
2241.09507 0.01555
2239.80930 0.01515
2238.52353 0.01494
2237.23776 0.01500
2235.95199 0.01537
2234.66622 0.01585
2233.38045 0.01600
2232.09468 0.01550
2230.80891 0.01452
2229.52315 0.01357
2228.23738 0.01313
2226.95161 0.01331
2225.66584 0.01384
2224.38007 0.01430
2223.09430 0.01437
2221.80853 0.01411
2220.52276 0.01386
2219.23700 0.01383
2217.95123 0.01390
2216.66546 0.01383
2215.37969 0.01358
2214.09392 0.01333
2212.80815 0.01299
2211.52238 0.01228
2210.23661 0.01119
2208.95084 0.01030
2207.66508 0.01012
2206.37931 0.01042
2205.09354 0.01054
2203.80777 0.01028
2202.52200 0.01009
2201.23623 0.01035
2199.95046 0.01091
2198.66469 0.01138
2197.37893 0.01158
2196.09316 0.01147
2194.80739 0.01100
2193.52162 0.01015
2192.23585 0.00920
2190.95008 0.00855
2189.66431 0.00819
2188.37854 0.00769
2187.09277 0.00675
2185.80701 0.00563
2184.52124 0.00499
2183.23547 0.00518
2181.94970 0.00604
2180.66393 0.00723
2179.37816 0.00850
2178.09239 0.00969
2176.80662 0.01042
2175.52085 0.01031
2174.23509 0.00923
2172.94932 0.00759
2171.66355 0.00608
2170.37778 0.00526
2169.09201 0.00524
2167.80624 0.00552
2166.52047 0.00534
2165.23470 0.00438
2163.94894 0.00315
2162.66317 0.00236
2161.37740 0.00216
2160.09163 0.00201
2158.80586 0.00154
2157.52009 0.00097
2156.23432 0.00072
2154.94855 0.00092
2153.66278 0.00159
2152.37702 0.00287
2151.09125 0.00479
2149.80548 0.00685
2148.51971 0.00833
2147.23394 0.00886
2145.94817 0.00875
2144.66240 0.00849
2143.37663 0.00829
2142.09087 0.00815
2140.80510 0.00814
2139.51933 0.00837
2138.23356 0.00873
2136.94779 0.00899
2135.66202 0.00908
2134.37625 0.00918
2133.09048 0.00942
2131.80471 0.00969
2130.51895 0.00981
2129.23318 0.00984
2127.94741 0.00997
2126.66164 0.01030
2125.37587 0.01068
2124.09010 0.01086
2122.80433 0.01081
2121.51856 0.01076
2120.23280 0.01091
2118.94703 0.01119
2117.66126 0.01135
2116.37549 0.01130
2115.08972 0.01115
2113.80395 0.01101
2112.51818 0.01080
2111.23241 0.01044
2109.94664 0.01001
2108.66088 0.00968
2107.37511 0.00947
2106.08934 0.00921
2104.80357 0.00880
2103.51780 0.00845
2102.23203 0.00858
2100.94626 0.00923
2099.66049 0.00842
2098.37473 0.00814
2097.08896 0.00814
2095.80319 0.00807
2094.51742 0.00813
2093.23165 0.00843
2091.94588 0.00889
2090.66011 0.00924
2089.37434 0.00930
2088.08857 0.00906
2086.80281 0.00881
2085.51704 0.00883
2084.23127 0.00910
2082.94550 0.00933
2081.65973 0.00932
2080.37396 0.00913
2079.08819 0.00885
2077.80242 0.00843
2076.51666 0.00778
2075.23089 0.00701
2073.94512 0.00646
2072.65935 0.00641
2071.37358 0.00680
2070.08781 0.00726
2068.80204 0.00740
2067.51627 0.00722
2066.23050 0.00709
2064.94474 0.00732
2063.65897 0.00775
2062.37320 0.00789
2061.08743 0.00747
2059.80166 0.00666
2058.51589 0.00592
2057.23012 0.00557
2055.94435 0.00557
2054.65859 0.00557
2053.37282 0.00510
2052.08705 0.00400
2050.80128 0.00273
2049.51551 0.00207
2048.22974 0.00230
2046.94397 0.00291
2045.65820 0.00313
2044.37243 0.00265
2043.08667 0.00171
2041.80090 0.00071
2040.51513 -0.00020
2039.22936 -0.00126
2037.94359 -0.00278
2036.65782 -0.00466
2035.37205 -0.00612
2034.08628 -0.00622
2032.80052 -0.00457
2031.51475 -0.00166
2030.22898 0.00140
2028.94321 0.00354
2027.65744 0.00436
2026.37167 0.00415
2025.08590 0.00335
2023.80013 0.00221
2022.51436 0.00086
2021.22860 -0.00032
2019.94283 -0.00092
2018.65706 -0.00082
2017.37129 -0.00030
2016.08552 0.00015
2014.79975 0.00015
2013.51398 -0.00041
2012.22821 -0.00113
2010.94245 -0.00130
2009.65668 -0.00053
2008.37091 0.00084
2007.08514 0.00208
2005.79937 0.00281
2004.51360 0.00334
2003.22783 0.00426
2001.94206 0.00576
2000.65629 0.00743
1999.37053 0.00869
1998.08476 0.00920
1996.79899 0.00895
1995.51322 0.00808
1994.22745 0.00683
1992.94168 0.00568
1991.65591 0.00516
1990.37014 0.00542
1989.08438 0.00605
1987.79861 0.00641
1986.51284 0.00629
1985.22707 0.00595
1983.94130 0.00564
1982.65553 0.00519
1981.36976 0.00427
1980.08399 0.00296
1978.79822 0.00168
1977.51246 0.00084
1976.22669 0.00063
1974.94092 0.00117
1973.65515 0.00247
1972.36938 0.00424
1971.08361 0.00593
1969.79784 0.00717
1968.51207 0.00795
1967.22631 0.00844
1965.94054 0.00871
1964.65477 0.00867
1963.36900 0.00828
1962.08323 0.00765
1960.79746 0.00697
1959.51169 0.00651
1958.22592 0.00657
1956.94015 0.00726
1955.65439 0.00830
1954.36862 0.00913
1953.08285 0.00935
1951.79708 0.00918
1950.51131 0.00911
1949.22554 0.00941
1947.93977 0.00992
1946.65400 0.01037
1945.36823 0.01064
1944.08247 0.01070
1942.79670 0.01045
1941.51093 0.00988
1940.22516 0.00918
1938.93939 0.00871
1937.65362 0.00865
1936.36785 0.00891
1935.08208 0.00923
1933.79632 0.00938
1932.51055 0.00927
1931.22478 0.00902
1929.93901 0.00885
1928.65324 0.00897
1927.36747 0.00941
1926.08170 0.01009
1924.79593 0.01081
1923.51016 0.01125
1922.22440 0.01114
1920.93863 0.01053
1919.65286 0.00977
1918.36709 0.00918
1917.08132 0.00882
1915.79555 0.00870
1914.50978 0.00890
1913.22401 0.00945
1911.93825 0.01022
1910.65248 0.01091
1909.36671 0.01132
1908.08094 0.01138
1906.79517 0.01113
1905.50940 0.01068
1904.22363 0.01015
1902.93786 0.00979
1901.65209 0.00980
1900.36633 0.01012
1899.08056 0.01045
1897.79479 0.01049
1896.50902 0.01027
1895.22325 0.01006
1893.93748 0.01007
1892.65171 0.01029
1891.36594 0.01058
1890.08018 0.01078
1888.79441 0.01086
1887.50864 0.01088
1886.22287 0.01089
1884.93710 0.01098
1883.65133 0.01116
1882.36556 0.01132
1881.07979 0.01128
1879.79402 0.01092
1878.50826 0.01040
1877.22249 0.01001
1875.93672 0.00997
1874.65095 0.01021
1873.36518 0.01054
1872.07941 0.01084
1870.79364 0.01104
1869.50787 0.01112
1868.22211 0.01115
1866.93634 0.01120
1865.65057 0.01134
1864.36480 0.01149
1863.07903 0.01157
1861.79326 0.01160
1860.50749 0.01163
1859.22172 0.01164
1857.93595 0.01155
1856.65019 0.01132
1855.36442 0.01104
1854.07865 0.01091
1852.79288 0.01105
1851.50711 0.01138
1850.22134 0.01170
1848.93557 0.01177
1847.64980 0.01154
1846.36404 0.01122
1845.07827 0.01100
1843.79250 0.01095
1842.50673 0.01107
1841.22096 0.01134
1839.93519 0.01170
1838.64942 0.01199
1837.36365 0.01210
1836.07788 0.01206
1834.79212 0.01193
1833.50635 0.01180
1832.22058 0.01168
1830.93481 0.01155
1829.64904 0.01138
1828.36327 0.01127
1827.07750 0.01132
1825.79173 0.01151
1824.50597 0.01160
1823.22020 0.01148
1821.93443 0.01123
1820.64866 0.01104
1819.36289 0.01109
1818.07712 0.01139
1816.79135 0.01189
1815.50558 0.01243
1814.21981 0.01288
1812.93405 0.01316
1811.64828 0.01329
1810.36251 0.01334
1809.07674 0.01338
1807.79097 0.01343
1806.50520 0.01342
1805.21943 0.01332
1803.93366 0.01316
1802.64790 0.01298
1801.36213 0.01282
1800.07636 0.01269
1798.79059 0.01261
1797.50482 0.01259
1796.21905 0.01260
1794.93328 0.01264
1793.64751 0.01271
1792.36174 0.01277
1791.07598 0.01280
1789.79021 0.01282
1788.50444 0.01289
1787.21867 0.01302
1785.93290 0.01318
1784.64713 0.01329
1783.36136 0.01331
1782.07559 0.01326
1780.78983 0.01322
1779.50406 0.01322
1778.21829 0.01328
1776.93252 0.01339
1775.64675 0.01357
1774.36098 0.01385
1773.07521 0.01413
1771.78944 0.01425
1770.50367 0.01426
1769.21791 0.01433
1767.93214 0.01449
1766.64637 0.01464
1765.36060 0.01479
1764.07483 0.01499
1762.78906 0.01517
1761.50329 0.01520
1760.21752 0.01510
1758.93176 0.01502
1757.64599 0.01504
1756.36022 0.01509
1755.07445 0.01511
1753.78868 0.01514
1752.50291 0.01522
1751.21714 0.01527
1749.93137 0.01524
1748.64560 0.01523
1747.35984 0.01532
1746.07407 0.01547
1744.78830 0.01559
1743.50253 0.01569
1742.21676 0.01582
1740.93099 0.01603
1739.64522 0.01618
1738.35945 0.01615
1737.07369 0.01607
1735.78792 0.01617
1734.50215 0.01639
1733.21638 0.01656
1731.93061 0.01670
1730.64484 0.01700
1729.35907 0.01745
1728.07330 0.01787
1726.78753 0.01817
1725.50177 0.01836
1724.21600 0.01847
1722.93023 0.01852
1721.64446 0.01857
1720.35869 0.01871
1719.07292 0.01902
1717.78715 0.01936
1716.50138 0.01965
1715.21561 0.01993
1713.92985 0.02030
1712.64408 0.02072
1711.35831 0.02114
1710.07254 0.02149
1708.78677 0.02179
1707.50100 0.02207
1706.21523 0.02228
1704.92946 0.02237
1703.64370 0.02244
1702.35793 0.02275
1701.07216 0.02320
1699.78639 0.02342
1698.50062 0.02341
1697.21485 0.02352
1695.92908 0.02379
1694.64331 0.02402
1693.35754 0.02425
1692.07178 0.02466
1690.78601 0.02510
1689.50024 0.02529
1688.21447 0.02526
1686.92870 0.02533
1685.64293 0.02566
1684.35716 0.02609
1683.07139 0.02640
1681.78563 0.02668
1680.49986 0.02698
1679.21409 0.02724
1677.92832 0.02745
1676.64255 0.02769
1675.35678 0.02793
1674.07101 0.02807
1672.78524 0.02825
1671.49947 0.02860
1670.21371 0.02904
1668.92794 0.02940
1667.64217 0.02960
1666.35640 0.02974
1665.07063 0.02995
1663.78486 0.03024
1662.49909 0.03054
1661.21332 0.03080
1659.92756 0.03100
1658.64179 0.03108
1657.35602 0.03098
1656.07025 0.03092
1654.78448 0.03118
1653.49871 0.03162
1652.21294 0.03187
1650.92717 0.03190
1649.64140 0.03205
1648.35564 0.03248
1647.06987 0.03298
1645.78410 0.03331
1644.49833 0.03348
1643.21256 0.03361
1641.92679 0.03372
1640.64102 0.03378
1639.35525 0.03379
1638.06949 0.03390
1636.78372 0.03422
1635.49795 0.03458
1634.21218 0.03484
1632.92641 0.03502
1631.64064 0.03523
1630.35487 0.03550
1629.06910 0.03578
1627.78333 0.03609
1626.49757 0.03649
1625.21180 0.03701
1623.92603 0.03757
1622.64026 0.03802
1621.35449 0.03829
1620.06872 0.03855
1618.78295 0.03905
1617.49718 0.03977
1616.21142 0.04051
1614.92565 0.04116
1613.63988 0.04179
1612.35411 0.04245
1611.06834 0.04307
1609.78257 0.04362
1608.49680 0.04413
1607.21103 0.04460
1605.92526 0.04504
1604.63950 0.04550
1603.35373 0.04598
1602.06796 0.04649
1600.78219 0.04698
1599.49642 0.04741
1598.21065 0.04775
1596.92488 0.04799
1595.63911 0.04817
1594.35335 0.04831
1593.06758 0.04842
1591.78181 0.04847
1590.49604 0.04847
1589.21027 0.04842
1587.92450 0.04837
1586.63873 0.04834
1585.35296 0.04831
1584.06719 0.04821
1582.78143 0.04802
1581.49566 0.04775
1580.20989 0.04743
1578.92412 0.04724
1577.63835 0.04732
1576.35258 0.04757
1575.06681 0.04780
1573.78104 0.04802
1572.49528 0.04838
1571.20951 0.04885
1569.92374 0.04925
1568.63797 0.04949
1567.35220 0.04962
1566.06643 0.04971
1564.78066 0.04966
1563.49489 0.04937
1562.20912 0.04904
1560.92336 0.04890
1559.63759 0.04893
1558.35182 0.04895
1557.06605 0.04898
1555.78028 0.04917
1554.49451 0.04945
1553.20874 0.04962
1551.92297 0.04960
1550.63721 0.04946
1549.35144 0.04918
1548.06567 0.04872
1546.77990 0.04811
1545.49413 0.04735
1544.20836 0.04645
1542.92259 0.04556
1541.63682 0.04487
1540.35105 0.04445
1539.06529 0.04416
1537.77952 0.04390
1536.49375 0.04382
1535.20798 0.04396
1533.92221 0.04418
1532.63644 0.04428
1531.35067 0.04426
1530.06490 0.04429
1528.77914 0.04442
1527.49337 0.04465
1526.20760 0.04492
1524.92183 0.04520
1523.63606 0.04562
1522.35029 0.04620
1521.06452 0.04681
1519.77875 0.04739
1518.49298 0.04812
1517.20722 0.04910
1515.92145 0.05023
1514.63568 0.05144
1513.34991 0.05270
1512.06414 0.05395
1510.77837 0.05517
1509.49260 0.05647
1508.20683 0.05795
1506.92107 0.05952
1505.63530 0.06096
1504.34953 0.06224
1503.06376 0.06352
1501.77799 0.06480
1500.49222 0.06595
1499.20645 0.06692
1497.92068 0.06782
1496.63491 0.06869
1495.34915 0.06948
1494.06338 0.07018
1492.77761 0.07091
1491.49184 0.07172
1490.20607 0.07260
1488.92030 0.07360
1487.63453 0.07475
1486.34876 0.07606
1485.06299 0.07748
1483.77723 0.07897
1482.49146 0.08051
1481.20569 0.08203
1479.91992 0.08352
1478.63415 0.08492
1477.34838 0.08618
1476.06261 0.08729
1474.77684 0.08835
1473.49108 0.08951
1472.20531 0.09078
1470.91954 0.09207
1469.63377 0.09325
1468.34800 0.09427
1467.06223 0.09513
1465.77646 0.09587
1464.49069 0.09658
1463.20492 0.09737
1461.91916 0.09829
1460.63339 0.09938
1459.34762 0.10061
1458.06185 0.10194
1456.77608 0.10319
1455.49031 0.10427
1454.20454 0.10523
1452.91877 0.10609
1451.63301 0.10676
1450.34724 0.10716
1449.06147 0.10733
1447.77570 0.10730
1446.48993 0.10704
1445.20416 0.10656
1443.91839 0.10587
1442.63262 0.10493
1441.34685 0.10377
1440.06109 0.10252
1438.77532 0.10141
1437.48955 0.10054
1436.20378 0.09988
1434.91801 0.09946
1433.63224 0.09942
1432.34647 0.09984
1431.06070 0.10067
1429.77494 0.10186
1428.48917 0.10333
1427.20340 0.10501
1425.91763 0.10681
1424.63186 0.10860
1423.34609 0.11030
1422.06032 0.11194
1420.77455 0.11355
1419.48878 0.11504
1418.20302 0.11629
1416.91725 0.11728
1415.63148 0.11806
1414.34571 0.11857
1413.05994 0.11870
1411.77417 0.11843
1410.48840 0.11774
1409.20263 0.11668
1407.91687 0.11529
1406.63110 0.11364
1405.34533 0.11173
1404.05956 0.10956
1402.77379 0.10715
1401.48802 0.10458
1400.20225 0.10188
1398.91648 0.09903
1397.63071 0.09608
1396.34495 0.09310
1395.05918 0.09020
1393.77341 0.08740
1392.48764 0.08474
1391.20187 0.08226
1389.91610 0.07994
1388.63033 0.07771
1387.34456 0.07551
1386.05880 0.07335
1384.77303 0.07128
1383.48726 0.06932
1382.20149 0.06741
1380.91572 0.06548
1379.62995 0.06351
1378.34418 0.06149
1377.05841 0.05941
1375.77264 0.05726
1374.48688 0.05505
1373.20111 0.05284
1371.91534 0.05072
1370.62957 0.04879
1369.34380 0.04707
1368.05803 0.04553
1366.77226 0.04415
1365.48649 0.04289
1364.20073 0.04174
1362.91496 0.04066
1361.62919 0.03961
1360.34342 0.03858
1359.05765 0.03762
1357.77188 0.03677
1356.48611 0.03603
1355.20034 0.03535
1353.91457 0.03471
1352.62881 0.03411
1351.34304 0.03356
1350.05727 0.03304
1348.77150 0.03251
1347.48573 0.03197
1346.19996 0.03143
1344.91419 0.03091
1343.62842 0.03043
1342.34266 0.02999
1341.05689 0.02960
1339.77112 0.02922
1338.48535 0.02884
1337.19958 0.02844
1335.91381 0.02804
1334.62804 0.02761
1333.34227 0.02716
1332.05650 0.02673
1330.77074 0.02638
1329.48497 0.02613
1328.19920 0.02596
1326.91343 0.02580
1325.62766 0.02560
1324.34189 0.02536
1323.05612 0.02511
1321.77035 0.02486
1320.48459 0.02458
1319.19882 0.02430
1317.91305 0.02406
1316.62728 0.02389
1315.34151 0.02375
1314.05574 0.02355
1312.76997 0.02325
1311.48420 0.02293
1310.19843 0.02267
1308.91267 0.02248
1307.62690 0.02232
1306.34113 0.02217
1305.05536 0.02201
1303.76959 0.02187
1302.48382 0.02177
1301.19805 0.02170
1299.91228 0.02163
1298.62652 0.02157
1297.34075 0.02149
1296.05498 0.02141
1294.76921 0.02130
1293.48344 0.02120
1292.19767 0.02114
1290.91190 0.02109
1289.62613 0.02101
1288.34036 0.02087
1287.05460 0.02069
1285.76883 0.02053
1284.48306 0.02041
1283.19729 0.02029
1281.91152 0.02017
1280.62575 0.02004
1279.33998 0.01991
1278.05421 0.01981
1276.76845 0.01975
1275.48268 0.01971
1274.19691 0.01967
1272.91114 0.01957
1271.62537 0.01943
1270.33960 0.01930
1269.05383 0.01925
1267.76806 0.01925
1266.48229 0.01924
1265.19653 0.01919
1263.91076 0.01910
1262.62499 0.01904
1261.33922 0.01902
1260.05345 0.01902
1258.76768 0.01900
1257.48191 0.01896
1256.19614 0.01891
1254.91037 0.01885
1253.62461 0.01881
1252.33884 0.01876
1251.05307 0.01872
1249.76730 0.01868
1248.48153 0.01865
1247.19576 0.01861
1245.90999 0.01856
1244.62422 0.01850
1243.33846 0.01845
1242.05269 0.01841
1240.76692 0.01838
1239.48115 0.01835
1238.19538 0.01831
1236.90961 0.01829
1235.62384 0.01830
1234.33807 0.01837
1233.05230 0.01850
1231.76654 0.01868
1230.48077 0.01883
1229.19500 0.01892
1227.90923 0.01895
1226.62346 0.01896
1225.33769 0.01898
1224.05192 0.01901
1222.76615 0.01906
1221.48039 0.01915
1220.19462 0.01928
1218.90885 0.01943
1217.62308 0.01956
1216.33731 0.01966
1215.05154 0.01977
1213.76577 0.01989
1212.48000 0.02003
1211.19423 0.02016
1209.90847 0.02026
1208.62270 0.02035
1207.33693 0.02042
1206.05116 0.02049
1204.76539 0.02057
1203.47962 0.02066
1202.19385 0.02074
1200.90808 0.02093
1199.62232 0.02131
1198.33655 0.02145
1197.05078 0.02156
1195.76501 0.02165
1194.47924 0.02175
1193.19347 0.02187
1191.90770 0.02197
1190.62193 0.02203
1189.33616 0.02209
1188.05040 0.02219
1186.76463 0.02235
1185.47886 0.02250
1184.19309 0.02261
1182.90732 0.02267
1181.62155 0.02273
1180.33578 0.02282
1179.05001 0.02294
1177.76425 0.02307
1176.47848 0.02325
1175.19271 0.02347
1173.90694 0.02369
1172.62117 0.02383
1171.33540 0.02389
1170.04963 0.02395
1168.76386 0.02410
1167.47809 0.02437
1166.19233 0.02470
1164.90656 0.02505
1163.62079 0.02541
1162.33502 0.02575
1161.04925 0.02608
1159.76348 0.02638
1158.47771 0.02669
1157.19194 0.02704
1155.90618 0.02746
1154.62041 0.02795
1153.33464 0.02846
1152.04887 0.02898
1150.76310 0.02953
1149.47733 0.03016
1148.19156 0.03091
1146.90579 0.03174
1145.62002 0.03261
1144.33426 0.03354
1143.04849 0.03461
1141.76272 0.03584
1140.47695 0.03720
1139.19118 0.03864
1137.90541 0.04012
1136.61964 0.04167
1135.33387 0.04338
1134.04811 0.04530
1132.76234 0.04745
1131.47657 0.04983
1130.19080 0.05242
1128.90503 0.05528
1127.61926 0.05846
1126.33349 0.06199
1125.04772 0.06580
1123.76195 0.06982
1122.47619 0.07398
1121.19042 0.07830
1119.90465 0.08277
1118.61888 0.08735
1117.33311 0.09192
1116.04734 0.09642
1114.76157 0.10082
1113.47580 0.10516
1112.19004 0.10950
1110.90427 0.11385
1109.61850 0.11815
1108.33273 0.12235
1107.04696 0.12641
1105.76119 0.13034
1104.47542 0.13413
1103.18965 0.13781
1101.90388 0.14141
1100.61812 0.14497
1099.33235 0.14846
1098.04658 0.15189
1096.76081 0.15527
1095.47504 0.15857
1094.18927 0.16172
1092.90350 0.16466
1091.61773 0.16743
1090.33197 0.17013
1089.04620 0.17279
1087.76043 0.17534
1086.47466 0.17771
1085.18889 0.17992
1083.90312 0.18209
1082.61735 0.18442
1081.33158 0.18698
1080.04581 0.18978
1078.76005 0.19280
1077.47428 0.19605
1076.18851 0.19956
1074.90274 0.20336
1073.61697 0.20742
1072.33120 0.21170
1071.04543 0.21614
1069.75966 0.22071
1068.47390 0.22543
1067.18813 0.23033
1065.90236 0.23546
1064.61659 0.24082
1063.33082 0.24632
1062.04505 0.25188
1060.75928 0.25740
1059.47351 0.26288
1058.18774 0.26834
1056.90198 0.27382
1055.61621 0.27930
1054.33044 0.28473
1053.04467 0.29012
1051.75890 0.29559
1050.47313 0.30127
1049.18736 0.30714
1047.90159 0.31314
1046.61583 0.31922
1045.33006 0.32548
1044.04429 0.33197
1042.75852 0.33867
1041.47275 0.34546
1040.18698 0.35227
1038.90121 0.35915
1037.61544 0.36619
1036.32967 0.37341
1035.04391 0.38079
1033.75814 0.38818
1032.47237 0.39540
1031.18660 0.40225
1029.90083 0.40860
1028.61506 0.41442
1027.32929 0.41971
1026.04352 0.42447
1024.75775 0.42871
1023.47199 0.43236
1022.18622 0.43535
1020.90045 0.43760
1019.61468 0.43904
1018.32891 0.43958
1017.04314 0.43910
1015.75737 0.43748
1014.47160 0.43467
1013.18584 0.43065
1011.90007 0.42546
1010.61430 0.41922
1009.32853 0.41200
1008.04276 0.40382
1006.75699 0.39466
1005.47122 0.38456
1004.18545 0.37365
1002.89968 0.36211
1001.61392 0.35002
1000.32815 0.33745
999.04238 0.32444
997.75661 0.31117
996.47084 0.29785
995.18507 0.28470
993.89930 0.27186
992.61353 0.25936
991.32777 0.24716
990.04200 0.23527
988.75623 0.22383
987.47046 0.21297
986.18469 0.20276
984.89892 0.19311
983.61315 0.18393
982.32738 0.17521
981.04161 0.16701
979.75585 0.15943
978.47008 0.15255
977.18431 0.14637
975.89854 0.14088
974.61277 0.13612
973.32700 0.13221
972.04123 0.12922
970.75546 0.12721
969.46970 0.12621
968.18393 0.12625
966.89816 0.12726
965.61239 0.12906
964.32662 0.13128
963.04085 0.13347
961.75508 0.13514
960.46931 0.13587
959.18354 0.13533
957.89778 0.13342
956.61201 0.13032
955.32624 0.12642
954.04047 0.12211
952.75470 0.11771
951.46893 0.11336
950.18316 0.10910
948.89739 0.10492
947.61163 0.10083
946.32586 0.09687
945.04009 0.09311
943.75432 0.08955
942.46855 0.08616
941.18278 0.08288
939.89701 0.07977
938.61124 0.07692
937.32547 0.07434
936.03971 0.07195
934.75394 0.06970
933.46817 0.06764
932.18240 0.06581
930.89663 0.06417
929.61086 0.06263
928.32509 0.06117
927.03932 0.05982
925.75356 0.05865
924.46779 0.05763
923.18202 0.05670
921.89625 0.05581
920.61048 0.05495
919.32471 0.05415
918.03894 0.05342
916.75317 0.05274
915.46740 0.05208
914.18164 0.05143
912.89587 0.05081
911.61010 0.05026
910.32433 0.04974
909.03856 0.04921
907.75279 0.04867
906.46702 0.04817
905.18125 0.04775
903.89549 0.04738
902.60972 0.04701
901.32395 0.04665
900.03818 0.04634
898.75241 0.04607
897.46664 0.04582
896.18087 0.04555
894.89510 0.04529
893.60933 0.04512
892.32357 0.04507
891.03780 0.04514
889.75203 0.04536
888.46626 0.04586
887.18049 0.04676
885.89472 0.04828
884.60895 0.05067
883.32318 0.05415
882.03742 0.05850
880.75165 0.06288
879.46588 0.06634
878.18011 0.06849
876.89434 0.06984
875.60857 0.07118
874.32280 0.07279
873.03703 0.07420
871.75126 0.07468
870.46550 0.07386
869.17973 0.07186
867.89396 0.06900
866.60819 0.06566
865.32242 0.06217
864.03665 0.05879
862.75088 0.05568
861.46511 0.05288
860.17935 0.05044
858.89358 0.04841
857.60781 0.04678
856.32204 0.04548
855.03627 0.04444
853.75050 0.04356
852.46473 0.04278
851.17896 0.04208
849.89319 0.04147
848.60743 0.04094
847.32166 0.04047
846.03589 0.04004
844.75012 0.03963
843.46435 0.03923
842.17858 0.03886
840.89281 0.03854
839.60704 0.03826
838.32128 0.03803
837.03551 0.03782
835.74974 0.03764
834.46397 0.03746
833.17820 0.03725
831.89243 0.03702
830.60666 0.03679
829.32089 0.03654
828.03512 0.03626
826.74936 0.03599
825.46359 0.03583
824.17782 0.03576
822.89205 0.03569
821.60628 0.03553
820.32051 0.03532
819.03474 0.03517
817.74897 0.03513
816.46321 0.03518
815.17744 0.03523
813.89167 0.03526
812.60590 0.03523
811.32013 0.03513
810.03436 0.03498
808.74859 0.03485
807.46282 0.03483
806.17705 0.03488
804.89129 0.03491
803.60552 0.03484
802.31975 0.03473
801.03398 0.03466
799.74821 0.03464
798.46244 0.03463
797.17667 0.03462
795.89090 0.03459
794.60513 0.03453
793.31937 0.03444
792.03360 0.03431
790.74783 0.03418
789.46206 0.03409
788.17629 0.03400
786.89052 0.03391
785.60475 0.03385
784.31898 0.03385
783.03322 0.03388
781.74745 0.03384
780.46168 0.03372
779.17591 0.03361
777.89014 0.03364
776.60437 0.03380
775.31860 0.03395
774.03283 0.03398
772.74706 0.03391
771.46130 0.03381
770.17553 0.03373
768.88976 0.03367
767.60399 0.03364
766.31822 0.03365
765.03245 0.03369
763.74668 0.03369
762.46091 0.03363
761.17515 0.03359
759.88938 0.03368
758.60361 0.03388
757.31784 0.03409
756.03207 0.03416
754.74630 0.03409
753.46053 0.03394
752.17476 0.03379
750.88899 0.03365
749.60323 0.03348
748.31746 0.03327
747.03169 0.03307
745.74592 0.03291
744.46015 0.03285
743.17438 0.03287
741.88861 0.03290
740.60284 0.03282
739.31708 0.03257
738.03131 0.03223
736.74554 0.03197
735.45977 0.03187
734.17400 0.03192
732.88823 0.03208
731.60246 0.03228
730.31669 0.03246
729.03092 0.03250
727.74516 0.03239
726.45939 0.03224
725.17362 0.03215
723.88785 0.03211
722.60208 0.03214
721.31631 0.03223
720.03054 0.03239
718.74477 0.03260
717.45901 0.03282
716.17324 0.03299
714.88747 0.03303
713.60170 0.03295
712.31593 0.03282
711.03016 0.03270
709.74439 0.03263
708.45862 0.03257
707.17285 0.03250
705.88709 0.03240
704.60132 0.03231
703.31555 0.03225
702.02978 0.03220
700.74401 0.03216
699.45824 0.03213
698.17247 0.03213
696.88670 0.03218
695.60094 0.03227
694.31517 0.03236
693.02940 0.03242
691.74363 0.03244
690.45786 0.03246
689.17209 0.03247
687.88632 0.03247
686.60055 0.03245
685.31478 0.03241
684.02902 0.03235
682.74325 0.03227
681.45748 0.03221
680.17171 0.03221
678.88594 0.03227
677.60017 0.03235
676.31440 0.03244
675.02863 0.03259
673.74287 0.03284
672.45710 0.03323
671.17133 0.03371
669.88556 0.03418
668.59979 0.03455
667.31402 0.03474
666.02825 0.03474
664.74248 0.03459
663.45671 0.03434
662.17095 0.03407
660.88518 0.03386
659.59941 0.03378
658.31364 0.03384
657.02787 0.03402
655.74210 0.03423
654.45633 0.03439
653.17056 0.03451
651.88480 0.03463
650.59903 0.03482
649.31326 0.03508
648.02749 0.03539
646.74172 0.03573
645.45595 0.03609
644.17018 0.03646
642.88441 0.03680
641.59864 0.03709
640.31288 0.03735
639.02711 0.03767
637.74134 0.03809
636.45557 0.03859
635.16980 0.03913
633.88403 0.03970
632.59826 0.04036
631.31249 0.04080
630.02673 0.04008
628.74096 0.03913
627.45519 0.04192
626.16942 0.04188
624.88365 0.04001
623.59788 0.03855
622.31211 0.03819
621.02634 0.03957
619.74057 0.04315
618.45481 0.04854
617.16904 0.05467
615.88327 0.06062
614.59750 0.06609
613.31173 0.07145
612.02596 0.07748
610.74019 0.08465
609.45442 0.09249
608.16866 0.10014
606.88289 0.10746
605.59712 0.11498
604.31135 0.12272
603.02558 0.12943
601.73981 0.13334
600.45404 0.13368
599.16827 0.13120
597.88250 0.12712
596.59674 0.12227
595.31097 0.11714
594.02520 0.11230
592.73943 0.10835
591.45366 0.10558
590.16789 0.10392
588.88212 0.10316
587.59635 0.10324
586.31059 0.10421
585.02482 0.10601
583.73905 0.10850
582.45328 0.11152
581.16751 0.11502
579.88174 0.11906
578.59597 0.12360
577.31020 0.12845
576.02443 0.13337
574.73867 0.13812
573.45290 0.14261
572.16713 0.14691
570.88136 0.15129
569.59559 0.15620
568.30982 0.16196
567.02405 0.16863
565.73828 0.17581
564.45251 0.18281
563.16675 0.18864
561.88098 0.19227
560.59521 0.19297
559.30944 0.19052
558.02367 0.18516
556.73790 0.17737
555.45213 0.16776
554.16636 0.15700
552.88060 0.14593
551.59483 0.13532
550.30906 0.12563
549.02329 0.11692
547.73752 0.10899
546.45175 0.10173
545.16598 0.09529
543.88021 0.08981
542.59444 0.08522
541.30868 0.08124
540.02291 0.07758
538.73714 0.07415
537.45137 0.07098
536.16560 0.06806
534.87983 0.06536
533.59406 0.06284
532.30829 0.06050
531.02253 0.05834
529.73676 0.05636
528.45099 0.05457
527.16522 0.05295
525.87945 0.05148
524.59368 0.05008
523.30791 0.04869
522.02214 0.04730
520.73637 0.04594
519.45061 0.04468
518.16484 0.04355
516.87907 0.04248
515.59330 0.04145
514.30753 0.04049
513.02176 0.03967
511.73599 0.03899
510.45022 0.03835
509.16446 0.03767
507.87869 0.03695
506.59292 0.03627
505.30715 0.03566
504.02138 0.03511
502.73561 0.03459
501.44984 0.03410
500.16407 0.03369
498.87830 0.03335
497.59254 0.03303
496.30677 0.03265
495.02100 0.03221
493.73523 0.03178
492.44946 0.03144
491.16369 0.03121
489.87792 0.03105
488.59215 0.03095
487.30639 0.03090
486.02062 0.03090
484.73485 0.03093
483.44908 0.03095
482.16331 0.03096
480.87754 0.03104
479.59177 0.03124
478.30600 0.03156
477.02023 0.03195
475.73447 0.03235
474.44870 0.03275
473.16293 0.03312
471.87716 0.03341
470.59139 0.03355
469.30562 0.03351
468.01985 0.03333
466.73408 0.03304
465.44832 0.03270
464.16255 0.03230
462.87678 0.03185
461.59101 0.03134
460.30524 0.03080
459.01947 0.03025
457.73370 0.02971
456.44793 0.02925
455.16216 0.02891
453.87640 0.02867
452.59063 0.02848
451.30486 0.02825
450.01909 0.02795
448.73332 0.02759
447.44755 0.02721
446.16178 0.02686
444.87601 0.02657
443.59025 0.02634
442.30448 0.02611
441.01871 0.02586
439.73294 0.02561
438.44717 0.02541
437.16140 0.02528
435.87563 0.02520
434.58986 0.02516
433.30409 0.02519
432.01833 0.02524
430.73256 0.02527
429.44679 0.02520
428.16102 0.02503
426.87525 0.02482
425.58948 0.02460
424.30371 0.02438
423.01794 0.02417
421.73218 0.02399
420.44641 0.02387
419.16064 0.02379
417.87487 0.02369
416.58910 0.02356
415.30333 0.02346
414.01756 0.02338
412.73179 0.02335
411.44602 0.02338
410.16026 0.02348
408.87449 0.02361
407.58872 0.02372
406.30295 0.02379
405.01718 0.02383
403.73141 0.02385
402.44564 0.02390
401.15987 0.02398
399.87411 0.02410
