3997.45528 0.04272
3996.16951 0.04301
3994.88374 0.04323
3993.59798 0.04336
3992.31221 0.04339
3991.02644 0.04334
3989.74067 0.04335
3988.45490 0.04358
3987.16913 0.04412
3985.88336 0.04490
3984.59759 0.04570
3983.31183 0.04630
3982.02606 0.04656
3980.74029 0.04629
3979.45452 0.04547
3978.16875 0.04441
3976.88298 0.04365
3975.59721 0.04346
3974.31144 0.04358
3973.02567 0.04360
3971.73991 0.04353
3970.45414 0.04365
3969.16837 0.04400
3967.88260 0.04419
3966.59683 0.04392
3965.31106 0.04339
3964.02529 0.04292
3962.73952 0.04261
3961.45376 0.04237
3960.16799 0.04223
3958.88222 0.04229
3957.59645 0.04248
3956.31068 0.04253
3955.02491 0.04233
3953.73914 0.04203
3952.45337 0.04198
3951.16760 0.04236
3949.88184 0.04305
3948.59607 0.04372
3947.31030 0.04415
3946.02453 0.04428
3944.73876 0.04410
3943.45299 0.04359
3942.16722 0.04280
3940.88145 0.04188
3939.59569 0.04099
3938.30992 0.04031
3937.02415 0.04015
3935.73838 0.04080
3934.45261 0.04223
3933.16684 0.04396
3931.88107 0.04520
3930.59530 0.04531
3929.30953 0.04417
3928.02377 0.04233
3926.73800 0.04073
3925.45223 0.03996
3924.16646 0.03997
3922.88069 0.04032
3921.59492 0.04064
3920.30915 0.04088
3919.02338 0.04125
3917.73762 0.04179
3916.45185 0.04211
3915.16608 0.04173
3913.88031 0.04071
3912.59454 0.03968
3911.30877 0.03928
3910.02300 0.03970
3908.73723 0.04073
3907.45146 0.04213
3906.16570 0.04367
3904.87993 0.04493
3903.59416 0.04547
3902.30839 0.04517
3901.02262 0.04443
3899.73685 0.04386
3898.45108 0.04392
3897.16531 0.04471
3895.87955 0.04583
3894.59378 0.04656
3893.30801 0.04642
3892.02224 0.04551
3890.73647 0.04431
3889.45070 0.04315
3888.16493 0.04219
3886.87916 0.04140
3885.59339 0.04077
3884.30763 0.04043
3883.02186 0.04064
3881.73609 0.04152
3880.45032 0.04278
3879.16455 0.04385
3877.87878 0.04437
3876.59301 0.04430
3875.30724 0.04381
3874.02148 0.04308
3872.73571 0.04233
3871.44994 0.04165
3870.16417 0.04094
3868.87840 0.04022
3867.59263 0.03996
3866.30686 0.04059
3865.02109 0.04178
3863.73532 0.04258
3862.44956 0.04233
3861.16379 0.04127
3859.87802 0.04028
3858.59225 0.04002
3857.30648 0.04039
3856.02071 0.04081
3854.73494 0.04077
3853.44917 0.04019
3852.16341 0.03943
3850.87764 0.03910
3849.59187 0.03952
3848.30610 0.04034
3847.02033 0.04083
3845.73456 0.04059
3844.44879 0.03996
3843.16302 0.03947
3841.87725 0.03925
3840.59149 0.03905
3839.30572 0.03890
3838.01995 0.03927
3836.73418 0.04055
3835.44841 0.04239
3834.16264 0.04380
3832.87687 0.04390
3831.59110 0.04262
3830.30534 0.04069
3829.01957 0.03903
3827.73380 0.03809
3826.44803 0.03776
3825.16226 0.03781
3823.87649 0.03824
3822.59072 0.03912
3821.30495 0.04025
3820.01918 0.04120
3818.73342 0.04173
3817.44765 0.04178
3816.16188 0.04126
3814.87611 0.04020
3813.59034 0.03905
3812.30457 0.03849
3811.01880 0.03885
3809.73303 0.03974
3808.44726 0.04027
3807.16150 0.03981
3805.87573 0.03867
3804.58996 0.03792
3803.30419 0.03823
3802.01842 0.03936
3800.73265 0.04066
3799.44688 0.04164
3798.16111 0.04205
3796.87535 0.04165
3795.58958 0.04056
3794.30381 0.03947
3793.01804 0.03905
3791.73227 0.03946
3790.44650 0.04029
3789.16073 0.04092
3787.87496 0.04087
3786.58919 0.04020
3785.30343 0.03947
3784.01766 0.03931
3782.73189 0.03976
3781.44612 0.04043
3780.16035 0.04099
3778.87458 0.04135
3777.58881 0.04148
3776.30304 0.04124
3775.01728 0.04069
3773.73151 0.04004
3772.44574 0.03946
3771.15997 0.03893
3769.87420 0.03851
3768.58843 0.03833
3767.30266 0.03835
3766.01689 0.03825
3764.73112 0.03781
3763.44536 0.03739
3762.15959 0.03749
3760.87382 0.03807
3759.58805 0.03854
3758.30228 0.03837
3757.01651 0.03753
3755.73074 0.03653
3754.44497 0.03601
3753.15921 0.03630
3751.87344 0.03725
3750.58767 0.03831
3749.30190 0.03895
3748.01613 0.03905
3746.73036 0.03895
3745.44459 0.03894
3744.15882 0.03893
3742.87305 0.03884
3741.58729 0.03881
3740.30152 0.03880
3739.01575 0.03853
3737.72998 0.03785
3736.44421 0.03708
3735.15844 0.03672
3733.87267 0.03696
3732.58690 0.03742
3731.30114 0.03754
3730.01537 0.03711
3728.72960 0.03663
3727.44383 0.03651
3726.15806 0.03664
3724.87229 0.03674
3723.58652 0.03663
3722.30075 0.03639
3721.01498 0.03625
3719.72922 0.03644
3718.44345 0.03705
3717.15768 0.03781
3715.87191 0.03824
3714.58614 0.03818
3713.30037 0.03802
3712.01460 0.03816
3710.72883 0.03841
3709.44307 0.03822
3708.15730 0.03755
3706.87153 0.03705
3705.58576 0.03720
3704.29999 0.03740
3703.01422 0.03719
3701.72845 0.03670
3700.44268 0.03614
3699.15691 0.03514
3697.87115 0.03422
3696.58538 0.03445
3695.29961 0.03574
3694.01384 0.03724
3692.72807 0.03842
3691.44230 0.03894
3690.15653 0.03849
3688.87076 0.03755
3687.58500 0.03697
3686.29923 0.03694
3685.01346 0.03737
3683.72769 0.03794
3682.44192 0.03822
3681.15615 0.03841
3679.87038 0.03883
3678.58461 0.03938
3677.29884 0.03971
3676.01308 0.03948
3674.72731 0.03892
3673.44154 0.03872
3672.15577 0.03920
3670.87000 0.03998
3669.58423 0.04038
3668.29846 0.04010
3667.01269 0.03929
3665.72693 0.03823
3664.44116 0.03728
3663.15539 0.03692
3661.86962 0.03750
3660.58385 0.03891
3659.29808 0.04057
3658.01231 0.04182
3656.72654 0.04232
3655.44077 0.04214
3654.15501 0.04161
3652.86924 0.04098
3651.58347 0.04022
3650.29770 0.03919
3649.01193 0.03801
3647.72616 0.03717
3646.44039 0.03710
3645.15462 0.03775
3643.86886 0.03862
3642.58309 0.03923
3641.29732 0.03950
3640.01155 0.03973
3638.72578 0.04019
3637.44001 0.04089
3636.15424 0.04159
3634.86847 0.04211
3633.58270 0.04254
3632.29694 0.04304
3631.01117 0.04350
3629.72540 0.04361
3628.43963 0.04338
3627.15386 0.04325
3625.86809 0.04358
3624.58232 0.04426
3623.29655 0.04481
3622.01079 0.04494
3620.72502 0.04466
3619.43925 0.04419
3618.15348 0.04369
3616.86771 0.04338
3615.58194 0.04339
3614.29617 0.04377
3613.01040 0.04447
3611.72463 0.04526
3610.43887 0.04588
3609.15310 0.04617
3607.86733 0.04613
3606.58156 0.04589
3605.29579 0.04554
3604.01002 0.04492
3602.72425 0.04422
3601.43848 0.04407
3600.15272 0.04486
3598.86695 0.04587
3597.58118 0.04634
3596.29541 0.04614
3595.00964 0.04566
3593.72387 0.04500
3592.43810 0.04472
3591.15233 0.04551
3589.86656 0.04701
3588.58080 0.04840
3587.29503 0.04907
3586.00926 0.04894
3584.72349 0.04821
3583.43772 0.04747
3582.15195 0.04719
3580.86618 0.04729
3579.58041 0.04756
3578.29464 0.04797
3577.00888 0.04863
3575.72311 0.04967
3574.43734 0.05079
3573.15157 0.05150
3571.86580 0.05168
3570.58003 0.05151
3569.29426 0.05120
3568.00849 0.05075
3566.72273 0.05013
3565.43696 0.04967
3564.15119 0.04975
3562.86542 0.05034
3561.57965 0.05086
3560.29388 0.05082
3559.00811 0.05028
3557.72234 0.04991
3556.43657 0.05047
3555.15081 0.05209
3553.86504 0.05409
3552.57927 0.05534
3551.29350 0.05517
3550.00773 0.05401
3548.72196 0.05304
3547.43619 0.05307
3546.15042 0.05398
3544.86466 0.05511
3543.57889 0.05597
3542.29312 0.05642
3541.00735 0.05642
3539.72158 0.05600
3538.43581 0.05541
3537.15004 0.05497
3535.86427 0.05478
3534.57850 0.05491
3533.29274 0.05554
3532.00697 0.05677
3530.72120 0.05814
3529.43543 0.05890
3528.14966 0.05874
3526.86389 0.05818
3525.57812 0.05804
3524.29235 0.05857
3523.00659 0.05942
3521.72082 0.06010
3520.43505 0.06041
3519.14928 0.06043
3517.86351 0.06037
3516.57774 0.06034
3515.29197 0.06025
3514.00620 0.05992
3512.72043 0.05939
3511.43467 0.05898
3510.14890 0.05895
3508.86313 0.05930
3507.57736 0.05980
3506.29159 0.06022
3505.00582 0.06044
3503.72005 0.06046
3502.43428 0.06039
3501.14852 0.06042
3499.86275 0.06080
3498.57698 0.06172
3497.29121 0.06311
3496.00544 0.06462
3494.71967 0.06580
3493.43390 0.06638
3492.14813 0.06633
3490.86236 0.06568
3489.57660 0.06460
3488.29083 0.06349
3487.00506 0.06283
3485.71929 0.06279
3484.43352 0.06308
3483.14775 0.06335
3481.86198 0.06357
3480.57621 0.06395
3479.29045 0.06460
3478.00468 0.06546
3476.71891 0.06635
3475.43314 0.06703
3474.14737 0.06728
3472.86160 0.06699
3471.57583 0.06632
3470.29006 0.06551
3469.00429 0.06476
3467.71853 0.06425
3466.43276 0.06423
3465.14699 0.06472
3463.86122 0.06541
3462.57545 0.06582
3461.28968 0.06578
3460.00391 0.06554
3458.71814 0.06546
3457.43238 0.06573
3456.14661 0.06631
3454.86084 0.06701
3453.57507 0.06758
3452.28930 0.06783
3451.00353 0.06776
3449.71776 0.06756
3448.43199 0.06749
3447.14622 0.06770
3445.86046 0.06814
3444.57469 0.06851
3443.28892 0.06848
3442.00315 0.06792
3440.71738 0.06709
3439.43161 0.06651
3438.14584 0.06663
3436.86007 0.06763
3435.57431 0.06924
3434.28854 0.07078
3433.00277 0.07156
3431.71700 0.07143
3430.43123 0.07080
3429.14546 0.07021
3427.85969 0.06996
3426.57392 0.07007
3425.28815 0.07054
3424.00239 0.07132
3422.71662 0.07217
3421.43085 0.07268
3420.14508 0.07260
3418.85931 0.07205
3417.57354 0.07141
3416.28777 0.07095
3415.00200 0.07065
3413.71624 0.07043
3412.43047 0.07048
3411.14470 0.07104
3409.85893 0.07203
3408.57316 0.07302
3407.28739 0.07352
3406.00162 0.07349
3404.71585 0.07330
3403.43008 0.07337
3402.14432 0.07375
3400.85855 0.07406
3399.57278 0.07397
3398.28701 0.07342
3397.00124 0.07266
3395.71547 0.07199
3394.42970 0.07167
3393.14393 0.07202
3391.85817 0.07308
3390.57240 0.07443
3389.28663 0.07532
3388.00086 0.07531
3386.71509 0.07469
3385.42932 0.07415
3384.14355 0.07416
3382.85778 0.07467
3381.57201 0.07538
3380.28625 0.07599
3379.00048 0.07640
3377.71471 0.07661
3376.42894 0.07667
3375.14317 0.07665
3373.85740 0.07672
3372.57163 0.07700
3371.28586 0.07747
3370.00010 0.07786
3368.71433 0.07782
3367.42856 0.07724
3366.14279 0.07632
3364.85702 0.07550
3363.57125 0.07510
3362.28548 0.07518
3360.99971 0.07553
3359.71394 0.07588
3358.42818 0.07613
3357.14241 0.07640
3355.85664 0.07675
3354.57087 0.07699
3353.28510 0.07681
3351.99933 0.07614
3350.71356 0.07529
3349.42779 0.07465
3348.14202 0.07436
3346.85626 0.07438
3345.57049 0.07472
3344.28472 0.07541
3342.99895 0.07627
3341.71318 0.07687
3340.42741 0.07679
3339.14164 0.07609
3337.85587 0.07525
3336.57011 0.07477
3335.28434 0.07479
3333.99857 0.07510
3332.71280 0.07547
3331.42703 0.07575
3330.14126 0.07596
3328.85549 0.07619
3327.56972 0.07666
3326.28395 0.07741
3324.99819 0.07821
3323.71242 0.07878
3322.42665 0.07916
3321.14088 0.07954
3319.85511 0.07980
3318.56934 0.07958
3317.28357 0.07877
3315.99780 0.07768
3314.71204 0.07683
3313.42627 0.07658
3312.14050 0.07699
3310.85473 0.07780
3309.56896 0.07850
3308.28319 0.07870
3306.99742 0.07846
3305.71165 0.07823
3304.42588 0.07826
3303.14012 0.07831
3301.85435 0.07793
3300.56858 0.07711
3299.28281 0.07638
3297.99704 0.07625
3296.71127 0.07664
3295.42550 0.07697
3294.13973 0.07682
3292.85397 0.07644
3291.56820 0.07642
3290.28243 0.07703
3288.99666 0.07782
3287.71089 0.07815
3286.42512 0.07786
3285.13935 0.07726
3283.85358 0.07673
3282.56781 0.07637
3281.28205 0.07622
3279.99628 0.07634
3278.71051 0.07665
3277.42474 0.07687
3276.13897 0.07679
3274.85320 0.07658
3273.56743 0.07652
3272.28166 0.07667
3270.99590 0.07676
3269.71013 0.07660
3268.42436 0.07625
3267.13859 0.07586
3265.85282 0.07555
3264.56705 0.07541
3263.28128 0.07555
3261.99551 0.07584
3260.70974 0.07591
3259.42398 0.07551
3258.13821 0.07490
3256.85244 0.07466
3255.56667 0.07502
3254.28090 0.07554
3252.99513 0.07566
3251.70936 0.07519
3250.42359 0.07451
3249.13783 0.07414
3247.85206 0.07430
3246.56629 0.07479
3245.28052 0.07522
3243.99475 0.07528
3242.70898 0.07498
3241.42321 0.07452
3240.13744 0.07412
3238.85167 0.07387
3237.56591 0.07370
3236.28014 0.07342
3234.99437 0.07289
3233.70860 0.07219
3232.42283 0.07154
3231.13706 0.07114
3229.85129 0.07111
3228.56552 0.07145
3227.27976 0.07203
3225.99399 0.07254
3224.70822 0.07265
3223.42245 0.07226
3222.13668 0.07162
3220.85091 0.07101
3219.56514 0.07058
3218.27937 0.07045
3216.99360 0.07071
3215.70784 0.07128
3214.42207 0.07185
3213.13630 0.07208
3211.85053 0.07199
3210.56476 0.07179
3209.27899 0.07164
3207.99322 0.07156
3206.70745 0.07165
3205.42169 0.07202
3204.13592 0.07247
3202.85015 0.07248
3201.56438 0.07174
3200.27861 0.07059
3198.99284 0.06969
3197.70707 0.06943
3196.42130 0.06965
3195.13553 0.06998
3193.84977 0.07017
3192.56400 0.07012
3191.27823 0.06975
3189.99246 0.06912
3188.70669 0.06844
3187.42092 0.06801
3186.13515 0.06791
3184.84938 0.06796
3183.56362 0.06790
3182.27785 0.06766
3180.99208 0.06743
3179.70631 0.06737
3178.42054 0.06751
3177.13477 0.06771
3175.84900 0.06777
3174.56323 0.06759
3173.27746 0.06728
3171.99170 0.06711
3170.70593 0.06732
3169.42016 0.06779
3168.13439 0.06818
3166.84862 0.06826
3165.56285 0.06819
3164.27708 0.06824
3162.99131 0.06840
3161.70555 0.06830
3160.41978 0.06769
3159.13401 0.06678
3157.84824 0.06605
3156.56247 0.06584
3155.27670 0.06605
3153.99093 0.06627
3152.70516 0.06616
3151.41939 0.06573
3150.13363 0.06522
3148.84786 0.06487
3147.56209 0.06468
3146.27632 0.06456
3144.99055 0.06441
3143.70478 0.06414
3142.41901 0.06378
3141.13324 0.06345
3139.84748 0.06333
3138.56171 0.06344
3137.27594 0.06360
3135.99017 0.06365
3134.70440 0.06351
3133.41863 0.06317
3132.13286 0.06262
3130.84709 0.06190
3129.56132 0.06121
3128.27556 0.06077
3126.98979 0.06071
3125.70402 0.06094
3124.41825 0.06134
3123.13248 0.06184
3121.84671 0.06236
3120.56094 0.06271
3119.27517 0.06269
3117.98940 0.06220
3116.70364 0.06132
3115.41787 0.06037
3114.13210 0.05973
3112.84633 0.05966
3111.56056 0.06016
3110.27479 0.06090
3108.98902 0.06149
3107.70325 0.06173
3106.41749 0.06166
3105.13172 0.06141
3103.84595 0.06113
3102.56018 0.06096
3101.27441 0.06103
3099.98864 0.06130
3098.70287 0.06157
3097.41710 0.06164
3096.13133 0.06149
3094.84557 0.06124
3093.55980 0.06101
3092.27403 0.06083
3090.98826 0.06064
3089.70249 0.06045
3088.41672 0.06029
3087.13095 0.06025
3085.84518 0.06035
3084.55942 0.06047
3083.27365 0.06049
3081.98788 0.06044
3080.70211 0.06051
3079.41634 0.06075
3078.13057 0.06099
3076.84480 0.06092
3075.55903 0.06044
3074.27326 0.05982
3072.98750 0.05941
3071.70173 0.05930
3070.41596 0.05927
3069.13019 0.05915
3067.84442 0.05903
3066.55865 0.05913
3065.27288 0.05942
3063.98711 0.05967
3062.70135 0.05972
3061.41558 0.05964
3060.12981 0.05957
3058.84404 0.05952
3057.55827 0.05938
3056.27250 0.05913
3054.98673 0.05882
3053.70096 0.05856
3052.41519 0.05840
3051.12943 0.05834
3049.84366 0.05827
3048.55789 0.05809
3047.27212 0.05772
3045.98635 0.05720
3044.70058 0.05667
3043.41481 0.05626
3042.12904 0.05597
3040.84328 0.05568
3039.55751 0.05537
3038.27174 0.05518
3036.98597 0.05523
3035.70020 0.05551
3034.41443 0.05581
3033.12866 0.05597
3031.84289 0.05592
3030.55712 0.05573
3029.27136 0.05554
3027.98559 0.05541
3026.69982 0.05529
3025.41405 0.05508
3024.12828 0.05481
3022.84251 0.05464
3021.55674 0.05466
3020.27097 0.05476
3018.98521 0.05476
3017.69944 0.05454
3016.41367 0.05413
3015.12790 0.05367
3013.84213 0.05329
3012.55636 0.05314
3011.27059 0.05333
3009.98482 0.05382
3008.69905 0.05436
3007.41329 0.05465
3006.12752 0.05455
3004.84175 0.05412
3003.55598 0.05357
3002.27021 0.05305
3000.98444 0.05269
2999.69867 0.05253
2998.41290 0.05255
2997.12714 0.05264
2995.84137 0.05262
2994.55560 0.05241
2993.26983 0.05217
2991.98406 0.05214
2990.69829 0.05236
2989.41252 0.05265
2988.12675 0.05283
2986.84098 0.05295
2985.55522 0.05311
2984.26945 0.05331
2982.98368 0.05346
2981.69791 0.05350
2980.41214 0.05343
2979.12637 0.05341
2977.84060 0.05368
2976.55483 0.05433
2975.26907 0.05517
2973.98330 0.05586
2972.69753 0.05620
2971.41176 0.05624
2970.12599 0.05618
2968.84022 0.05622
2967.55445 0.05645
2966.26868 0.05679
2964.98291 0.05714
2963.69715 0.05743
2962.41138 0.05770
2961.12561 0.05787
2959.83984 0.05786
2958.55407 0.05767
2957.26830 0.05753
2955.98253 0.05770
2954.69676 0.05826
2953.41100 0.05910
2952.12523 0.06001
2950.83946 0.06072
2949.55369 0.06094
2948.26792 0.06065
2946.98215 0.06011
2945.69638 0.05975
2944.41061 0.05982
2943.12484 0.06029
2941.83908 0.06083
2940.55331 0.06108
2939.26754 0.06085
2937.98177 0.06020
2936.69600 0.05936
2935.41023 0.05855
2934.12446 0.05784
2932.83869 0.05719
2931.55293 0.05651
2930.26716 0.05569
2928.98139 0.05465
2927.69562 0.05325
2926.40985 0.05129
2925.12408 0.04865
2923.83831 0.04536
2922.55254 0.04159
2921.26677 0.03751
2919.98101 0.03333
2918.69524 0.02959
2917.40947 0.02718
2916.12370 0.02698
2914.83793 0.02921
2913.55216 0.03322
2912.26639 0.03783
2910.98062 0.04205
2909.69486 0.04547
2908.40909 0.04806
2907.12332 0.04983
2905.83755 0.05083
2904.55178 0.05130
2903.26601 0.05158
2901.98024 0.05177
2900.69447 0.05176
2899.40870 0.05159
2898.12294 0.05144
2896.83717 0.05149
2895.55140 0.05168
2894.26563 0.05187
2892.97986 0.05196
2891.69409 0.05197
2890.40832 0.05196
2889.12255 0.05194
2887.83678 0.05192
2886.55102 0.05201
2885.26525 0.05238
2883.97948 0.05295
2882.69371 0.05341
2881.40794 0.05350
2880.12217 0.05328
2878.83640 0.05297
2877.55063 0.05276
2876.26487 0.05271
2874.97910 0.05285
2873.69333 0.05322
2872.40756 0.05377
2871.12179 0.05433
2869.83602 0.05462
2868.55025 0.05445
2867.26448 0.05387
2865.97871 0.05313
2864.69295 0.05243
2863.40718 0.05171
2862.12141 0.05088
2860.83564 0.05000
2859.54987 0.04925
2858.26410 0.04859
2856.97833 0.04760
2855.69256 0.04573
2854.40680 0.04271
2853.12103 0.03872
2851.83526 0.03443
2850.54949 0.03097
2849.26372 0.02955
2847.97795 0.03082
2846.69218 0.03423
2845.40641 0.03837
2844.12064 0.04181
2842.83488 0.04393
2841.54911 0.04498
2840.26334 0.04562
2838.97757 0.04629
2837.69180 0.04697
2836.40603 0.04744
2835.12026 0.04757
2833.83449 0.04741
2832.54873 0.04713
2831.26296 0.04686
2829.97719 0.04667
2828.69142 0.04657
2827.40565 0.04652
2826.11988 0.04637
2824.83411 0.04603
2823.54834 0.04555
2822.26257 0.04509
2820.97681 0.04478
2819.69104 0.04457
2818.40527 0.04440
2817.11950 0.04427
2815.83373 0.04424
2814.54796 0.04433
2813.26219 0.04447
2811.97642 0.04456
2810.69066 0.04449
2809.40489 0.04433
2808.11912 0.04428
2806.83335 0.04446
2805.54758 0.04474
2804.26181 0.04487
2802.97604 0.04476
2801.69027 0.04448
2800.40450 0.04423
2799.11874 0.04416
2797.83297 0.04426
2796.54720 0.04441
2795.26143 0.04445
2793.97566 0.04427
2792.68989 0.04387
2791.40412 0.04335
2790.11835 0.04287
2788.83259 0.04252
2787.54682 0.04229
2786.26105 0.04217
2784.97528 0.04224
2783.68951 0.04254
2782.40374 0.04295
2781.11797 0.04327
2779.83220 0.04340
2778.54643 0.04337
2777.26067 0.04325
2775.97490 0.04303
2774.68913 0.04267
2773.40336 0.04224
2772.11759 0.04188
2770.83182 0.04172
2769.54605 0.04171
2768.26028 0.04170
2766.97452 0.04162
2765.68875 0.04150
2764.40298 0.04141
2763.11721 0.04134
2761.83144 0.04124
2760.54567 0.04111
2759.25990 0.04101
2757.97413 0.04100
2756.68836 0.04105
2755.40260 0.04113
2754.11683 0.04118
2752.83106 0.04115
2751.54529 0.04107
2750.25952 0.04097
2748.97375 0.04085
2747.68798 0.04066
2746.40221 0.04041
2745.11645 0.04021
2743.83068 0.04016
2742.54491 0.04029
2741.25914 0.04055
2739.97337 0.04085
2738.68760 0.04108
2737.40183 0.04110
2736.11606 0.04088
2734.83029 0.04054
2733.54453 0.04022
2732.25876 0.03999
2730.97299 0.03983
2729.68722 0.03971
2728.40145 0.03964
2727.11568 0.03961
2725.82991 0.03960
2724.54414 0.03964
2723.25838 0.03979
2721.97261 0.04002
2720.68684 0.04013
2719.40107 0.04003
2718.11530 0.03978
2716.82953 0.03958
2715.54376 0.03948
2714.25799 0.03936
2712.97222 0.03913
2711.68646 0.03885
2710.40069 0.03872
2709.11492 0.03882
2707.82915 0.03904
2706.54338 0.03918
2705.25761 0.03911
2703.97184 0.03887
2702.68607 0.03852
2701.40031 0.03815
2700.11454 0.03790
2698.82877 0.03782
2697.54300 0.03785
2696.25723 0.03794
2694.97146 0.03811
2693.68569 0.03838
2692.39992 0.03864
2691.11415 0.03873
2689.82839 0.03865
2688.54262 0.03853
2687.25685 0.03847
2685.97108 0.03844
2684.68531 0.03835
2683.39954 0.03817
2682.11377 0.03796
2680.82800 0.03778
2679.54224 0.03762
2678.25647 0.03749
2676.97070 0.03737
2675.68493 0.03730
2674.39916 0.03725
2673.11339 0.03722
2671.82762 0.03723
2670.54185 0.03731
2669.25608 0.03743
2667.97032 0.03753
2666.68455 0.03756
2665.39878 0.03753
2664.11301 0.03751
2662.82724 0.03752
2661.54147 0.03762
2660.25570 0.03782
2658.96993 0.03802
2657.68417 0.03804
2656.39840 0.03777
2655.11263 0.03733
2653.82686 0.03694
2652.54109 0.03670
2651.25532 0.03657
2649.96955 0.03645
2648.68378 0.03629
2647.39801 0.03612
2646.11225 0.03604
2644.82648 0.03612
2643.54071 0.03626
2642.25494 0.03631
2640.96917 0.03619
2639.68340 0.03600
2638.39763 0.03579
2637.11186 0.03550
2635.82609 0.03511
2634.54033 0.03468
2633.25456 0.03426
2631.96879 0.03390
2630.68302 0.03372
2629.39725 0.03386
2628.11148 0.03426
2626.82571 0.03465
2625.53994 0.03479
2624.25418 0.03465
2622.96841 0.03427
2621.68264 0.03374
2620.39687 0.03321
2619.11110 0.03287
2617.82533 0.03278
2616.53956 0.03279
2615.25379 0.03274
2613.96802 0.03256
2612.68226 0.03231
2611.39649 0.03206
2610.11072 0.03183
2608.82495 0.03166
2607.53918 0.03162
2606.25341 0.03175
2604.96764 0.03201
2603.68187 0.03220
2602.39611 0.03215
2601.11034 0.03185
2599.82457 0.03150
2598.53880 0.03124
2597.25303 0.03111
2595.96726 0.03106
2594.68149 0.03115
2593.39572 0.03148
2592.10995 0.03204
2590.82419 0.03262
2589.53842 0.03284
2588.25265 0.03240
2586.96688 0.03149
2585.68111 0.03071
2584.39534 0.03057
2583.10957 0.03097
2581.82380 0.03133
2580.53804 0.03122
2579.25227 0.03066
2577.96650 0.03000
2576.68073 0.02958
2575.39496 0.02956
2574.10919 0.02989
2572.82342 0.03034
2571.53765 0.03061
2570.25188 0.03058
2568.96612 0.03041
2567.68035 0.03037
2566.39458 0.03058
2565.10881 0.03084
2563.82304 0.03088
2562.53727 0.03064
2561.25150 0.03026
2559.96573 0.02992
2558.67997 0.02972
2557.39420 0.02961
2556.10843 0.02952
2554.82266 0.02946
2553.53689 0.02952
2552.25112 0.02978
2550.96535 0.03020
2549.67958 0.03057
2548.39381 0.03064
2547.10805 0.03032
2545.82228 0.02980
2544.53651 0.02936
2543.25074 0.02925
2541.96497 0.02949
2540.67920 0.02991
2539.39343 0.03018
2538.10766 0.02998
2536.82190 0.02928
2535.53613 0.02839
2534.25036 0.02776
2532.96459 0.02768
2531.67882 0.02811
2530.39305 0.02876
2529.10728 0.02921
2527.82151 0.02922
2526.53574 0.02890
2525.24998 0.02851
2523.96421 0.02825
2522.67844 0.02812
2521.39267 0.02801
2520.10690 0.02787
2518.82113 0.02780
2517.53536 0.02786
2516.24959 0.02797
2514.96383 0.02794
2513.67806 0.02772
2512.39229 0.02757
2511.10652 0.02778
2509.82075 0.02835
2508.53498 0.02898
2507.24921 0.02936
2505.96344 0.02928
2504.67767 0.02878
2503.39191 0.02810
2502.10614 0.02769
2500.82037 0.02782
2499.53460 0.02836
2498.24883 0.02888
2496.96306 0.02897
2495.67729 0.02859
2494.39152 0.02804
2493.10576 0.02771
2491.81999 0.02774
2490.53422 0.02794
2489.24845 0.02805
2487.96268 0.02802
2486.67691 0.02801
2485.39114 0.02814
2484.10537 0.02828
2482.81960 0.02823
2481.53384 0.02797
2480.24807 0.02764
2478.96230 0.02741
2477.67653 0.02725
2476.39076 0.02713
2475.10499 0.02703
2473.81922 0.02702
2472.53345 0.02710
2471.24769 0.02719
2469.96192 0.02718
2468.67615 0.02705
2467.39038 0.02695
2466.10461 0.02712
2464.81884 0.02763
2463.53307 0.02822
2462.24730 0.02841
2460.96153 0.02796
2459.67577 0.02702
2458.39000 0.02609
2457.10423 0.02553
2455.81846 0.02542
2454.53269 0.02563
2453.24692 0.02602
2451.96115 0.02650
2450.67538 0.02698
2449.38962 0.02740
2448.10385 0.02765
2446.81808 0.02754
2445.53231 0.02692
2444.24654 0.02597
2442.96077 0.02515
2441.67500 0.02477
2440.38923 0.02475
2439.10346 0.02484
2437.81770 0.02504
2436.53193 0.02556
2435.24616 0.02635
2433.96039 0.02701
2432.67462 0.02712
2431.38885 0.02670
2430.10308 0.02610
2428.81731 0.02567
2427.53155 0.02556
2426.24578 0.02567
2424.96001 0.02585
2423.67424 0.02598
2422.38847 0.02611
2421.10270 0.02630
2419.81693 0.02653
2418.53116 0.02669
2417.24539 0.02669
2415.95963 0.02655
2414.67386 0.02639
2413.38809 0.02633
2412.10232 0.02638
2410.81655 0.02649
2409.53078 0.02655
2408.24501 0.02651
2406.95924 0.02639
2405.67347 0.02624
2404.38771 0.02616
2403.10194 0.02611
2401.81617 0.02594
2400.53040 0.02553
2399.24463 0.02503
2397.95886 0.02467
2396.67309 0.02465
2395.38732 0.02499
2394.10156 0.02554
2392.81579 0.02608
2391.53002 0.02637
2390.24425 0.02633
2388.95848 0.02607
2387.67271 0.02578
2386.38694 0.02561
2385.10117 0.02557
2383.81540 0.02558
2382.52964 0.02550
2381.24387 0.02535
2379.95810 0.02497
2378.67233 0.02520
2377.38656 0.02526
2376.10079 0.02403
2374.81502 0.02224
2373.52925 0.02339
2372.24349 0.02686
2370.95772 0.02919
2369.67195 0.02903
2368.38618 0.02756
2367.10041 0.02690
2365.81464 0.02678
2364.52887 0.02694
2363.24310 0.02732
2361.95733 0.02852
2360.67157 0.03129
2359.38580 0.03340
2358.10003 0.03333
2356.81426 0.03120
2355.52849 0.02758
2354.24272 0.02317
2352.95695 0.02010
2351.67118 0.02176
2350.38542 0.02505
2349.09965 0.02558
2347.81388 0.02494
2346.52811 0.02703
2345.24234 0.02885
2343.95657 0.02551
2342.67080 0.01795
2341.38503 0.01965
2340.09926 0.02841
2338.81350 0.02823
2337.52773 0.02040
2336.24196 0.02271
2334.95619 0.03002
2333.67042 0.02750
2332.38465 0.01911
2331.09888 0.02413
2329.81311 0.02707
2328.52735 0.02187
2327.24158 0.02399
2325.95581 0.02881
2324.67004 0.02749
2323.38427 0.02474
2322.09850 0.02658
2320.81273 0.02512
2319.52696 0.02471
2318.24119 0.02560
2316.95543 0.02461
2315.66966 0.02477
2314.38389 0.02484
2313.09812 0.02420
2311.81235 0.02527
2310.52658 0.02554
2309.24081 0.02506
2307.95504 0.02538
2306.66928 0.02526
2305.38351 0.02540
2304.09774 0.02518
2302.81197 0.02456
2301.52620 0.02439
2300.24043 0.02429
2298.95466 0.02442
2297.66889 0.02451
2296.38312 0.02442
2295.09736 0.02416
2293.81159 0.02373
2292.52582 0.02355
2291.24005 0.02354
2289.95428 0.02355
2288.66851 0.02335
2287.38274 0.02287
2286.09697 0.02232
2284.81121 0.02189
2283.52544 0.02172
2282.23967 0.02186
2280.95390 0.02227
2279.66813 0.02273
2278.38236 0.02290
2277.09659 0.02261
2275.81082 0.02206
2274.52505 0.02163
2273.23929 0.02167
2271.95352 0.02211
2270.66775 0.02262
2269.38198 0.02271
2268.09621 0.02231
2266.81044 0.02181
2265.52467 0.02164
2264.23890 0.02165
2262.95314 0.02172
2261.66737 0.02168
2260.38160 0.02109
2259.09583 0.01984
2257.81006 0.01837
2256.52429 0.01728
2255.23852 0.01678
2253.95275 0.01672
2252.66698 0.01666
2251.38122 0.01632
2250.09545 0.01590
2248.80968 0.01587
2247.52391 0.01658
2246.23814 0.01785
2244.95237 0.01900
2243.66660 0.01937
2242.38083 0.01885
2241.09507 0.01802
2239.80930 0.01766
2238.52353 0.01810
2237.23776 0.01912
2235.95199 0.02017
2234.66622 0.02073
2233.38045 0.02057
2232.09468 0.01982
2230.80891 0.01881
2229.52315 0.01794
2228.23738 0.01754
2226.95161 0.01766
2225.66584 0.01794
2224.38007 0.01778
2223.09430 0.01693
2221.80853 0.01591
2220.52276 0.01552
2219.23700 0.01603
2217.95123 0.01702
2216.66546 0.01790
2215.37969 0.01838
2214.09392 0.01839
2212.80815 0.01787
2211.52238 0.01698
2210.23661 0.01614
2208.95084 0.01573
2207.66508 0.01563
2206.37931 0.01541
2205.09354 0.01486
2203.80777 0.01430
2202.52200 0.01413
2201.23623 0.01445
2199.95046 0.01496
2198.66469 0.01537
2197.37893 0.01558
2196.09316 0.01558
2194.80739 0.01530
2193.52162 0.01469
2192.23585 0.01388
2190.95008 0.01309
2189.66431 0.01246
2188.37854 0.01192
2187.09277 0.01139
2185.80701 0.01092
2184.52124 0.01080
2183.23547 0.01122
2181.94970 0.01191
2180.66393 0.01231
2179.37816 0.01220
2178.09239 0.01187
2176.80662 0.01169
2175.52085 0.01168
2174.23509 0.01169
2172.94932 0.01151
2171.66355 0.01096
2170.37778 0.01009
2169.09201 0.00926
2167.80624 0.00881
2166.52047 0.00871
2165.23470 0.00872
2163.94894 0.00891
2162.66317 0.00945
2161.37740 0.00989
2160.09163 0.00939
2158.80586 0.00799
2157.52009 0.00689
2156.23432 0.00704
2154.94855 0.00791
2153.66278 0.00832
2152.37702 0.00801
2151.09125 0.00772
2149.80548 0.00800
2148.51971 0.00851
2147.23394 0.00883
2145.94817 0.00915
2144.66240 0.00984
2143.37663 0.01074
2142.09087 0.01129
2140.80510 0.01135
2139.51933 0.01129
2138.23356 0.01138
2136.94779 0.01140
2135.66202 0.01098
2134.37625 0.01015
2133.09048 0.00943
2131.80471 0.00930
2130.51895 0.00978
2129.23318 0.01058
2127.94741 0.01154
2126.66164 0.01258
2125.37587 0.01348
2124.09010 0.01387
2122.80433 0.01357
2121.51856 0.01293
2120.23280 0.01262
2118.94703 0.01305
2117.66126 0.01408
2116.37549 0.01510
2115.08972 0.01558
2113.80395 0.01550
2112.51818 0.01518
2111.23241 0.01490
2109.94664 0.01473
2108.66088 0.01456
2107.37511 0.01428
2106.08934 0.01389
2104.80357 0.01348
2103.51780 0.01319
2102.23203 0.01307
2100.94626 0.01310
2099.66049 0.01299
2098.37473 0.01304
2097.08896 0.01318
2095.80319 0.01332
2094.51742 0.01350
2093.23165 0.01374
2091.94588 0.01389
2090.66011 0.01378
2089.37434 0.01343
2088.08857 0.01308
2086.80281 0.01303
2085.51704 0.01326
2084.23127 0.01343
2082.94550 0.01321
2081.65973 0.01266
2080.37396 0.01214
2079.08819 0.01196
2077.80242 0.01205
2076.51666 0.01212
2075.23089 0.01201
2073.94512 0.01186
2072.65935 0.01197
2071.37358 0.01240
2070.08781 0.01289
2068.80204 0.01304
2067.51627 0.01275
2066.23050 0.01226
2064.94474 0.01187
2063.65897 0.01155
2062.37320 0.01100
2061.08743 0.01021
2059.80166 0.00956
2058.51589 0.00939
2057.23012 0.00954
2055.94435 0.00953
2054.65859 0.00910
2053.37282 0.00840
2052.08705 0.00782
2050.80128 0.00763
2049.51551 0.00778
2048.22974 0.00801
2046.94397 0.00804
2045.65820 0.00785
2044.37243 0.00760
2043.08667 0.00743
2041.80090 0.00725
2040.51513 0.00686
2039.22936 0.00612
2037.94359 0.00513
2036.65782 0.00417
2035.37205 0.00357
2034.08628 0.00354
2032.80052 0.00408
2031.51475 0.00501
2030.22898 0.00593
2028.94321 0.00642
2027.65744 0.00647
2026.37167 0.00645
2025.08590 0.00661
2023.80013 0.00671
2022.51436 0.00640
2021.22860 0.00584
2019.94283 0.00553
2018.65706 0.00576
2017.37129 0.00628
2016.08552 0.00660
2014.79975 0.00640
2013.51398 0.00575
2012.22821 0.00510
2010.94245 0.00503
2009.65668 0.00565
2008.37091 0.00637
2007.08514 0.00653
2005.79937 0.00624
2004.51360 0.00621
2003.22783 0.00693
2001.94206 0.00810
2000.65629 0.00907
1999.37053 0.00960
1998.08476 0.00992
1996.79899 0.01031
1995.51322 0.01066
1994.22745 0.01068
1992.94168 0.01025
1991.65591 0.00966
1990.37014 0.00930
1989.08438 0.00932
1987.79861 0.00955
1986.51284 0.00979
1985.22707 0.01004
1983.94130 0.01038
1982.65553 0.01062
1981.36976 0.01036
1980.08399 0.00937
1978.79822 0.00790
1977.51246 0.00663
1976.22669 0.00622
1974.94092 0.00696
1973.65515 0.00865
1972.36938 0.01075
1971.08361 0.01263
1969.79784 0.01379
1968.51207 0.01398
1967.22631 0.01332
1965.94054 0.01232
1964.65477 0.01149
1963.36900 0.01106
1962.08323 0.01090
1960.79746 0.01080
1959.51169 0.01075
1958.22592 0.01088
1956.94015 0.01128
1955.65439 0.01187
1954.36862 0.01244
1953.08285 0.01274
1951.79708 0.01264
1950.51131 0.01216
1949.22554 0.01150
1947.93977 0.01106
1946.65400 0.01120
1945.36823 0.01195
1944.08247 0.01291
1942.79670 0.01350
1941.51093 0.01338
1940.22516 0.01268
1938.93939 0.01182
1937.65362 0.01123
1936.36785 0.01108
1935.08208 0.01131
1933.79632 0.01172
1932.51055 0.01209
1931.22478 0.01232
1929.93901 0.01243
1928.65324 0.01246
1927.36747 0.01247
1926.08170 0.01249
1924.79593 0.01255
1923.51016 0.01255
1922.22440 0.01239
1920.93863 0.01214
1919.65286 0.01199
1918.36709 0.01207
1917.08132 0.01233
1915.79555 0.01265
1914.50978 0.01297
1913.22401 0.01324
1911.93825 0.01344
1910.65248 0.01361
1909.36671 0.01378
1908.08094 0.01390
1906.79517 0.01381
1905.50940 0.01346
1904.22363 0.01300
1902.93786 0.01266
1901.65209 0.01259
1900.36633 0.01276
1899.08056 0.01304
1897.79479 0.01324
1896.50902 0.01322
1895.22325 0.01295
1893.93748 0.01259
1892.65171 0.01234
1891.36594 0.01229
1890.08018 0.01238
1888.79441 0.01250
1887.50864 0.01268
1886.22287 0.01302
1884.93710 0.01351
1883.65133 0.01402
1882.36556 0.01429
1881.07979 0.01414
1879.79402 0.01361
1878.50826 0.01294
1877.22249 0.01243
1875.93672 0.01220
1874.65095 0.01222
1873.36518 0.01239
1872.07941 0.01265
1870.79364 0.01295
1869.50787 0.01326
1868.22211 0.01351
1866.93634 0.01370
1865.65057 0.01386
1864.36480 0.01403
1863.07903 0.01423
1861.79326 0.01437
1860.50749 0.01437
1859.22172 0.01421
1857.93595 0.01398
1856.65019 0.01382
1855.36442 0.01385
1854.07865 0.01406
1852.79288 0.01435
1851.50711 0.01453
1850.22134 0.01453
1848.93557 0.01434
1847.64980 0.01408
1846.36404 0.01386
1845.07827 0.01372
1843.79250 0.01356
1842.50673 0.01338
1841.22096 0.01326
1839.93519 0.01326
1838.64942 0.01335
1837.36365 0.01341
1836.07788 0.01341
1834.79212 0.01341
1833.50635 0.01347
1832.22058 0.01360
1830.93481 0.01375
1829.64904 0.01388
1828.36327 0.01400
1827.07750 0.01412
1825.79173 0.01418
1824.50597 0.01409
1823.22020 0.01390
1821.93443 0.01371
1820.64866 0.01362
1819.36289 0.01360
1818.07712 0.01359
1816.79135 0.01357
1815.50558 0.01359
1814.21981 0.01370
1812.93405 0.01388
1811.64828 0.01408
1810.36251 0.01427
1809.07674 0.01443
1807.79097 0.01457
1806.50520 0.01462
1805.21943 0.01457
1803.93366 0.01444
1802.64790 0.01432
1801.36213 0.01423
1800.07636 0.01417
1798.79059 0.01411
1797.50482 0.01405
1796.21905 0.01402
1794.93328 0.01403
1793.64751 0.01411
1792.36174 0.01426
1791.07598 0.01442
1789.79021 0.01453
1788.50444 0.01456
1787.21867 0.01452
1785.93290 0.01446
1784.64713 0.01441
1783.36136 0.01437
1782.07559 0.01435
1780.78983 0.01436
1779.50406 0.01440
1778.21829 0.01448
1776.93252 0.01455
1775.64675 0.01461
1774.36098 0.01471
1773.07521 0.01482
1771.78944 0.01490
1770.50367 0.01491
1769.21791 0.01493
1767.93214 0.01499
1766.64637 0.01507
1765.36060 0.01518
1764.07483 0.01531
1762.78906 0.01541
1761.50329 0.01544
1760.21752 0.01540
1758.93176 0.01533
1757.64599 0.01530
1756.36022 0.01529
1755.07445 0.01528
1753.78868 0.01528
1752.50291 0.01525
1751.21714 0.01517
1749.93137 0.01506
1748.64560 0.01502
1747.35984 0.01508
1746.07407 0.01518
1744.78830 0.01523
1743.50253 0.01523
1742.21676 0.01526
1740.93099 0.01535
1739.64522 0.01549
1738.35945 0.01562
1737.07369 0.01574
1735.78792 0.01591
1734.50215 0.01608
1733.21638 0.01619
1731.93061 0.01626
1730.64484 0.01635
1729.35907 0.01647
1728.07330 0.01658
1726.78753 0.01668
1725.50177 0.01680
1724.21600 0.01695
1722.93023 0.01712
1721.64446 0.01728
1720.35869 0.01740
1719.07292 0.01755
1717.78715 0.01775
1716.50138 0.01805
1715.21561 0.01844
1713.92985 0.01888
1712.64408 0.01933
1711.35831 0.01976
1710.07254 0.02023
1708.78677 0.02077
1707.50100 0.02137
1706.21523 0.02199
1704.92946 0.02259
1703.64370 0.02323
1702.35793 0.02402
1701.07216 0.02495
1699.78639 0.02586
1698.50062 0.02669
1697.21485 0.02748
1695.92908 0.02823
1694.64331 0.02892
1693.35754 0.02967
1692.07178 0.03059
1690.78601 0.03159
1689.50024 0.03253
1688.21447 0.03337
1686.92870 0.03424
1685.64293 0.03525
1684.35716 0.03632
1683.07139 0.03732
1681.78563 0.03824
1680.49986 0.03909
1679.21409 0.03987
1677.92832 0.04064
1676.64255 0.04149
1675.35678 0.04240
1674.07101 0.04334
1672.78524 0.04428
1671.49947 0.04526
1670.21371 0.04622
1668.92794 0.04710
1667.64217 0.04786
1666.35640 0.04855
1665.07063 0.04926
1663.78486 0.05001
1662.49909 0.05080
1661.21332 0.05157
1659.92756 0.05227
1658.64179 0.05287
1657.35602 0.05335
1656.07025 0.05379
1654.78448 0.05429
1653.49871 0.05477
1652.21294 0.05510
1650.92717 0.05525
1649.64140 0.05540
1648.35564 0.05564
1647.06987 0.05593
1645.78410 0.05618
1644.49833 0.05634
1643.21256 0.05643
1641.92679 0.05641
1640.64102 0.05628
1639.35525 0.05604
1638.06949 0.05573
1636.78372 0.05538
1635.49795 0.05494
1634.21218 0.05438
1632.92641 0.05376
1631.64064 0.05315
1630.35487 0.05255
1629.06910 0.05194
1627.78333 0.05129
1626.49757 0.05061
1625.21180 0.04995
1623.92603 0.04929
1622.64026 0.04858
1621.35449 0.04780
1620.06872 0.04705
1618.78295 0.04642
1617.49718 0.04591
1616.21142 0.04542
1614.92565 0.04490
1613.63988 0.04438
1612.35411 0.04392
1611.06834 0.04348
1609.78257 0.04307
1608.49680 0.04268
1607.21103 0.04233
1605.92526 0.04204
1604.63950 0.04181
1603.35373 0.04166
1602.06796 0.04156
1600.78219 0.04151
1599.49642 0.04149
1598.21065 0.04148
1596.92488 0.04147
1595.63911 0.04143
1594.35335 0.04138
1593.06758 0.04133
1591.78181 0.04128
1590.49604 0.04124
1589.21027 0.04123
1587.92450 0.04128
1586.63873 0.04139
1585.35296 0.04153
1584.06719 0.04162
1582.78143 0.04165
1581.49566 0.04163
1580.20989 0.04167
1578.92412 0.04188
1577.63835 0.04228
1576.35258 0.04280
1575.06681 0.04331
1573.78104 0.04378
1572.49528 0.04430
1571.20951 0.04488
1569.92374 0.04550
1568.63797 0.04610
1567.35220 0.04666
1566.06643 0.04718
1564.78066 0.04764
1563.49489 0.04800
1562.20912 0.04831
1560.92336 0.04863
1559.63759 0.04896
1558.35182 0.04927
1557.06605 0.04958
1555.78028 0.04993
1554.49451 0.05027
1553.20874 0.05052
1551.92297 0.05068
1550.63721 0.05083
1549.35144 0.05095
1548.06567 0.05095
1546.77990 0.05082
1545.49413 0.05057
1544.20836 0.05025
1542.92259 0.05000
1541.63682 0.04993
1540.35105 0.05007
1539.06529 0.05034
1537.77952 0.05070
1536.49375 0.05116
1535.20798 0.05174
1533.92221 0.05232
1532.63644 0.05279
1531.35067 0.05315
1530.06490 0.05348
1528.77914 0.05385
1527.49337 0.05428
1526.20760 0.05477
1524.92183 0.05528
1523.63606 0.05581
1522.35029 0.05636
1521.06452 0.05690
1519.77875 0.05743
1518.49298 0.05805
1517.20722 0.05879
1515.92145 0.05962
1514.63568 0.06047
1513.34991 0.06131
1512.06414 0.06212
1510.77837 0.06293
1509.49260 0.06383
1508.20683 0.06482
1506.92107 0.06582
1505.63530 0.06670
1504.34953 0.06749
1503.06376 0.06827
1501.77799 0.06906
1500.49222 0.06979
1499.20645 0.07042
1497.92068 0.07103
1496.63491 0.07163
1495.34915 0.07219
1494.06338 0.07270
1492.77761 0.07320
1491.49184 0.07375
1490.20607 0.07438
1488.92030 0.07511
1487.63453 0.07595
1486.34876 0.07687
1485.06299 0.07785
1483.77723 0.07888
1482.49146 0.07995
1481.20569 0.08105
1479.91992 0.08212
1478.63415 0.08309
1477.34838 0.08392
1476.06261 0.08460
1474.77684 0.08523
1473.49108 0.08592
1472.20531 0.08672
1470.91954 0.08759
1469.63377 0.08843
1468.34800 0.08918
1467.06223 0.08982
1465.77646 0.09036
1464.49069 0.09089
1463.20492 0.09149
1461.91916 0.09226
1460.63339 0.09318
1459.34762 0.09421
1458.06185 0.09523
1456.77608 0.09611
1455.49031 0.09682
1454.20454 0.09741
1452.91877 0.09797
1451.63301 0.09852
1450.34724 0.09903
1449.06147 0.09945
1447.77570 0.09970
1446.48993 0.09976
1445.20416 0.09969
1443.91839 0.09955
1442.63262 0.09934
1441.34685 0.09904
1440.06109 0.09865
1438.77532 0.09828
1437.48955 0.09799
1436.20378 0.09784
1434.91801 0.09787
1433.63224 0.09812
1432.34647 0.09863
1431.06070 0.09937
1429.77494 0.10033
1428.48917 0.10144
1427.20340 0.10266
1425.91763 0.10392
1424.63186 0.10515
1423.34609 0.10637
1422.06032 0.10760
1420.77455 0.10885
1419.48878 0.11006
1418.20302 0.11115
1416.91725 0.11212
1415.63148 0.11296
1414.34571 0.11365
1413.05994 0.11414
1411.77417 0.11442
1410.48840 0.11447
1409.20263 0.11429
1407.91687 0.11390
1406.63110 0.11329
1405.34533 0.11252
1404.05956 0.11160
1402.77379 0.11053
1401.48802 0.10926
1400.20225 0.10778
1398.91648 0.10609
1397.63071 0.10425
1396.34495 0.10231
1395.05918 0.10034
1393.77341 0.09836
1392.48764 0.09642
1391.20187 0.09455
1389.91610 0.09271
1388.63033 0.09081
1387.34456 0.08882
1386.05880 0.08677
1384.77303 0.08472
1383.48726 0.08272
1382.20149 0.08077
1380.91572 0.07885
1379.62995 0.07696
1378.34418 0.07504
1377.05841 0.07306
1375.77264 0.07099
1374.48688 0.06886
1373.20111 0.06674
1371.91534 0.06469
1370.62957 0.06271
1369.34380 0.06083
1368.05803 0.05904
1366.77226 0.05735
1365.48649 0.05575
1364.20073 0.05422
1362.91496 0.05273
1361.62919 0.05128
1360.34342 0.04989
1359.05765 0.04862
1357.77188 0.04746
1356.48611 0.04640
1355.20034 0.04544
1353.91457 0.04458
1352.62881 0.04384
1351.34304 0.04319
1350.05727 0.04259
1348.77150 0.04197
1347.48573 0.04135
1346.19996 0.04075
1344.91419 0.04021
1343.62842 0.03969
1342.34266 0.03919
1341.05689 0.03872
1339.77112 0.03827
1338.48535 0.03786
1337.19958 0.03750
1335.91381 0.03716
1334.62804 0.03680
1333.34227 0.03635
1332.05650 0.03584
1330.77074 0.03533
1329.48497 0.03487
1328.19920 0.03449
1326.91343 0.03414
1325.62766 0.03383
1324.34189 0.03355
1323.05612 0.03329
1321.77035 0.03303
1320.48459 0.03272
1319.19882 0.03236
1317.91305 0.03200
1316.62728 0.03168
1315.34151 0.03139
1314.05574 0.03109
1312.76997 0.03075
1311.48420 0.03041
1310.19843 0.03011
1308.91267 0.02986
1307.62690 0.02963
1306.34113 0.02939
1305.05536 0.02913
1303.76959 0.02888
1302.48382 0.02865
1301.19805 0.02846
1299.91228 0.02830
1298.62652 0.02813
1297.34075 0.02794
1296.05498 0.02774
1294.76921 0.02756
1293.48344 0.02742
1292.19767 0.02730
1290.91190 0.02718
1289.62613 0.02703
1288.34036 0.02685
1287.05460 0.02669
1285.76883 0.02661
1284.48306 0.02657
1283.19729 0.02650
1281.91152 0.02639
1280.62575 0.02625
1279.33998 0.02612
1278.05421 0.02601
1276.76845 0.02589
1275.48268 0.02576
1274.19691 0.02561
1272.91114 0.02545
1271.62537 0.02528
1270.33960 0.02517
1269.05383 0.02511
1267.76806 0.02509
1266.48229 0.02505
1265.19653 0.02497
1263.91076 0.02491
1262.62499 0.02487
1261.33922 0.02484
1260.05345 0.02478
1258.76768 0.02471
1257.48191 0.02463
1256.19614 0.02453
1254.91037 0.02441
1253.62461 0.02428
1252.33884 0.02419
1251.05307 0.02415
1249.76730 0.02413
1248.48153 0.02409
1247.19576 0.02400
1245.90999 0.02389
1244.62422 0.02381
1243.33846 0.02377
1242.05269 0.02372
1240.76692 0.02365
1239.48115 0.02355
1238.19538 0.02346
1236.90961 0.02334
1235.62384 0.02317
1234.33807 0.02296
1233.05230 0.02277
1231.76654 0.02261
1230.48077 0.02249
1229.19500 0.02236
1227.90923 0.02222
1226.62346 0.02206
1225.33769 0.02188
1224.05192 0.02168
1222.76615 0.02145
1221.48039 0.02123
1220.19462 0.02101
1218.90885 0.02079
1217.62308 0.02057
1216.33731 0.02036
1215.05154 0.02019
1213.76577 0.02005
1212.48000 0.01993
1211.19423 0.01982
1209.90847 0.01975
1208.62270 0.01972
1207.33693 0.01971
1206.05116 0.01968
1204.76539 0.01962
1203.47962 0.01955
1202.19385 0.01948
1200.90808 0.01942
1199.62232 0.01937
1198.33655 0.01925
1197.05078 0.01910
1195.76501 0.01892
1194.47924 0.01877
1193.19347 0.01864
1191.90770 0.01851
1190.62193 0.01836
1189.33616 0.01821
1188.05040 0.01808
1186.76463 0.01797
1185.47886 0.01787
1184.19309 0.01777
1182.90732 0.01768
1181.62155 0.01761
1180.33578 0.01756
1179.05001 0.01752
1177.76425 0.01748
1176.47848 0.01749
1175.19271 0.01753
1173.90694 0.01760
1172.62117 0.01766
1171.33540 0.01773
1170.04963 0.01783
1168.76386 0.01791
1167.47809 0.01793
1166.19233 0.01791
1164.90656 0.01796
1163.62079 0.01811
1162.33502 0.01837
1161.04925 0.01862
1159.76348 0.01878
1158.47771 0.01884
1157.19194 0.01884
1155.90618 0.01889
1154.62041 0.01903
1153.33464 0.01926
1152.04887 0.01950
1150.76310 0.01972
1149.47733 0.01992
1148.19156 0.02018
1146.90579 0.02056
1145.62002 0.02107
1144.33426 0.02165
1143.04849 0.02228
1141.76272 0.02298
1140.47695 0.02376
1139.19118 0.02460
1137.90541 0.02550
1136.61964 0.02650
1135.33387 0.02767
1134.04811 0.02904
1132.76234 0.03058
1131.47657 0.03226
1130.19080 0.03410
1128.90503 0.03614
1127.61926 0.03845
1126.33349 0.04099
1125.04772 0.04371
1123.76195 0.04655
1122.47619 0.04949
1121.19042 0.05253
1119.90465 0.05566
1118.61888 0.05883
1117.33311 0.06200
1116.04734 0.06516
1114.76157 0.06831
1113.47580 0.07144
1112.19004 0.07454
1110.90427 0.07759
1109.61850 0.08058
1108.33273 0.08350
1107.04696 0.08633
1105.76119 0.08905
1104.47542 0.09166
1103.18965 0.09417
1101.90388 0.09660
1100.61812 0.09896
1099.33235 0.10125
1098.04658 0.10348
1096.76081 0.10566
1095.47504 0.10778
1094.18927 0.10983
1092.90350 0.11178
1091.61773 0.11366
1090.33197 0.11547
1089.04620 0.11721
1087.76043 0.11887
1086.47466 0.12047
1085.18889 0.12206
1083.90312 0.12371
1082.61735 0.12549
1081.33158 0.12741
1080.04581 0.12951
1078.76005 0.13175
1077.47428 0.13412
1076.18851 0.13656
1074.90274 0.13906
1073.61697 0.14165
1072.33120 0.14439
1071.04543 0.14732
1069.75966 0.15042
1068.47390 0.15363
1067.18813 0.15688
1065.90236 0.16013
1064.61659 0.16339
1063.33082 0.16668
1062.04505 0.16998
1060.75928 0.17324
1059.47351 0.17648
1058.18774 0.17975
1056.90198 0.18307
1055.61621 0.18638
1054.33044 0.18962
1053.04467 0.19274
1051.75890 0.19583
1050.47313 0.19895
1049.18736 0.20215
1047.90159 0.20540
1046.61583 0.20865
1045.33006 0.21192
1044.04429 0.21524
1042.75852 0.21862
1041.47275 0.22202
1040.18698 0.22544
1038.90121 0.22893
1037.61544 0.23251
1036.32967 0.23612
1035.04391 0.23970
1033.75814 0.24319
1032.47237 0.24653
1031.18660 0.24960
1029.90083 0.25232
1028.61506 0.25465
1027.32929 0.25663
1026.04352 0.25829
1024.75775 0.25966
1023.47199 0.26078
1022.18622 0.26160
1020.90045 0.26210
1019.61468 0.26223
1018.32891 0.26190
1017.04314 0.26106
1015.75737 0.25967
1014.47160 0.25773
1013.18584 0.25525
1011.90007 0.25228
1010.61430 0.24885
1009.32853 0.24501
1008.04276 0.24078
1006.75699 0.23615
1005.47122 0.23109
1004.18545 0.22566
1002.89968 0.22000
1001.61392 0.21420
1000.32815 0.20821
999.04238 0.20197
997.75661 0.19549
996.47084 0.18885
995.18507 0.18221
993.89930 0.17565
992.61353 0.16927
991.32777 0.16307
990.04200 0.15702
988.75623 0.15110
987.47046 0.14532
986.18469 0.13976
984.89892 0.13448
983.61315 0.12949
982.32738 0.12478
981.04161 0.12034
979.75585 0.11616
978.47008 0.11225
977.18431 0.10867
975.89854 0.10546
974.61277 0.10271
973.32700 0.10044
972.04123 0.09865
970.75546 0.09732
969.46970 0.09650
968.18393 0.09623
966.89816 0.09655
965.61239 0.09733
964.32662 0.09829
963.04085 0.09914
961.75508 0.09965
960.46931 0.09969
959.18354 0.09916
957.89778 0.09807
956.61201 0.09653
955.32624 0.09469
954.04047 0.09261
952.75470 0.09035
951.46893 0.08799
950.18316 0.08562
948.89739 0.08329
947.61163 0.08096
946.32586 0.07868
945.04009 0.07652
943.75432 0.07450
942.46855 0.07258
941.18278 0.07071
939.89701 0.06889
938.61124 0.06717
937.32547 0.06557
936.03971 0.06408
934.75394 0.06269
933.46817 0.06138
932.18240 0.06018
930.89663 0.05909
929.61086 0.05805
928.32509 0.05704
927.03932 0.05608
925.75356 0.05523
924.46779 0.05447
923.18202 0.05374
921.89625 0.05300
920.61048 0.05225
919.32471 0.05153
918.03894 0.05088
916.75317 0.05028
915.46740 0.04967
914.18164 0.04902
912.89587 0.04833
911.61010 0.04768
910.32433 0.04707
909.03856 0.04647
907.75279 0.04585
906.46702 0.04530
905.18125 0.04486
903.89549 0.04448
902.60972 0.04410
901.32395 0.04369
900.03818 0.04328
898.75241 0.04289
897.46664 0.04247
896.18087 0.04202
894.89510 0.04160
893.60933 0.04133
892.32357 0.04124
891.03780 0.04127
889.75203 0.04138
888.46626 0.04167
887.18049 0.04231
885.89472 0.04347
884.60895 0.04533
883.32318 0.04796
882.03742 0.05121
880.75165 0.05459
879.46588 0.05752
878.18011 0.05977
876.89434 0.06156
875.60857 0.06326
874.32280 0.06495
873.03703 0.06632
871.75126 0.06699
870.46550 0.06676
869.17973 0.06574
867.89396 0.06407
866.60819 0.06187
865.32242 0.05925
864.03665 0.05641
862.75088 0.05364
861.46511 0.05117
860.17935 0.04907
858.89358 0.04733
857.60781 0.04587
856.32204 0.04465
855.03627 0.04363
853.75050 0.04279
852.46473 0.04209
851.17896 0.04149
849.89319 0.04094
848.60743 0.04038
847.32166 0.03976
846.03589 0.03912
844.75012 0.03856
843.46435 0.03812
842.17858 0.03778
840.89281 0.03747
839.60704 0.03715
838.32128 0.03685
837.03551 0.03661
835.74974 0.03645
834.46397 0.03633
833.17820 0.03621
831.89243 0.03608
830.60666 0.03588
829.32089 0.03561
828.03512 0.03528
826.74936 0.03497
825.46359 0.03474
824.17782 0.03463
822.89205 0.03457
821.60628 0.03452
820.32051 0.03445
819.03474 0.03431
817.74897 0.03409
816.46321 0.03383
815.17744 0.03361
813.89167 0.03353
812.60590 0.03355
811.32013 0.03355
810.03436 0.03344
808.74859 0.03328
807.46282 0.03318
806.17705 0.03319
804.89129 0.03326
803.60552 0.03332
802.31975 0.03331
801.03398 0.03325
799.74821 0.03314
798.46244 0.03301
797.17667 0.03289
795.89090 0.03282
794.60513 0.03281
793.31937 0.03281
792.03360 0.03275
790.74783 0.03263
789.46206 0.03248
788.17629 0.03237
786.89052 0.03231
785.60475 0.03225
784.31898 0.03216
783.03322 0.03201
781.74745 0.03186
780.46168 0.03179
779.17591 0.03186
777.89014 0.03206
776.60437 0.03226
775.31860 0.03234
774.03283 0.03225
772.74706 0.03210
771.46130 0.03200
770.17553 0.03198
768.88976 0.03201
767.60399 0.03205
766.31822 0.03211
765.03245 0.03213
763.74668 0.03204
762.46091 0.03186
761.17515 0.03172
759.88938 0.03177
758.60361 0.03202
757.31784 0.03233
756.03207 0.03252
754.74630 0.03252
753.46053 0.03236
752.17476 0.03212
750.88899 0.03192
749.60323 0.03182
748.31746 0.03181
747.03169 0.03184
745.74592 0.03187
744.46015 0.03191
743.17438 0.03194
741.88861 0.03189
740.60284 0.03172
739.31708 0.03143
738.03131 0.03115
736.74554 0.03104
735.45977 0.03114
734.17400 0.03135
732.88823 0.03152
731.60246 0.03161
730.31669 0.03163
729.03092 0.03161
727.74516 0.03155
726.45939 0.03146
725.17362 0.03139
723.88785 0.03133
722.60208 0.03128
721.31631 0.03127
720.03054 0.03133
718.74477 0.03151
717.45901 0.03176
716.17324 0.03200
714.88747 0.03216
713.60170 0.03221
712.31593 0.03215
711.03016 0.03204
709.74439 0.03190
708.45862 0.03179
707.17285 0.03170
705.88709 0.03162
704.60132 0.03154
703.31555 0.03145
702.02978 0.03141
700.74401 0.03143
699.45824 0.03147
698.17247 0.03149
696.88670 0.03150
695.60094 0.03160
694.31517 0.03168
693.02940 0.03167
691.74363 0.03154
690.45786 0.03142
689.17209 0.03151
687.88632 0.03168
686.60055 0.03174
685.31478 0.03160
684.02902 0.03138
682.74325 0.03131
681.45748 0.03128
680.17171 0.03119
678.88594 0.03100
677.60017 0.03078
676.31440 0.03075
675.02863 0.03080
673.74287 0.03085
672.45710 0.03096
671.17133 0.03117
669.88556 0.03156
668.59979 0.03180
667.31402 0.03152
666.02825 0.03150
664.74248 0.03131
663.45671 0.03100
662.17095 0.03068
660.88518 0.03038
659.59941 0.03017
658.31364 0.03015
657.02787 0.03026
655.74210 0.03033
654.45633 0.03029
653.17056 0.03011
651.88480 0.02993
650.59903 0.02988
649.31326 0.02996
648.02749 0.03004
646.74172 0.03006
645.45595 0.03006
644.17018 0.03002
642.88441 0.02997
641.59864 0.02993
640.31288 0.02992
639.02711 0.02997
637.74134 0.03010
636.45557 0.03028
635.16980 0.03046
633.88403 0.03064
632.59826 0.03086
631.31249 0.03113
630.02673 0.03135
628.74096 0.03170
627.45519 0.03293
626.16942 0.03405
624.88365 0.03521
623.59788 0.03660
622.31211 0.03808
621.02634 0.03970
619.74057 0.04180
618.45481 0.04477
617.16904 0.04856
615.88327 0.05242
614.59750 0.05526
613.31173 0.05676
612.02596 0.05810
610.74019 0.06113
609.45442 0.06635
608.16866 0.07246
606.88289 0.07816
605.59712 0.08337
604.31135 0.08835
603.02558 0.09264
601.73981 0.09535
600.45404 0.09601
599.16827 0.09486
597.88250 0.09244
596.59674 0.08939
595.31097 0.08630
594.02520 0.08358
592.73943 0.08139
591.45366 0.07970
590.16789 0.07848
588.88212 0.07783
587.59635 0.07788
586.31059 0.07862
585.02482 0.07993
583.73905 0.08164
582.45328 0.08365
581.16751 0.08596
579.88174 0.08855
578.59597 0.09133
577.31020 0.09419
576.02443 0.09695
574.73867 0.09953
573.45290 0.10188
572.16713 0.10410
570.88136 0.10640
569.59559 0.10907
568.30982 0.11229
567.02405 0.11601
565.73828 0.11992
564.45251 0.12348
563.16675 0.12618
561.88098 0.12754
560.59521 0.12729
559.30944 0.12534
558.02367 0.12180
556.73790 0.11697
555.45213 0.11127
554.16636 0.10522
552.88060 0.09925
551.59483 0.09364
550.30906 0.08845
549.02329 0.08367
547.73752 0.07929
546.45175 0.07536
545.16598 0.07195
543.88021 0.06902
542.59444 0.06640
541.30868 0.06396
540.02291 0.06171
538.73714 0.05974
537.45137 0.05802
536.16560 0.05638
534.87983 0.05472
533.59406 0.05308
532.30829 0.05157
531.02253 0.05025
529.73676 0.04910
528.45099 0.04807
527.16522 0.04709
525.87945 0.04614
524.59368 0.04523
523.30791 0.04436
522.02214 0.04352
520.73637 0.04271
519.45061 0.04195
518.16484 0.04126
516.87907 0.04060
515.59330 0.03992
514.30753 0.03924
513.02176 0.03860
511.73599 0.03806
510.45022 0.03758
509.16446 0.03711
507.87869 0.03657
506.59292 0.03597
505.30715 0.03538
504.02138 0.03486
502.73561 0.03445
501.44984 0.03413
500.16407 0.03384
498.87830 0.03355
497.59254 0.03322
496.30677 0.03285
495.02100 0.03244
493.73523 0.03200
492.44946 0.03152
491.16369 0.03104
489.87792 0.03066
488.59215 0.03045
487.30639 0.03039
486.02062 0.03039
484.73485 0.03035
483.44908 0.03027
482.16331 0.03018
480.87754 0.03015
479.59177 0.03020
478.30600 0.03033
477.02023 0.03052
475.73447 0.03071
474.44870 0.03086
473.16293 0.03093
471.87716 0.03096
470.59139 0.03099
469.30562 0.03105
468.01985 0.03108
466.73408 0.03097
465.44832 0.03066
464.16255 0.03019
462.87678 0.02967
461.59101 0.02921
460.30524 0.02886
459.01947 0.02858
457.73370 0.02829
456.44793 0.02793
455.16216 0.02752
453.87640 0.02711
452.59063 0.02676
451.30486 0.02647
450.01909 0.02622
448.73332 0.02596
447.44755 0.02571
446.16178 0.02547
444.87601 0.02525
443.59025 0.02506
442.30448 0.02486
441.01871 0.02466
439.73294 0.02447
438.44717 0.02431
437.16140 0.02418
435.87563 0.02409
434.58986 0.02399
433.30409 0.02389
432.01833 0.02380
430.73256 0.02370
429.44679 0.02354
428.16102 0.02329
426.87525 0.02297
425.58948 0.02266
424.30371 0.02244
423.01794 0.02230
421.73218 0.02223
420.44641 0.02218
419.16064 0.02211
417.87487 0.02198
416.58910 0.02182
415.30333 0.02166
414.01756 0.02155
412.73179 0.02152
411.44602 0.02154
410.16026 0.02157
408.87449 0.02156
407.58872 0.02148
406.30295 0.02137
405.01718 0.02131
403.73141 0.02132
402.44564 0.02138
401.15987 0.02148
399.87411 0.02160
