3997.45528	0.04555
3996.16951	0.04410
3994.88374	0.04280
3993.59798	0.04250
3992.31221	0.04340
3991.02644	0.04469
3989.74067	0.04540
3988.45490	0.04528
3987.16913	0.04475
3985.88336	0.04428
3984.59759	0.04386
3983.31183	0.04325
3982.02606	0.04242
3980.74029	0.04167
3979.45452	0.04138
3978.16875	0.04159
3976.88298	0.04186
3975.59721	0.04162
3974.31144	0.04071
3973.02567	0.03969
3971.73991	0.03940
3970.45414	0.04017
3969.16837	0.04145
3967.88260	0.04236
3966.59683	0.04258
3965.31106	0.04263
3964.02529	0.04319
3962.73952	0.04435
3961.45376	0.04561
3960.16799	0.04634
3958.88222	0.04628
3957.59645	0.04561
3956.31068	0.04483
3955.02491	0.04450
3953.73914	0.04481
3952.45337	0.04544
3951.16760	0.04577
3949.88184	0.04536
3948.59607	0.04439
3947.31030	0.04350
3946.02453	0.04342
3944.73876	0.04431
3943.45299	0.04560
3942.16722	0.04642
3940.88145	0.04624
3939.59569	0.04519
3938.30992	0.04381
3937.02415	0.04268
3935.73838	0.04219
3934.45261	0.04235
3933.16684	0.04286
3931.88107	0.04333
3930.59530	0.04355
3929.30953	0.04364
3928.02377	0.04391
3926.73800	0.04455
3925.45223	0.04534
3924.16646	0.04581
3922.88069	0.04564
3921.59492	0.04498
3920.30915	0.04433
3919.02338	0.04411
3917.73762	0.04446
3916.45185	0.04522
3915.16608	0.04600
3913.88031	0.04630
3912.59454	0.04582
3911.30877	0.04473
3910.02300	0.04359
3908.73723	0.04294
3907.45146	0.04296
3906.16570	0.04339
3904.87993	0.04383
3903.59416	0.04401
3902.30839	0.04399
3901.02262	0.04391
3899.73685	0.04371
3898.45108	0.04324
3897.16531	0.04246
3895.87955	0.04165
3894.59378	0.04101
3893.30801	0.04051
3892.02224	0.03998
3890.73647	0.03955
3889.45070	0.03963
3888.16493	0.04041
3886.87916	0.04157
3885.59339	0.04254
3884.30763	0.04308
3883.02186	0.04333
3881.73609	0.04350
3880.45032	0.04354
3879.16455	0.04331
3877.87878	0.04274
3876.59301	0.04193
3875.30724	0.04115
3874.02148	0.04085
3872.73571	0.04131
3871.44994	0.04232
3870.16417	0.04318
3868.87840	0.04333
3867.59263	0.04270
3866.30686	0.04174
3865.02109	0.04093
3863.73532	0.04053
3862.44956	0.04048
3861.16379	0.04057
3859.87802	0.04056
3858.59225	0.04023
3857.30648	0.03946
3856.02071	0.03856
3854.73494	0.03807
3853.44917	0.03828
3852.16341	0.03889
3850.87764	0.03939
3849.59187	0.03970
3848.30610	0.04005
3847.02033	0.04052
3845.73456	0.04094
3844.44879	0.04119
3843.16302	0.04130
3841.87725	0.04132
3840.59149	0.04127
3839.30572	0.04130
3838.01995	0.04158
3836.73418	0.04206
3835.44841	0.04246
3834.16264	0.04260
3832.87687	0.04250
3831.59110	0.04227
3830.30534	0.04200
3829.01957	0.04172
3827.73380	0.04145
3826.44803	0.04122
3825.16226	0.04102
3823.87649	0.04079
3822.59072	0.04041
3821.30495	0.03988
3820.01918	0.03942
3818.73342	0.03944
3817.44765	0.04009
3816.16188	0.04101
3814.87611	0.04154
3813.59034	0.04140
3812.30457	0.04092
3811.01880	0.04073
3809.73303	0.04117
3808.44726	0.04202
3807.16150	0.04274
3805.87573	0.04286
3804.58996	0.04228
3803.30419	0.04129
3802.01842	0.04027
3800.73265	0.03949
3799.44688	0.03904
3798.16111	0.03891
3796.87535	0.03894
3795.58958	0.03873
3794.30381	0.03796
3793.01804	0.03685
3791.73227	0.03608
3790.44650	0.03610
3789.16073	0.03671
3787.87496	0.03743
3786.58919	0.03809
3785.30343	0.03882
3784.01766	0.03959
3782.73189	0.03993
3781.44612	0.03936
3780.16035	0.03800
3778.87458	0.03671
3777.58881	0.03646
3776.30304	0.03757
3775.01728	0.03951
3773.73151	0.04137
3772.44574	0.04254
3771.15997	0.04290
3769.87420	0.04257
3768.58843	0.04171
3767.30266	0.04056
3766.01689	0.03945
3764.73112	0.03876
3763.44536	0.03865
3762.15959	0.03908
3760.87382	0.03978
3759.58805	0.04036
3758.30228	0.04051
3757.01651	0.04031
3755.73074	0.04006
3754.44497	0.03989
3753.15921	0.03961
3751.87344	0.03901
3750.58767	0.03804
3749.30190	0.03687
3748.01613	0.03586
3746.73036	0.03562
3745.44459	0.03650
3744.15882	0.03809
3742.87305	0.03946
3741.58729	0.04012
3740.30152	0.04041
3739.01575	0.04098
3737.72998	0.04191
3736.44421	0.04257
3735.15844	0.04238
3733.87267	0.04137
3732.58690	0.04016
3731.30114	0.03930
3730.01537	0.03884
3728.72960	0.03854
3727.44383	0.03821
3726.15806	0.03783
3724.87229	0.03750
3723.58652	0.03737
3722.30075	0.03762
3721.01498	0.03828
3719.72922	0.03915
3718.44345	0.03981
3717.15768	0.03988
3715.87191	0.03927
3714.58614	0.03821
3713.30037	0.03722
3712.01460	0.03689
3710.72883	0.03745
3709.44307	0.03839
3708.15730	0.03891
3706.87153	0.03865
3705.58576	0.03812
3704.29999	0.03792
3703.01422	0.03812
3701.72845	0.03831
3700.44268	0.03812
3699.15691	0.03747
3697.87115	0.03659
3696.58538	0.03577
3695.29961	0.03506
3694.01384	0.03455
3692.72807	0.03483
3691.44230	0.03618
3690.15653	0.03821
3688.87076	0.04015
3687.58500	0.04125
3686.29923	0.04120
3685.01346	0.04039
3683.72769	0.03926
3682.44192	0.03802
3681.15615	0.03703
3679.87038	0.03665
3678.58461	0.03702
3677.29884	0.03809
3676.01308	0.03948
3674.72731	0.04076
3673.44154	0.04161
3672.15577	0.04185
3670.87000	0.04150
3669.58423	0.04067
3668.29846	0.03958
3667.01269	0.03862
3665.72693	0.03803
3664.44116	0.03783
3663.15539	0.03789
3661.86962	0.03822
3660.58385	0.03891
3659.29808	0.03998
3658.01231	0.04115
3656.72654	0.04201
3655.44077	0.04229
3654.15501	0.04189
3652.86924	0.04091
3651.58347	0.03974
3650.29770	0.03908
3649.01193	0.03945
3647.72616	0.04061
3646.44039	0.04163
3645.15462	0.04172
3643.86886	0.04091
3642.58309	0.03987
3641.29732	0.03920
3640.01155	0.03894
3638.72578	0.03866
3637.44001	0.03804
3636.15424	0.03726
3634.86847	0.03682
3633.58270	0.03710
3632.29694	0.03822
3631.01117	0.04000
3629.72540	0.04200
3628.43963	0.04351
3627.15386	0.04397
3625.86809	0.04339
3624.58232	0.04241
3623.29655	0.04166
3622.01079	0.04146
3620.72502	0.04171
3619.43925	0.04211
3618.15348	0.04226
3616.86771	0.04191
3615.58194	0.04124
3614.29617	0.04074
3613.01040	0.04079
3611.72463	0.04138
3610.43887	0.04235
3609.15310	0.04360
3607.86733	0.04496
3606.58156	0.04586
3605.29579	0.04572
3604.01002	0.04451
3602.72425	0.04294
3601.43848	0.04186
3600.15272	0.04160
3598.86695	0.04183
3597.58118	0.04202
3596.29541	0.04197
3595.00964	0.04166
3593.72387	0.04125
3592.43810	0.04108
3591.15233	0.04141
3589.86656	0.04208
3588.58080	0.04269
3587.29503	0.04299
3586.00926	0.04308
3584.72349	0.04330
3583.43772	0.04405
3582.15195	0.04515
3580.86618	0.04606
3579.58041	0.04647
3578.29464	0.04642
3577.00888	0.04607
3575.72311	0.04560
3574.43734	0.04524
3573.15157	0.04529
3571.86580	0.04591
3570.58003	0.04663
3569.29426	0.04679
3568.00849	0.04618
3566.72273	0.04530
3565.43696	0.04478
3564.15119	0.04479
3562.86542	0.04507
3561.57965	0.04531
3560.29388	0.04540
3559.00811	0.04535
3557.72234	0.04523
3556.43657	0.04505
3555.15081	0.04470
3553.86504	0.04408
3552.57927	0.04326
3551.29350	0.04247
3550.00773	0.04203
3548.72196	0.04221
3547.43619	0.04305
3546.15042	0.04431
3544.86466	0.04556
3543.57889	0.04649
3542.29312	0.04704
3541.00735	0.04736
3539.72158	0.04769
3538.43581	0.04807
3537.15004	0.04829
3535.86427	0.04811
3534.57850	0.04766
3533.29274	0.04734
3532.00697	0.04739
3530.72120	0.04773
3529.43543	0.04806
3528.14966	0.04817
3526.86389	0.04798
3525.57812	0.04748
3524.29235	0.04672
3523.00659	0.04587
3521.72082	0.04520
3520.43505	0.04492
3519.14928	0.04510
3517.86351	0.04559
3516.57774	0.04621
3515.29197	0.04679
3514.00620	0.04714
3512.72043	0.04710
3511.43467	0.04663
3510.14890	0.04597
3508.86313	0.04551
3507.57736	0.04543
3506.29159	0.04566
3505.00582	0.04598
3503.72005	0.04629
3502.43428	0.04658
3501.14852	0.04682
3499.86275	0.04693
3498.57698	0.04692
3497.29121	0.04696
3496.00544	0.04717
3494.71967	0.04737
3493.43390	0.04726
3492.14813	0.04679
3490.86236	0.04627
3489.57660	0.04613
3488.29083	0.04657
3487.00506	0.04737
3485.71929	0.04811
3484.43352	0.04858
3483.14775	0.04899
3481.86198	0.04957
3480.57621	0.05023
3479.29045	0.05058
3478.00468	0.05043
3476.71891	0.04992
3475.43314	0.04934
3474.14737	0.04894
3472.86160	0.04879
3471.57583	0.04878
3470.29006	0.04865
3469.00429	0.04830
3467.71853	0.04794
3466.43276	0.04793
3465.14699	0.04834
3463.86122	0.04895
3462.57545	0.04955
3461.28968	0.05012
3460.00391	0.05060
3458.71814	0.05076
3457.43238	0.05043
3456.14661	0.04975
3454.86084	0.04915
3453.57507	0.04899
3452.28930	0.04929
3451.00353	0.04974
3449.71776	0.04996
3448.43199	0.04985
3447.14622	0.04958
3445.86046	0.04939
3444.57469	0.04930
3443.28892	0.04919
3442.00315	0.04898
3440.71738	0.04884
3439.43161	0.04907
3438.14584	0.04981
3436.86007	0.05092
3435.57431	0.05196
3434.28854	0.05256
3433.00277	0.05256
3431.71700	0.05215
3430.43123	0.05164
3429.14546	0.05136
3427.85969	0.05145
3426.57392	0.05182
3425.28815	0.05224
3424.00239	0.05244
3422.71662	0.05225
3421.43085	0.05173
3420.14508	0.05122
3418.85931	0.05110
3417.57354	0.05149
3416.28777	0.05213
3415.00200	0.05259
3413.71624	0.05252
3412.43047	0.05188
3411.14470	0.05092
3409.85893	0.05002
3408.57316	0.04949
3407.28739	0.04952
3406.00162	0.05014
3404.71585	0.05120
3403.43008	0.05231
3402.14432	0.05303
3400.85855	0.05306
3399.57278	0.05248
3398.28701	0.05178
3397.00124	0.05141
3395.71547	0.05150
3394.42970	0.05181
3393.14393	0.05196
3391.85817	0.05167
3390.57240	0.05106
3389.28663	0.05056
3388.00086	0.05058
3386.71509	0.05121
3385.42932	0.05213
3384.14355	0.05291
3382.85778	0.05327
3381.57201	0.05320
3380.28625	0.05285
3379.00048	0.05240
3377.71471	0.05202
3376.42894	0.05182
3375.14317	0.05180
3373.85740	0.05179
3372.57163	0.05153
3371.28586	0.05084
3370.00010	0.04998
3368.71433	0.04945
3367.42856	0.04958
3366.14279	0.05023
3364.85702	0.05095
3363.57125	0.05148
3362.28548	0.05188
3360.99971	0.05229
3359.71394	0.05267
3358.42818	0.05281
3357.14241	0.05266
3355.85664	0.05236
3354.57087	0.05222
3353.28510	0.05237
3351.99933	0.05268
3350.71356	0.05284
3349.42779	0.05266
3348.14202	0.05221
3346.85626	0.05164
3345.57049	0.05111
3344.28472	0.05077
3342.99895	0.05074
3341.71318	0.05105
3340.42741	0.05157
3339.14164	0.05205
3337.85587	0.05232
3336.57011	0.05237
3335.28434	0.05224
3333.99857	0.05193
3332.71280	0.05144
3331.42703	0.05089
3330.14126	0.05044
3328.85549	0.05027
3327.56972	0.05036
3326.28395	0.05054
3324.99819	0.05065
3323.71242	0.05069
3322.42665	0.05080
3321.14088	0.05106
3319.85511	0.05130
3318.56934	0.05129
3317.28357	0.05099
3315.99780	0.05062
3314.71204	0.05043
3313.42627	0.05048
3312.14050	0.05073
3310.85473	0.05110
3309.56896	0.05151
3308.28319	0.05187
3306.99742	0.05209
3305.71165	0.05208
3304.42588	0.05171
3303.14012	0.05096
3301.85435	0.05021
3300.56858	0.04997
3299.28281	0.05045
3297.99704	0.05126
3296.71127	0.05184
3295.42550	0.05192
3294.13973	0.05164
3292.85397	0.05132
3291.56820	0.05120
3290.28243	0.05138
3288.99666	0.05179
3287.71089	0.05227
3286.42512	0.05262
3285.13935	0.05273
3283.85358	0.05255
3282.56781	0.05217
3281.28205	0.05169
3279.99628	0.05130
3278.71051	0.05110
3277.42474	0.05107
3276.13897	0.05114
3274.85320	0.05123
3273.56743	0.05131
3272.28166	0.05138
3270.99590	0.05137
3269.71013	0.05122
3268.42436	0.05091
3267.13859	0.05051
3265.85282	0.05018
3264.56705	0.05006
3263.28128	0.05000
3261.99551	0.04975
3260.70974	0.04922
3259.42398	0.04868
3258.13821	0.04847
3256.85244	0.04870
3255.56667	0.04916
3254.28090	0.04955
3252.99513	0.04966
3251.70936	0.04953
3250.42359	0.04936
3249.13783	0.04937
3247.85206	0.04953
3246.56629	0.04962
3245.28052	0.04948
3243.99475	0.04922
3242.70898	0.04909
3241.42321	0.04918
3240.13744	0.04930
3238.85167	0.04915
3237.56591	0.04870
3236.28014	0.04822
3234.99437	0.04803
3233.70860	0.04823
3232.42283	0.04861
3231.13706	0.04886
3229.85129	0.04882
3228.56552	0.04861
3227.27976	0.04855
3225.99399	0.04881
3224.70822	0.04921
3223.42245	0.04949
3222.13668	0.04963
3220.85091	0.04973
3219.56514	0.04979
3218.27937	0.04966
3216.99360	0.04924
3215.70784	0.04865
3214.42207	0.04818
3213.13630	0.04798
3211.85053	0.04805
3210.56476	0.04821
3209.27899	0.04832
3207.99322	0.04827
3206.70745	0.04805
3205.42169	0.04768
3204.13592	0.04723
3202.85015	0.04685
3201.56438	0.04673
3200.27861	0.04692
3198.99284	0.04729
3197.70707	0.04757
3196.42130	0.04762
3195.13553	0.04746
3193.84977	0.04721
3192.56400	0.04691
3191.27823	0.04657
3189.99246	0.04627
3188.70669	0.04612
3187.42092	0.04612
3186.13515	0.04617
3184.84938	0.04619
3183.56362	0.04620
3182.27785	0.04628
3180.99208	0.04641
3179.70631	0.04647
3178.42054	0.04638
3177.13477	0.04620
3175.84900	0.04606
3174.56323	0.04608
3173.27746	0.04621
3171.99170	0.04638
3170.70593	0.04652
3169.42016	0.04662
3168.13439	0.04669
3166.84862	0.04666
3165.56285	0.04642
3164.27708	0.04591
3162.99131	0.04521
3161.70555	0.04456
3160.41978	0.04421
3159.13401	0.04428
3157.84824	0.04465
3156.56247	0.04506
3155.27670	0.04530
3153.99093	0.04535
3152.70516	0.04533
3151.41939	0.04533
3150.13363	0.04536
3148.84786	0.04533
3147.56209	0.04514
3146.27632	0.04486
3144.99055	0.04462
3143.70478	0.04450
3142.41901	0.04441
3141.13324	0.04424
3139.84748	0.04404
3138.56171	0.04395
3137.27594	0.04402
3135.99017	0.04411
3134.70440	0.04410
3133.41863	0.04401
3132.13286	0.04399
3130.84709	0.04403
3129.56132	0.04397
3128.27556	0.04366
3126.98979	0.04315
3125.70402	0.04272
3124.41825	0.04265
3123.13248	0.04296
3121.84671	0.04343
3120.56094	0.04372
3119.27517	0.04361
3117.98940	0.04316
3116.70364	0.04266
3115.41787	0.04241
3114.13210	0.04255
3112.84633	0.04300
3111.56056	0.04345
3110.27479	0.04357
3108.98902	0.04331
3107.70325	0.04292
3106.41749	0.04270
3105.13172	0.04280
3103.84595	0.04308
3102.56018	0.04335
3101.27441	0.04340
3099.98864	0.04313
3098.70287	0.04261
3097.41710	0.04211
3096.13133	0.04187
3094.84557	0.04192
3093.55980	0.04207
3092.27403	0.04209
3090.98826	0.04195
3089.70249	0.04178
3088.41672	0.04173
3087.13095	0.04182
3085.84518	0.04195
3084.55942	0.04202
3083.27365	0.04201
3081.98788	0.04196
3080.70211	0.04188
3079.41634	0.04174
3078.13057	0.04159
3076.84480	0.04152
3075.55903	0.04161
3074.27326	0.04184
3072.98750	0.04213
3071.70173	0.04240
3070.41596	0.04255
3069.13019	0.04251
3067.84442	0.04221
3066.55865	0.04168
3065.27288	0.04107
3063.98711	0.04062
3062.70135	0.04050
3061.41558	0.04065
3060.12981	0.04087
3058.84404	0.04100
3057.55827	0.04096
3056.27250	0.04076
3054.98673	0.04042
3053.70096	0.04006
3052.41519	0.03983
3051.12943	0.03981
3049.84366	0.03997
3048.55789	0.04019
3047.27212	0.04045
3045.98635	0.04078
3044.70058	0.04115
3043.41481	0.04135
3042.12904	0.04122
3040.84328	0.04082
3039.55751	0.04050
3038.27174	0.04051
3036.98597	0.04080
3035.70020	0.04112
3034.41443	0.04129
3033.12866	0.04123
3031.84289	0.04096
3030.55712	0.04053
3029.27136	0.04005
3027.98559	0.03973
3026.69982	0.03972
3025.41405	0.03996
3024.12828	0.04024
3022.84251	0.04030
3021.55674	0.04004
3020.27097	0.03952
3018.98521	0.03894
3017.69944	0.03855
3016.41367	0.03846
3015.12790	0.03861
3013.84213	0.03881
3012.55636	0.03898
3011.27059	0.03917
3009.98482	0.03941
3008.69905	0.03963
3007.41329	0.03970
3006.12752	0.03957
3004.84175	0.03931
3003.55598	0.03906
3002.27021	0.03895
3000.98444	0.03900
2999.69867	0.03911
2998.41290	0.03914
2997.12714	0.03892
2995.84137	0.03848
2994.55560	0.03799
2993.26983	0.03762
2991.98406	0.03745
2990.69829	0.03753
2989.41252	0.03787
2988.12675	0.03837
2986.84098	0.03876
2985.55522	0.03890
2984.26945	0.03888
2982.98368	0.03891
2981.69791	0.03900
2980.41214	0.03909
2979.12637	0.03918
2977.84060	0.03937
2976.55483	0.03964
2975.26907	0.03981
2973.98330	0.03968
2972.69753	0.03940
2971.41176	0.03936
2970.12599	0.03981
2968.84022	0.04061
2967.55445	0.04135
2966.26868	0.04178
2964.98291	0.04191
2963.69715	0.04191
2962.41138	0.04192
2961.12561	0.04197
2959.83984	0.04207
2958.55407	0.04228
2957.26830	0.04266
2955.98253	0.04322
2954.69676	0.04377
2953.41100	0.04405
2952.12523	0.04403
2950.83946	0.04393
2949.55369	0.04394
2948.26792	0.04406
2946.98215	0.04418
2945.69638	0.04426
2944.41061	0.04427
2943.12484	0.04419
2941.83908	0.04407
2940.55331	0.04398
2939.26754	0.04395
2937.98177	0.04390
2936.69600	0.04379
2935.41023	0.04374
2934.12446	0.04395
2932.83869	0.04442
2931.55293	0.04494
2930.26716	0.04530
2928.98139	0.04549
2927.69562	0.04567
2926.40985	0.04589
2925.12408	0.04605
2923.83831	0.04600
2922.55254	0.04566
2921.26677	0.04515
2919.98101	0.04477
2918.69524	0.04477
2917.40947	0.04508
2916.12370	0.04537
2914.83793	0.04540
2913.55216	0.04520
2912.26639	0.04483
2910.98062	0.04428
2909.69486	0.04357
2908.40909	0.04291
2907.12332	0.04247
2905.83755	0.04227
2904.55178	0.04218
2903.26601	0.04209
2901.98024	0.04196
2900.69447	0.04180
2899.40870	0.04164
2898.12294	0.04148
2896.83717	0.04126
2895.55140	0.04086
2894.26563	0.04029
2892.97986	0.03966
2891.69409	0.03917
2890.40832	0.03893
2889.12255	0.03895
2887.83678	0.03910
2886.55102	0.03922
2885.26525	0.03930
2883.97948	0.03942
2882.69371	0.03962
2881.40794	0.03974
2880.12217	0.03963
2878.83640	0.03937
2877.55063	0.03920
2876.26487	0.03925
2874.97910	0.03942
2873.69333	0.03954
2872.40756	0.03957
2871.12179	0.03957
2869.83602	0.03963
2868.55025	0.03972
2867.26448	0.03977
2865.97871	0.03974
2864.69295	0.03966
2863.40718	0.03963
2862.12141	0.03969
2860.83564	0.03981
2859.54987	0.03995
2858.26410	0.04009
2856.97833	0.04020
2855.69256	0.04027
2854.40680	0.04031
2853.12103	0.04030
2851.83526	0.04020
2850.54949	0.03996
2849.26372	0.03960
2847.97795	0.03927
2846.69218	0.03904
2845.40641	0.03882
2844.12064	0.03853
2842.83488	0.03820
2841.54911	0.03788
2840.26334	0.03749
2838.97757	0.03692
2837.69180	0.03625
2836.40603	0.03576
2835.12026	0.03563
2833.83449	0.03578
2832.54873	0.03593
2831.26296	0.03589
2829.97719	0.03564
2828.69142	0.03531
2827.40565	0.03501
2826.11988	0.03477
2824.83411	0.03464
2823.54834	0.03466
2822.26257	0.03484
2820.97681	0.03511
2819.69104	0.03539
2818.40527	0.03559
2817.11950	0.03562
2815.83373	0.03539
2814.54796	0.03493
2813.26219	0.03438
2811.97642	0.03391
2810.69066	0.03363
2809.40489	0.03358
2808.11912	0.03366
2806.83335	0.03371
2805.54758	0.03370
2804.26181	0.03370
2802.97604	0.03374
2801.69027	0.03377
2800.40450	0.03376
2799.11874	0.03375
2797.83297	0.03372
2796.54720	0.03366
2795.26143	0.03357
2793.97566	0.03346
2792.68989	0.03333
2791.40412	0.03312
2790.11835	0.03282
2788.83259	0.03251
2787.54682	0.03231
2786.26105	0.03229
2784.97528	0.03242
2783.68951	0.03256
2782.40374	0.03261
2781.11797	0.03256
2779.83220	0.03244
2778.54643	0.03235
2777.26067	0.03238
2775.97490	0.03248
2774.68913	0.03253
2773.40336	0.03247
2772.11759	0.03234
2770.83182	0.03225
2769.54605	0.03222
2768.26028	0.03215
2766.97452	0.03196
2765.68875	0.03164
2764.40298	0.03134
2763.11721	0.03119
2761.83144	0.03128
2760.54567	0.03154
2759.25990	0.03178
2757.97413	0.03186
2756.68836	0.03175
2755.40260	0.03157
2754.11683	0.03147
2752.83106	0.03150
2751.54529	0.03157
2750.25952	0.03160
2748.97375	0.03156
2747.68798	0.03145
2746.40221	0.03127
2745.11645	0.03109
2743.83068	0.03098
2742.54491	0.03092
2741.25914	0.03089
2739.97337	0.03092
2738.68760	0.03102
2737.40183	0.03112
2736.11606	0.03115
2734.83029	0.03112
2733.54453	0.03108
2732.25876	0.03107
2730.97299	0.03112
2729.68722	0.03121
2728.40145	0.03127
2727.11568	0.03122
2725.82991	0.03106
2724.54414	0.03087
2723.25838	0.03073
2721.97261	0.03063
2720.68684	0.03047
2719.40107	0.03021
2718.11530	0.02997
2716.82953	0.02990
2715.54376	0.03006
2714.25799	0.03029
2712.97222	0.03040
2711.68646	0.03027
2710.40069	0.03002
2709.11492	0.02980
2707.82915	0.02971
2706.54338	0.02971
2705.25761	0.02971
2703.97184	0.02971
2702.68607	0.02973
2701.40031	0.02974
2700.11454	0.02966
2698.82877	0.02951
2697.54300	0.02938
2696.25723	0.02935
2694.97146	0.02941
2693.68569	0.02949
2692.39992	0.02953
2691.11415	0.02949
2689.82839	0.02944
2688.54262	0.02943
2687.25685	0.02946
2685.97108	0.02944
2684.68531	0.02937
2683.39954	0.02928
2682.11377	0.02919
2680.82800	0.02907
2679.54224	0.02895
2678.25647	0.02887
2676.97070	0.02887
2675.68493	0.02893
2674.39916	0.02901
2673.11339	0.02904
2671.82762	0.02904
2670.54185	0.02907
2669.25608	0.02921
2667.97032	0.02942
2666.68455	0.02956
2665.39878	0.02950
2664.11301	0.02925
2662.82724	0.02889
2661.54147	0.02860
2660.25570	0.02847
2658.96993	0.02848
2657.68417	0.02845
2656.39840	0.02823
2655.11263	0.02788
2653.82686	0.02760
2652.54109	0.02753
2651.25532	0.02765
2649.96955	0.02779
2648.68378	0.02782
2647.39801	0.02773
2646.11225	0.02755
2644.82648	0.02731
2643.54071	0.02707
2642.25494	0.02691
2640.96917	0.02685
2639.68340	0.02682
2638.39763	0.02672
2637.11186	0.02663
2635.82609	0.02660
2634.54033	0.02657
2633.25456	0.02640
2631.96879	0.02615
2630.68302	0.02605
2629.39725	0.02623
2628.11148	0.02653
2626.82571	0.02665
2625.53994	0.02637
2624.25418	0.02576
2622.96841	0.02511
2621.68264	0.02478
2620.39687	0.02491
2619.11110	0.02526
2617.82533	0.02551
2616.53956	0.02553
2615.25379	0.02548
2613.96802	0.02548
2612.68226	0.02549
2611.39649	0.02538
2610.11072	0.02508
2608.82495	0.02468
2607.53918	0.02437
2606.25341	0.02429
2604.96764	0.02442
2603.68187	0.02468
2602.39611	0.02493
2601.11034	0.02504
2599.82457	0.02500
2598.53880	0.02490
2597.25303	0.02488
2595.96726	0.02495
2594.68149	0.02502
2593.39572	0.02503
2592.10995	0.02507
2590.82419	0.02519
2589.53842	0.02527
2588.25265	0.02509
2586.96688	0.02464
2585.68111	0.02419
2584.39534	0.02406
2583.10957	0.02426
2581.82380	0.02453
2580.53804	0.02462
2579.25227	0.02454
2577.96650	0.02442
2576.68073	0.02425
2575.39496	0.02389
2574.10919	0.02334
2572.82342	0.02286
2571.53765	0.02271
2570.25188	0.02291
2568.96612	0.02328
2567.68035	0.02368
2566.39458	0.02407
2565.10881	0.02446
2563.82304	0.02481
2562.53727	0.02508
2561.25150	0.02517
2559.96573	0.02501
2558.67997	0.02461
2557.39420	0.02411
2556.10843	0.02370
2554.82266	0.02355
2553.53689	0.02364
2552.25112	0.02379
2550.96535	0.02386
2549.67958	0.02383
2548.39381	0.02375
2547.10805	0.02362
2545.82228	0.02347
2544.53651	0.02339
2543.25074	0.02344
2541.96497	0.02354
2540.67920	0.02354
2539.39343	0.02336
2538.10766	0.02306
2536.82190	0.02279
2535.53613	0.02266
2534.25036	0.02265
2532.96459	0.02263
2531.67882	0.02253
2530.39305	0.02241
2529.10728	0.02230
2527.82151	0.02216
2526.53574	0.02203
2525.24998	0.02198
2523.96421	0.02201
2522.67844	0.02195
2521.39267	0.02175
2520.10690	0.02159
2518.82113	0.02176
2517.53536	0.02228
2516.24959	0.02278
2514.96383	0.02288
2513.67806	0.02261
2512.39229	0.02234
2511.10652	0.02230
2509.82075	0.02241
2508.53498	0.02247
2507.24921	0.02240
2505.96344	0.02223
2504.67767	0.02208
2503.39191	0.02208
2502.10614	0.02217
2500.82037	0.02215
2499.53460	0.02189
2498.24883	0.02154
2496.96306	0.02136
2495.67729	0.02135
2494.39152	0.02131
2493.10576	0.02108
2491.81999	0.02078
2490.53422	0.02060
2489.24845	0.02062
2487.96268	0.02087
2486.67691	0.02130
2485.39114	0.02175
2484.10537	0.02203
2482.81960	0.02212
2481.53384	0.02219
2480.24807	0.02229
2478.96230	0.02231
2477.67653	0.02222
2476.39076	0.02214
2475.10499	0.02226
2473.81922	0.02254
2472.53345	0.02276
2471.24769	0.02273
2469.96192	0.02244
2468.67615	0.02212
2467.39038	0.02200
2466.10461	0.02209
2464.81884	0.02221
2463.53307	0.02225
2462.24730	0.02227
2460.96153	0.02229
2459.67577	0.02230
2458.39000	0.02228
2457.10423	0.02222
2455.81846	0.02207
2454.53269	0.02177
2453.24692	0.02139
2451.96115	0.02103
2450.67538	0.02071
2449.38962	0.02038
2448.10385	0.02011
2446.81808	0.02004
2445.53231	0.02018
2444.24654	0.02038
2442.96077	0.02049
2441.67500	0.02046
2440.38923	0.02037
2439.10346	0.02033
2437.81770	0.02033
2436.53193	0.02032
2435.24616	0.02019
2433.96039	0.02001
2432.67462	0.01991
2431.38885	0.01989
2430.10308	0.01981
2428.81731	0.01960
2427.53155	0.01944
2426.24578	0.01954
2424.96001	0.01990
2423.67424	0.02032
2422.38847	0.02066
2421.10270	0.02092
2419.81693	0.02110
2418.53116	0.02118
2417.24539	0.02120
2415.95963	0.02117
2414.67386	0.02105
2413.38809	0.02074
2412.10232	0.02029
2410.81655	0.01988
2409.53078	0.01970
2408.24501	0.01979
2406.95924	0.02001
2405.67347	0.02019
2404.38771	0.02023
2403.10194	0.02016
2401.81617	0.02012
2400.53040	0.02015
2399.24463	0.02022
2397.95886	0.02023
2396.67309	0.02026
2395.38732	0.02038
2394.10156	0.02056
2392.81579	0.02071
2391.53002	0.02079
2390.24425	0.02080
2388.95848	0.02078
2387.67271	0.02078
2386.38694	0.02083
2385.10117	0.02089
2383.81540	0.02088
2382.52964	0.02076
2381.24387	0.02053
2379.95810	0.02022
2378.67233	0.01984
2377.38656	0.01939
2376.10079	0.01885
2374.81502	0.01818
2373.52925	0.01769
2372.24349	0.01738
2370.95772	0.01754
2369.67195	0.01754
2368.38618	0.01736
2367.10041	0.01722
2365.81464	0.01747
2364.52887	0.01740
2363.24310	0.01725
2361.95733	0.01725
2360.67157	0.01764
2359.38580	0.01755
2358.10003	0.01747
2356.81426	0.01767
2355.52849	0.01801
2354.24272	0.01842
2352.95695	0.01851
2351.67118	0.01881
2350.38542	0.01945
2349.09965	0.01939
2347.81388	0.01808
2346.52811	0.01733
2345.24234	0.01761
2343.95657	0.01785
2342.67080	0.01709
2341.38503	0.01694
2340.09926	0.01792
2338.81350	0.01795
2337.52773	0.01689
2336.24196	0.01711
2334.95619	0.01836
2333.67042	0.01823
2332.38465	0.01667
2331.09888	0.01763
2329.81311	0.01894
2328.52735	0.01727
2327.24158	0.01767
2325.95581	0.01903
2324.67004	0.01746
2323.38427	0.01688
2322.09850	0.01809
2320.81273	0.01712
2319.52696	0.01758
2318.24119	0.01890
2316.95543	0.01841
2315.66966	0.01875
2314.38389	0.01917
2313.09812	0.01856
2311.81235	0.01878
2310.52658	0.01869
2309.24081	0.01881
2307.95504	0.01951
2306.66928	0.01956
2305.38351	0.01972
2304.09774	0.01971
2302.81197	0.01953
2301.52620	0.01960
2300.24043	0.01949
2298.95466	0.01938
2297.66889	0.01906
2296.38312	0.01853
2295.09736	0.01793
2293.81159	0.01727
2292.52582	0.01684
2291.24005	0.01665
2289.95428	0.01673
2288.66851	0.01691
2287.38274	0.01702
2286.09697	0.01705
2284.81121	0.01711
2283.52544	0.01736
2282.23967	0.01781
2280.95390	0.01832
2279.66813	0.01871
2278.38236	0.01882
2277.09659	0.01853
2275.81082	0.01782
2274.52505	0.01695
2273.23929	0.01629
2271.95352	0.01606
2270.66775	0.01619
2269.38198	0.01646
2268.09621	0.01678
2266.81044	0.01712
2265.52467	0.01728
2264.23890	0.01700
2262.95314	0.01632
2261.66737	0.01565
2260.38160	0.01533
2259.09583	0.01538
2257.81006	0.01557
2256.52429	0.01565
2255.23852	0.01550
2253.95275	0.01521
2252.66698	0.01481
2251.38122	0.01428
2250.09545	0.01387
2248.80968	0.01389
2247.52391	0.01432
2246.23814	0.01490
2244.95237	0.01527
2243.66660	0.01525
2242.38083	0.01492
2241.09507	0.01454
2239.80930	0.01435
2238.52353	0.01452
2237.23776	0.01500
2235.95199	0.01555
2234.66622	0.01579
2233.38045	0.01545
2232.09468	0.01459
2230.80891	0.01360
2229.52315	0.01293
2228.23738	0.01283
2226.95161	0.01324
2225.66584	0.01390
2224.38007	0.01445
2223.09430	0.01468
2221.80853	0.01453
2220.52276	0.01408
2219.23700	0.01342
2217.95123	0.01277
2216.66546	0.01232
2215.37969	0.01202
2214.09392	0.01165
2212.80815	0.01137
2211.52238	0.01163
2210.23661	0.01256
2208.95084	0.01344
2207.66508	0.01337
2206.37931	0.01226
2205.09354	0.01100
2203.80777	0.01045
2202.52200	0.01073
2201.23623	0.01139
2199.95046	0.01215
2198.66469	0.01305
2197.37893	0.01414
2196.09316	0.01520
2194.80739	0.01582
2193.52162	0.01580
2192.23585	0.01531
2190.95008	0.01466
2189.66431	0.01411
2188.37854	0.01375
2187.09277	0.01361
2185.80701	0.01373
2184.52124	0.01402
2183.23547	0.01426
2181.94970	0.01428
2180.66393	0.01404
2179.37816	0.01362
2178.09239	0.01300
2176.80662	0.01216
2175.52085	0.01139
2174.23509	0.01122
2172.94932	0.01195
2171.66355	0.01311
2170.37778	0.01383
2169.09201	0.01353
2167.80624	0.01230
2166.52047	0.01073
2165.23470	0.00944
2163.94894	0.00868
2162.66317	0.00816
2161.37740	0.00756
2160.09163	0.00712
2158.80586	0.00739
2157.52009	0.00819
2156.23432	0.00875
2154.94855	0.00874
2153.66278	0.00866
2152.37702	0.00893
2151.09125	0.00929
2149.80548	0.00936
2148.51971	0.00935
2147.23394	0.00993
2145.94817	0.01133
2144.66240	0.01295
2143.37663	0.01387
2142.09087	0.01380
2140.80510	0.01329
2139.51933	0.01308
2138.23356	0.01344
2136.94779	0.01409
2135.66202	0.01464
2134.37625	0.01490
2133.09048	0.01492
2131.80471	0.01488
2130.51895	0.01495
2129.23318	0.01507
2127.94741	0.01498
2126.66164	0.01450
2125.37587	0.01387
2124.09010	0.01353
2122.80433	0.01367
2121.51856	0.01398
2120.23280	0.01406
2118.94703	0.01379
2117.66126	0.01340
2116.37549	0.01314
2115.08972	0.01305
2113.80395	0.01295
2112.51818	0.01273
2111.23241	0.01251
2109.94664	0.01244
2108.66088	0.01251
2107.37511	0.01257
2106.08934	0.01264
2104.80357	0.01285
2103.51780	0.01322
2102.23203	0.01351
2100.94626	0.01343
2099.66049	0.01266
2098.37473	0.01193
2097.08896	0.01165
2095.80319	0.01196
2094.51742	0.01267
2093.23165	0.01324
2091.94588	0.01328
2090.66011	0.01291
2089.37434	0.01263
2088.08857	0.01269
2086.80281	0.01282
2085.51704	0.01263
2084.23127	0.01215
2082.94550	0.01170
2081.65973	0.01152
2080.37396	0.01149
2079.08819	0.01136
2077.80242	0.01105
2076.51666	0.01062
2075.23089	0.01021
2073.94512	0.00992
2072.65935	0.00974
2071.37358	0.00964
2070.08781	0.00966
2068.80204	0.00987
2067.51627	0.01026
2066.23050	0.01059
2064.94474	0.01067
2063.65897	0.01055
2062.37320	0.01056
2061.08743	0.01091
2059.80166	0.01138
2058.51589	0.01140
2057.23012	0.01063
2055.94435	0.00939
2054.65859	0.00842
2053.37282	0.00834
2052.08705	0.00904
2050.80128	0.00976
2049.51551	0.00967
2048.22974	0.00864
2046.94397	0.00737
2045.65820	0.00679
2044.37243	0.00715
2043.08667	0.00798
2041.80090	0.00860
2040.51513	0.00869
2039.22936	0.00831
2037.94359	0.00777
2036.65782	0.00745
2035.37205	0.00757
2034.08628	0.00812
2032.80052	0.00880
2031.51475	0.00935
2030.22898	0.00955
2028.94321	0.00930
2027.65744	0.00859
2026.37167	0.00760
2025.08590	0.00669
2023.80013	0.00617
2022.51436	0.00610
2021.22860	0.00628
2019.94283	0.00633
2018.65706	0.00603
2017.37129	0.00545
2016.08552	0.00502
2014.79975	0.00513
2013.51398	0.00582
2012.22821	0.00680
2010.94245	0.00783
2009.65668	0.00878
2008.37091	0.00947
2007.08514	0.00968
2005.79937	0.00946
2004.51360	0.00919
2003.22783	0.00915
2001.94206	0.00923
2000.65629	0.00919
1999.37053	0.00899
1998.08476	0.00882
1996.79899	0.00893
1995.51322	0.00947
1994.22745	0.01027
1992.94168	0.01090
1991.65591	0.01091
1990.37014	0.01033
1989.08438	0.00958
1987.79861	0.00911
1986.51284	0.00907
1985.22707	0.00937
1983.94130	0.00978
1982.65553	0.01001
1981.36976	0.00983
1980.08399	0.00934
1978.79822	0.00895
1977.51246	0.00895
1976.22669	0.00926
1974.94092	0.00958
1973.65515	0.00985
1972.36938	0.01026
1971.08361	0.01082
1969.79784	0.01121
1968.51207	0.01108
1967.22631	0.01045
1965.94054	0.00961
1964.65477	0.00886
1963.36900	0.00838
1962.08323	0.00827
1960.79746	0.00846
1959.51169	0.00863
1958.22592	0.00849
1956.94015	0.00808
1955.65439	0.00775
1954.36862	0.00798
1953.08285	0.00894
1951.79708	0.01031
1950.51131	0.01147
1949.22554	0.01206
1947.93977	0.01225
1946.65400	0.01249
1945.36823	0.01293
1944.08247	0.01331
1942.79670	0.01321
1941.51093	0.01255
1940.22516	0.01161
1938.93939	0.01095
1937.65362	0.01096
1936.36785	0.01164
1935.08208	0.01259
1933.79632	0.01329
1932.51055	0.01347
1931.22478	0.01322
1929.93901	0.01290
1928.65324	0.01272
1927.36747	0.01258
1926.08170	0.01220
1924.79593	0.01153
1923.51016	0.01082
1922.22440	0.01048
1920.93863	0.01062
1919.65286	0.01101
1918.36709	0.01131
1917.08132	0.01134
1915.79555	0.01121
1914.50978	0.01118
1913.22401	0.01140
1911.93825	0.01177
1910.65248	0.01198
1909.36671	0.01179
1908.08094	0.01136
1906.79517	0.01108
1905.50940	0.01119
1904.22363	0.01148
1902.93786	0.01158
1901.65209	0.01140
1900.36633	0.01118
1899.08056	0.01111
1897.79479	0.01117
1896.50902	0.01122
1895.22325	0.01122
1893.93748	0.01120
1892.65171	0.01117
1891.36594	0.01107
1890.08018	0.01094
1888.79441	0.01095
1887.50864	0.01120
1886.22287	0.01158
1884.93710	0.01184
1883.65133	0.01182
1882.36556	0.01163
1881.07979	0.01147
1879.79402	0.01153
1878.50826	0.01178
1877.22249	0.01210
1875.93672	0.01238
1874.65095	0.01256
1873.36518	0.01263
1872.07941	0.01262
1870.79364	0.01251
1869.50787	0.01230
1868.22211	0.01206
1866.93634	0.01190
1865.65057	0.01181
1864.36480	0.01169
1863.07903	0.01147
1861.79326	0.01123
1860.50749	0.01117
1859.22172	0.01138
1857.93595	0.01179
1856.65019	0.01213
1855.36442	0.01222
1854.07865	0.01204
1852.79288	0.01173
1851.50711	0.01147
1850.22134	0.01131
1848.93557	0.01122
1847.64980	0.01116
1846.36404	0.01114
1845.07827	0.01118
1843.79250	0.01129
1842.50673	0.01147
1841.22096	0.01163
1839.93519	0.01169
1838.64942	0.01161
1837.36365	0.01146
1836.07788	0.01135
1834.79212	0.01132
1833.50635	0.01131
1832.22058	0.01127
1830.93481	0.01121
1829.64904	0.01118
1828.36327	0.01120
1827.07750	0.01120
1825.79173	0.01115
1824.50597	0.01112
1823.22020	0.01119
1821.93443	0.01138
1820.64866	0.01162
1819.36289	0.01186
1818.07712	0.01210
1816.79135	0.01232
1815.50558	0.01246
1814.21981	0.01252
1812.93405	0.01255
1811.64828	0.01256
1810.36251	0.01255
1809.07674	0.01250
1807.79097	0.01245
1806.50520	0.01243
1805.21943	0.01239
1803.93366	0.01227
1802.64790	0.01209
1801.36213	0.01196
1800.07636	0.01197
1798.79059	0.01211
1797.50482	0.01229
1796.21905	0.01239
1794.93328	0.01235
1793.64751	0.01217
1792.36174	0.01195
1791.07598	0.01180
1789.79021	0.01176
1788.50444	0.01178
1787.21867	0.01176
1785.93290	0.01170
1784.64713	0.01162
1783.36136	0.01161
1782.07559	0.01173
1780.78983	0.01198
1779.50406	0.01226
1778.21829	0.01243
1776.93252	0.01238
1775.64675	0.01219
1774.36098	0.01201
1773.07521	0.01199
1771.78944	0.01212
1770.50367	0.01230
1769.21791	0.01242
1767.93214	0.01245
1766.64637	0.01240
1765.36060	0.01231
1764.07483	0.01219
1762.78906	0.01207
1761.50329	0.01200
1760.21752	0.01199
1758.93176	0.01204
1757.64599	0.01214
1756.36022	0.01227
1755.07445	0.01237
1753.78868	0.01241
1752.50291	0.01239
1751.21714	0.01237
1749.93137	0.01239
1748.64560	0.01247
1747.35984	0.01256
1746.07407	0.01259
1744.78830	0.01255
1743.50253	0.01248
1742.21676	0.01246
1740.93099	0.01254
1739.64522	0.01265
1738.35945	0.01271
1737.07369	0.01269
1735.78792	0.01264
1734.50215	0.01268
1733.21638	0.01282
1731.93061	0.01301
1730.64484	0.01317
1729.35907	0.01325
1728.07330	0.01327
1726.78753	0.01330
1725.50177	0.01339
1724.21600	0.01356
1722.93023	0.01372
1721.64446	0.01378
1720.35869	0.01375
1719.07292	0.01373
1717.78715	0.01384
1716.50138	0.01411
1715.21561	0.01444
1713.92985	0.01470
1712.64408	0.01485
1711.35831	0.01492
1710.07254	0.01497
1708.78677	0.01506
1707.50100	0.01522
1706.21523	0.01543
1704.92946	0.01566
1703.64370	0.01586
1702.35793	0.01606
1701.07216	0.01631
1699.78639	0.01663
1698.50062	0.01703
1697.21485	0.01748
1695.92908	0.01792
1694.64331	0.01830
1693.35754	0.01855
1692.07178	0.01874
1690.78601	0.01896
1689.50024	0.01927
1688.21447	0.01963
1686.92870	0.01996
1685.64293	0.02029
1684.35716	0.02064
1683.07139	0.02099
1681.78563	0.02131
1680.49986	0.02155
1679.21409	0.02174
1677.92832	0.02193
1676.64255	0.02217
1675.35678	0.02246
1674.07101	0.02279
1672.78524	0.02310
1671.49947	0.02341
1670.21371	0.02378
1668.92794	0.02421
1667.64217	0.02462
1666.35640	0.02493
1665.07063	0.02513
1663.78486	0.02531
1662.49909	0.02556
1661.21332	0.02587
1659.92756	0.02619
1658.64179	0.02645
1657.35602	0.02662
1656.07025	0.02673
1654.78448	0.02686
1653.49871	0.02709
1652.21294	0.02738
1650.92717	0.02762
1649.64140	0.02776
1648.35564	0.02784
1647.06987	0.02795
1645.78410	0.02812
1644.49833	0.02827
1643.21256	0.02832
1641.92679	0.02825
1640.64102	0.02809
1639.35525	0.02791
1638.06949	0.02777
1636.78372	0.02772
1635.49795	0.02771
1634.21218	0.02770
1632.92641	0.02765
1631.64064	0.02756
1630.35487	0.02742
1629.06910	0.02722
1627.78333	0.02697
1626.49757	0.02671
1625.21180	0.02650
1623.92603	0.02636
1622.64026	0.02627
1621.35449	0.02617
1620.06872	0.02605
1618.78295	0.02592
1617.49718	0.02579
1616.21142	0.02568
1614.92565	0.02556
1613.63988	0.02542
1612.35411	0.02526
1611.06834	0.02511
1609.78257	0.02498
1608.49680	0.02488
1607.21103	0.02482
1605.92526	0.02478
1604.63950	0.02472
1603.35373	0.02464
1602.06796	0.02457
1600.78219	0.02453
1599.49642	0.02450
1598.21065	0.02448
1596.92488	0.02446
1595.63911	0.02446
1594.35335	0.02449
1593.06758	0.02453
1591.78181	0.02457
1590.49604	0.02463
1589.21027	0.02472
1587.92450	0.02486
1586.63873	0.02499
1585.35296	0.02510
1584.06719	0.02518
1582.78143	0.02525
1581.49566	0.02533
1580.20989	0.02540
1578.92412	0.02546
1577.63835	0.02554
1576.35258	0.02569
1575.06681	0.02588
1573.78104	0.02605
1572.49528	0.02618
1571.20951	0.02631
1569.92374	0.02648
1568.63797	0.02672
1567.35220	0.02699
1566.06643	0.02721
1564.78066	0.02736
1563.49489	0.02741
1562.20912	0.02740
1560.92336	0.02743
1559.63759	0.02755
1558.35182	0.02775
1557.06605	0.02792
1555.78028	0.02800
1554.49451	0.02801
1553.20874	0.02802
1551.92297	0.02808
1550.63721	0.02817
1549.35144	0.02824
1548.06567	0.02828
1546.77990	0.02825
1545.49413	0.02818
1544.20836	0.02806
1542.92259	0.02792
1541.63682	0.02782
1540.35105	0.02780
1539.06529	0.02784
1537.77952	0.02785
1536.49375	0.02778
1535.20798	0.02770
1533.92221	0.02767
1532.63644	0.02768
1531.35067	0.02767
1530.06490	0.02762
1528.77914	0.02756
1527.49337	0.02756
1526.20760	0.02760
1524.92183	0.02767
1523.63606	0.02778
1522.35029	0.02795
1521.06452	0.02820
1519.77875	0.02849
1518.49298	0.02876
1517.20722	0.02898
1515.92145	0.02916
1514.63568	0.02935
1513.34991	0.02956
1512.06414	0.02979
1510.77837	0.03001
1509.49260	0.03024
1508.20683	0.03055
1506.92107	0.03097
1505.63530	0.03146
1504.34953	0.03192
1503.06376	0.03230
1501.77799	0.03259
1500.49222	0.03278
1499.20645	0.03292
1497.92068	0.03302
1496.63491	0.03314
1495.34915	0.03328
1494.06338	0.03344
1492.77761	0.03363
1491.49184	0.03384
1490.20607	0.03409
1488.92030	0.03436
1487.63453	0.03463
1486.34876	0.03491
1485.06299	0.03519
1483.77723	0.03551
1482.49146	0.03586
1481.20569	0.03626
1479.91992	0.03670
1478.63415	0.03711
1477.34838	0.03748
1476.06261	0.03778
1474.77684	0.03806
1473.49108	0.03837
1472.20531	0.03872
1470.91954	0.03908
1469.63377	0.03942
1468.34800	0.03973
1467.06223	0.04001
1465.77646	0.04027
1464.49069	0.04048
1463.20492	0.04064
1461.91916	0.04078
1460.63339	0.04095
1459.34762	0.04123
1458.06185	0.04163
1456.77608	0.04205
1455.49031	0.04240
1454.20454	0.04260
1452.91877	0.04270
1451.63301	0.04281
1450.34724	0.04296
1449.06147	0.04312
1447.77570	0.04323
1446.48993	0.04326
1445.20416	0.04324
1443.91839	0.04319
1442.63262	0.04310
1441.34685	0.04298
1440.06109	0.04290
1438.77532	0.04291
1437.48955	0.04303
1436.20378	0.04317
1434.91801	0.04325
1433.63224	0.04321
1432.34647	0.04315
1431.06070	0.04317
1429.77494	0.04336
1428.48917	0.04372
1427.20340	0.04416
1425.91763	0.04462
1424.63186	0.04507
1423.34609	0.04548
1422.06032	0.04591
1420.77455	0.04636
1419.48878	0.04680
1418.20302	0.04718
1416.91725	0.04751
1415.63148	0.04780
1414.34571	0.04806
1413.05994	0.04824
1411.77417	0.04830
1410.48840	0.04823
1409.20263	0.04809
1407.91687	0.04793
1406.63110	0.04774
1405.34533	0.04749
1404.05956	0.04714
1402.77379	0.04668
1401.48802	0.04611
1400.20225	0.04548
1398.91648	0.04484
1397.63071	0.04421
1396.34495	0.04360
1395.05918	0.04297
1393.77341	0.04232
1392.48764	0.04167
1391.20187	0.04102
1389.91610	0.04039
1388.63033	0.03977
1387.34456	0.03919
1386.05880	0.03864
1384.77303	0.03808
1383.48726	0.03748
1382.20149	0.03683
1380.91572	0.03614
1379.62995	0.03544
1378.34418	0.03476
1377.05841	0.03408
1375.77264	0.03336
1374.48688	0.03259
1373.20111	0.03179
1371.91534	0.03101
1370.62957	0.03028
1369.34380	0.02960
1368.05803	0.02895
1366.77226	0.02834
1365.48649	0.02776
1364.20073	0.02717
1362.91496	0.02660
1361.62919	0.02606
1360.34342	0.02560
1359.05765	0.02519
1357.77188	0.02481
1356.48611	0.02442
1355.20034	0.02403
1353.91457	0.02365
1352.62881	0.02329
1351.34304	0.02293
1350.05727	0.02259
1348.77150	0.02232
1347.48573	0.02210
1346.19996	0.02192
1344.91419	0.02171
1343.62842	0.02146
1342.34266	0.02121
1341.05689	0.02098
1339.77112	0.02080
1338.48535	0.02063
1337.19958	0.02045
1335.91381	0.02026
1334.62804	0.02008
1333.34227	0.01993
1332.05650	0.01981
1330.77074	0.01970
1329.48497	0.01957
1328.19920	0.01937
1326.91343	0.01917
1325.62766	0.01901
1324.34189	0.01893
1323.05612	0.01891
1321.77035	0.01886
1320.48459	0.01875
1319.19882	0.01857
1317.91305	0.01837
1316.62728	0.01821
1315.34151	0.01813
1314.05574	0.01810
1312.76997	0.01810
1311.48420	0.01807
1310.19843	0.01799
1308.91267	0.01783
1307.62690	0.01761
1306.34113	0.01735
1305.05536	0.01712
1303.76959	0.01698
1302.48382	0.01695
1301.19805	0.01697
1299.91228	0.01698
1298.62652	0.01694
1297.34075	0.01688
1296.05498	0.01680
1294.76921	0.01674
1293.48344	0.01668
1292.19767	0.01664
1290.91190	0.01660
1289.62613	0.01653
1288.34036	0.01644
1287.05460	0.01633
1285.76883	0.01623
1284.48306	0.01618
1283.19729	0.01616
1281.91152	0.01611
1280.62575	0.01603
1279.33998	0.01593
1278.05421	0.01585
1276.76845	0.01581
1275.48268	0.01578
1274.19691	0.01575
1272.91114	0.01567
1271.62537	0.01558
1270.33960	0.01550
1269.05383	0.01546
1267.76806	0.01546
1266.48229	0.01548
1265.19653	0.01549
1263.91076	0.01551
1262.62499	0.01555
1261.33922	0.01562
1260.05345	0.01568
1258.76768	0.01569
1257.48191	0.01565
1256.19614	0.01558
1254.91037	0.01554
1253.62461	0.01555
1252.33884	0.01559
1251.05307	0.01567
1249.76730	0.01578
1248.48153	0.01587
1247.19576	0.01590
1245.90999	0.01585
1244.62422	0.01574
1243.33846	0.01565
1242.05269	0.01564
1240.76692	0.01567
1239.48115	0.01571
1238.19538	0.01574
1236.90961	0.01574
1235.62384	0.01571
1234.33807	0.01567
1233.05230	0.01565
1231.76654	0.01564
1230.48077	0.01562
1229.19500	0.01558
1227.90923	0.01552
1226.62346	0.01545
1225.33769	0.01538
1224.05192	0.01533
1222.76615	0.01530
1221.48039	0.01530
1220.19462	0.01531
1218.90885	0.01530
1217.62308	0.01525
1216.33731	0.01520
1215.05154	0.01519
1213.76577	0.01523
1212.48000	0.01530
1211.19423	0.01537
1209.90847	0.01541
1208.62270	0.01543
1207.33693	0.01543
1206.05116	0.01543
1204.76539	0.01542
1203.47962	0.01542
1202.19385	0.01544
1200.90808	0.01550
1199.62232	0.01563
1198.33655	0.01569
1197.05078	0.01570
1195.76501	0.01566
1194.47924	0.01560
1193.19347	0.01554
1191.90770	0.01553
1190.62193	0.01558
1189.33616	0.01571
1188.05040	0.01592
1186.76463	0.01613
1185.47886	0.01627
1184.19309	0.01630
1182.90732	0.01627
1181.62155	0.01624
1180.33578	0.01625
1179.05001	0.01629
1177.76425	0.01634
1176.47848	0.01639
1175.19271	0.01645
1173.90694	0.01652
1172.62117	0.01662
1171.33540	0.01676
1170.04963	0.01696
1168.76386	0.01720
1167.47809	0.01745
1166.19233	0.01765
1164.90656	0.01776
1163.62079	0.01776
1162.33502	0.01772
1161.04925	0.01772
1159.76348	0.01783
1158.47771	0.01801
1157.19194	0.01818
1155.90618	0.01829
1154.62041	0.01835
1153.33464	0.01838
1152.04887	0.01844
1150.76310	0.01856
1149.47733	0.01875
1148.19156	0.01899
1146.90579	0.01924
1145.62002	0.01952
1144.33426	0.01986
1143.04849	0.02025
1141.76272	0.02067
1140.47695	0.02105
1139.19118	0.02140
1137.90541	0.02180
1136.61964	0.02230
1135.33387	0.02293
1134.04811	0.02360
1132.76234	0.02429
1131.47657	0.02502
1130.19080	0.02583
1128.90503	0.02671
1127.61926	0.02768
1126.33349	0.02875
1125.04772	0.02997
1123.76195	0.03132
1122.47619	0.03272
1121.19042	0.03409
1119.90465	0.03541
1118.61888	0.03671
1117.33311	0.03810
1116.04734	0.03960
1114.76157	0.04117
1113.47580	0.04271
1112.19004	0.04413
1110.90427	0.04542
1109.61850	0.04664
1108.33273	0.04785
1107.04696	0.04905
1105.76119	0.05022
1104.47542	0.05135
1103.18965	0.05247
1101.90388	0.05361
1100.61812	0.05476
1099.33235	0.05584
1098.04658	0.05681
1096.76081	0.05765
1095.47504	0.05844
1094.18927	0.05917
1092.90350	0.05982
1091.61773	0.06035
1090.33197	0.06084
1089.04620	0.06142
1087.76043	0.06213
1086.47466	0.06289
1085.18889	0.06358
1083.90312	0.06417
1082.61735	0.06473
1081.33158	0.06537
1080.04581	0.06610
1078.76005	0.06690
1077.47428	0.06774
1076.18851	0.06862
1074.90274	0.06957
1073.61697	0.07061
1072.33120	0.07173
1071.04543	0.07291
1069.75966	0.07413
1068.47390	0.07538
1067.18813	0.07664
1065.90236	0.07786
1064.61659	0.07899
1063.33082	0.08009
1062.04505	0.08123
1060.75928	0.08246
1059.47351	0.08376
1058.18774	0.08503
1056.90198	0.08618
1055.61621	0.08726
1054.33044	0.08838
1053.04467	0.08963
1051.75890	0.09098
1050.47313	0.09228
1049.18736	0.09348
1047.90159	0.09461
1046.61583	0.09576
1045.33006	0.09698
1044.04429	0.09828
1042.75852	0.09960
1041.47275	0.10088
1040.18698	0.10213
1038.90121	0.10336
1037.61544	0.10458
1036.32967	0.10582
1035.04391	0.10706
1033.75814	0.10824
1032.47237	0.10925
1031.18660	0.11007
1029.90083	0.11074
1028.61506	0.11134
1027.32929	0.11188
1026.04352	0.11236
1024.75775	0.11277
1023.47199	0.11311
1022.18622	0.11335
1020.90045	0.11344
1019.61468	0.11337
1018.32891	0.11313
1017.04314	0.11272
1015.75737	0.11216
1014.47160	0.11146
1013.18584	0.11064
1011.90007	0.10967
1010.61430	0.10853
1009.32853	0.10722
1008.04276	0.10581
1006.75699	0.10434
1005.47122	0.10281
1004.18545	0.10120
1002.89968	0.09946
1001.61392	0.09758
1000.32815	0.09555
999.04238	0.09337
997.75661	0.09109
996.47084	0.08878
995.18507	0.08645
993.89930	0.08416
992.61353	0.08191
991.32777	0.07974
990.04200	0.07761
988.75623	0.07547
987.47046	0.07334
986.18469	0.07123
984.89892	0.06921
983.61315	0.06728
982.32738	0.06546
981.04161	0.06375
979.75585	0.06218
978.47008	0.06072
977.18431	0.05935
975.89854	0.05808
974.61277	0.05689
973.32700	0.05580
972.04123	0.05484
970.75546	0.05402
969.46970	0.05335
968.18393	0.05287
966.89816	0.05260
965.61239	0.05254
964.32662	0.05260
963.04085	0.05272
961.75508	0.05280
960.46931	0.05274
959.18354	0.05249
957.89778	0.05201
956.61201	0.05137
955.32624	0.05060
954.04047	0.04969
952.75470	0.04868
951.46893	0.04762
950.18316	0.04658
948.89739	0.04558
947.61163	0.04464
946.32586	0.04374
945.04009	0.04289
943.75432	0.04211
942.46855	0.04140
941.18278	0.04076
939.89701	0.04015
938.61124	0.03951
937.32547	0.03881
936.03971	0.03807
934.75394	0.03736
933.46817	0.03671
932.18240	0.03611
930.89663	0.03555
929.61086	0.03503
928.32509	0.03457
927.03932	0.03416
925.75356	0.03380
924.46779	0.03349
923.18202	0.03324
921.89625	0.03302
920.61048	0.03280
919.32471	0.03257
918.03894	0.03230
916.75317	0.03194
915.46740	0.03150
914.18164	0.03108
912.89587	0.03080
911.61010	0.03067
910.32433	0.03058
909.03856	0.03040
907.75279	0.03009
906.46702	0.02968
905.18125	0.02927
903.89549	0.02889
902.60972	0.02858
901.32395	0.02835
900.03818	0.02817
898.75241	0.02801
897.46664	0.02782
896.18087	0.02761
894.89510	0.02742
893.60933	0.02726
892.32357	0.02709
891.03780	0.02687
889.75203	0.02666
888.46626	0.02661
887.18049	0.02681
885.89472	0.02725
884.60895	0.02785
883.32318	0.02858
882.03742	0.02941
880.75165	0.03027
879.46588	0.03111
878.18011	0.03187
876.89434	0.03259
875.60857	0.03331
874.32280	0.03407
873.03703	0.03472
871.75126	0.03504
870.46550	0.03491
869.17973	0.03444
867.89396	0.03379
866.60819	0.03303
865.32242	0.03212
864.03665	0.03104
862.75088	0.02995
861.46511	0.02899
860.17935	0.02821
858.89358	0.02755
857.60781	0.02688
856.32204	0.02622
855.03627	0.02562
853.75050	0.02517
852.46473	0.02492
851.17896	0.02479
849.89319	0.02468
848.60743	0.02446
847.32166	0.02412
846.03589	0.02378
844.75012	0.02353
843.46435	0.02340
842.17858	0.02331
840.89281	0.02323
839.60704	0.02315
838.32128	0.02307
837.03551	0.02293
835.74974	0.02274
834.46397	0.02256
833.17820	0.02246
831.89243	0.02241
830.60666	0.02234
829.32089	0.02222
828.03512	0.02211
826.74936	0.02203
825.46359	0.02200
824.17782	0.02198
822.89205	0.02193
821.60628	0.02185
820.32051	0.02172
819.03474	0.02161
817.74897	0.02159
816.46321	0.02168
815.17744	0.02182
813.89167	0.02192
812.60590	0.02194
811.32013	0.02191
810.03436	0.02191
808.74859	0.02197
807.46282	0.02208
806.17705	0.02219
804.89129	0.02227
803.60552	0.02233
802.31975	0.02238
801.03398	0.02244
799.74821	0.02249
798.46244	0.02255
797.17667	0.02263
795.89090	0.02274
794.60513	0.02285
793.31937	0.02288
792.03360	0.02282
790.74783	0.02273
789.46206	0.02268
788.17629	0.02267
786.89052	0.02263
785.60475	0.02253
784.31898	0.02240
783.03322	0.02231
781.74745	0.02229
780.46168	0.02234
779.17591	0.02240
777.89014	0.02242
776.60437	0.02237
775.31860	0.02226
774.03283	0.02210
772.74706	0.02193
771.46130	0.02179
770.17553	0.02175
768.88976	0.02180
767.60399	0.02191
766.31822	0.02198
765.03245	0.02195
763.74668	0.02180
762.46091	0.02161
761.17515	0.02143
759.88938	0.02131
758.60361	0.02127
757.31784	0.02132
756.03207	0.02143
754.74630	0.02156
753.46053	0.02165
752.17476	0.02169
750.88899	0.02167
749.60323	0.02159
748.31746	0.02146
747.03169	0.02129
745.74592	0.02108
744.46015	0.02085
743.17438	0.02067
741.88861	0.02064
740.60284	0.02076
739.31708	0.02092
738.03131	0.02100
736.74554	0.02102
735.45977	0.02102
734.17400	0.02101
732.88823	0.02102
731.60246	0.02110
730.31669	0.02125
729.03092	0.02140
727.74516	0.02147
726.45939	0.02143
725.17362	0.02135
723.88785	0.02125
722.60208	0.02117
721.31631	0.02108
720.03054	0.02101
718.74477	0.02103
717.45901	0.02110
716.17324	0.02118
714.88747	0.02123
713.60170	0.02119
712.31593	0.02109
711.03016	0.02098
709.74439	0.02089
708.45862	0.02086
707.17285	0.02084
705.88709	0.02080
704.60132	0.02072
703.31555	0.02063
702.02978	0.02056
700.74401	0.02051
699.45824	0.02048
698.17247	0.02048
696.88670	0.02052
695.60094	0.02062
694.31517	0.02075
693.02940	0.02086
691.74363	0.02089
690.45786	0.02084
689.17209	0.02074
687.88632	0.02062
686.60055	0.02051
685.31478	0.02042
684.02902	0.02037
682.74325	0.02034
681.45748	0.02032
680.17171	0.02026
678.88594	0.02016
677.60017	0.02006
676.31440	0.02001
675.02863	0.01998
673.74287	0.01991
672.45710	0.01989
671.17133	0.02012
669.88556	0.02040
668.59979	0.01978
667.31402	0.01975
666.02825	0.02082
664.74248	0.02051
663.45671	0.02006
662.17095	0.01987
660.88518	0.01975
659.59941	0.01964
658.31364	0.01955
657.02787	0.01947
655.74210	0.01939
654.45633	0.01933
653.17056	0.01930
651.88480	0.01935
650.59903	0.01946
649.31326	0.01957
648.02749	0.01969
646.74172	0.01978
645.45595	0.01984
644.17018	0.01987
642.88441	0.01985
641.59864	0.01980
640.31288	0.01974
639.02711	0.01969
637.74134	0.01968
636.45557	0.01972
635.16980	0.01982
633.88403	0.01992
632.59826	0.01994
631.31249	0.01975
630.02673	0.01919
628.74096	0.01854
627.45519	0.01854
626.16942	0.01827
624.88365	0.01792
623.59788	0.01773
622.31211	0.01762
621.02634	0.01774
619.74057	0.01842
618.45481	0.01993
617.16904	0.02217
615.88327	0.02468
614.59750	0.02700
613.31173	0.02914
612.02596	0.03164
610.74019	0.03474
609.45442	0.03784
608.16866	0.04012
606.88289	0.04165
605.59712	0.04310
604.31135	0.04469
603.02558	0.04601
601.73981	0.04670
600.45404	0.04673
599.16827	0.04627
597.88250	0.04537
596.59674	0.04413
595.31097	0.04279
594.02520	0.04161
592.73943	0.04071
591.45366	0.04003
590.16789	0.03951
588.88212	0.03921
587.59635	0.03923
586.31059	0.03958
585.02482	0.04015
583.73905	0.04084
582.45328	0.04164
581.16751	0.04260
579.88174	0.04370
578.59597	0.04481
577.31020	0.04583
576.02443	0.04675
574.73867	0.04763
573.45290	0.04848
572.16713	0.04930
570.88136	0.05017
569.59559	0.05121
568.30982	0.05248
567.02405	0.05393
565.73828	0.05538
564.45251	0.05666
563.16675	0.05759
561.88098	0.05801
560.59521	0.05781
559.30944	0.05699
558.02367	0.05566
556.73790	0.05395
555.45213	0.05207
554.16636	0.05018
552.88060	0.04833
551.59483	0.04650
550.30906	0.04468
549.02329	0.04299
547.73752	0.04156
546.45175	0.04041
545.16598	0.03942
543.88021	0.03846
542.59444	0.03751
541.30868	0.03664
540.02291	0.03596
538.73714	0.03549
537.45137	0.03514
536.16560	0.03481
534.87983	0.03444
533.59406	0.03403
532.30829	0.03356
531.02253	0.03303
529.73676	0.03250
528.45099	0.03204
527.16522	0.03169
525.87945	0.03139
524.59368	0.03103
523.30791	0.03059
522.02214	0.03015
520.73637	0.02980
519.45061	0.02958
518.16484	0.02944
516.87907	0.02928
515.59330	0.02904
514.30753	0.02873
513.02176	0.02841
511.73599	0.02811
510.45022	0.02781
509.16446	0.02751
507.87869	0.02722
506.59292	0.02694
505.30715	0.02667
504.02138	0.02642
502.73561	0.02624
501.44984	0.02614
500.16407	0.02608
498.87830	0.02601
497.59254	0.02592
496.30677	0.02587
495.02100	0.02588
493.73523	0.02589
492.44946	0.02583
491.16369	0.02567
489.87792	0.02547
488.59215	0.02531
487.30639	0.02527
486.02062	0.02539
484.73485	0.02560
483.44908	0.02585
482.16331	0.02607
480.87754	0.02629
479.59177	0.02654
478.30600	0.02687
477.02023	0.02726
475.73447	0.02768
474.44870	0.02806
473.16293	0.02836
471.87716	0.02860
470.59139	0.02878
469.30562	0.02887
468.01985	0.02880
466.73408	0.02857
465.44832	0.02824
464.16255	0.02791
462.87678	0.02761
461.59101	0.02733
460.30524	0.02707
459.01947	0.02687
457.73370	0.02671
456.44793	0.02656
455.16216	0.02632
453.87640	0.02597
452.59063	0.02551
451.30486	0.02503
450.01909	0.02467
448.73332	0.02450
447.44755	0.02449
446.16178	0.02451
444.87601	0.02442
443.59025	0.02421
442.30448	0.02393
441.01871	0.02364
439.73294	0.02339
438.44717	0.02318
437.16140	0.02306
435.87563	0.02301
434.58986	0.02305
433.30409	0.02314
432.01833	0.02324
430.73256	0.02331
429.44679	0.02331
428.16102	0.02322
426.87525	0.02306
425.58948	0.02286
424.30371	0.02263
423.01794	0.02239
421.73218	0.02211
420.44641	0.02182
419.16064	0.02152
417.87487	0.02123
416.58910	0.02095
415.30333	0.02067
414.01756	0.02044
412.73179	0.02028
411.44602	0.02015
410.16026	0.01999
408.87449	0.01976
407.58872	0.01948
406.30295	0.01923
405.01718	0.01910
403.73141	0.01909
402.44564	0.01917
401.15987	0.01925
399.87411	0.01930
