3997.45528 0.05425
3996.16951 0.05496
3994.88374 0.05511
3993.59798 0.05439
3992.31221 0.05336
3991.02644 0.05289
3989.74067 0.05318
3988.45490 0.05380
3987.16913 0.05436
3985.88336 0.05482
3984.59759 0.05524
3983.31183 0.05549
3982.02606 0.05535
3980.74029 0.05481
3979.45452 0.05414
3978.16875 0.05361
3976.88298 0.05329
3975.59721 0.05305
3974.31144 0.05275
3973.02567 0.05232
3971.73991 0.05192
3970.45414 0.05186
3969.16837 0.05230
3967.88260 0.05304
3966.59683 0.05383
3965.31106 0.05471
3964.02529 0.05564
3962.73952 0.05614
3961.45376 0.05564
3960.16799 0.05420
3958.88222 0.05259
3957.59645 0.05158
3956.31068 0.05127
3955.02491 0.05140
3953.73914 0.05182
3952.45337 0.05272
3951.16760 0.05409
3949.88184 0.05534
3948.59607 0.05568
3947.31030 0.05492
3946.02453 0.05383
3944.73876 0.05335
3943.45299 0.05384
3942.16722 0.05489
3940.88145 0.05585
3939.59569 0.05631
3938.30992 0.05626
3937.02415 0.05591
3935.73838 0.05541
3934.45261 0.05473
3933.16684 0.05382
3931.88107 0.05288
3930.59530 0.05232
3929.30953 0.05233
3928.02377 0.05284
3926.73800 0.05361
3925.45223 0.05447
3924.16646 0.05519
3922.88069 0.05547
3921.59492 0.05520
3920.30915 0.05469
3919.02338 0.05424
3917.73762 0.05383
3916.45185 0.05323
3915.16608 0.05243
3913.88031 0.05169
3912.59454 0.05129
3911.30877 0.05128
3910.02300 0.05155
3908.73723 0.05177
3907.45146 0.05157
3906.16570 0.05084
3904.87993 0.05001
3903.59416 0.04980
3902.30839 0.05060
3901.02262 0.05207
3899.73685 0.05346
3898.45108 0.05421
3897.16531 0.05438
3895.87955 0.05451
3894.59378 0.05505
3893.30801 0.05590
3892.02224 0.05645
3890.73647 0.05611
3889.45070 0.05489
3888.16493 0.05329
3886.87916 0.05196
3885.59339 0.05133
3884.30763 0.05150
3883.02186 0.05227
3881.73609 0.05325
3880.45032 0.05400
3879.16455 0.05425
3877.87878 0.05399
3876.59301 0.05334
3875.30724 0.05248
3874.02148 0.05171
3872.73571 0.05142
3871.44994 0.05172
3870.16417 0.05216
3868.87840 0.05204
3867.59263 0.05120
3866.30686 0.05019
3865.02109 0.04966
3863.73532 0.04969
3862.44956 0.04999
3861.16379 0.05035
3859.87802 0.05075
3858.59225 0.05117
3857.30648 0.05156
3856.02071 0.05205
3854.73494 0.05275
3853.44917 0.05346
3852.16341 0.05384
3850.87764 0.05373
3849.59187 0.05332
3848.30610 0.05296
3847.02033 0.05290
3845.73456 0.05317
3844.44879 0.05355
3843.16302 0.05377
3841.87725 0.05364
3840.59149 0.05304
3839.30572 0.05199
3838.01995 0.05070
3836.73418 0.04953
3835.44841 0.04888
3834.16264 0.04892
3832.87687 0.04944
3831.59110 0.05003
3830.30534 0.05041
3829.01957 0.05053
3827.73380 0.05053
3826.44803 0.05051
3825.16226 0.05045
3823.87649 0.05027
3822.59072 0.04992
3821.30495 0.04952
3820.01918 0.04945
3818.73342 0.05003
3817.44765 0.05104
3816.16188 0.05170
3814.87611 0.05137
3813.59034 0.05029
3812.30457 0.04933
3811.01880 0.04914
3809.73303 0.04952
3808.44726 0.04969
3807.16150 0.04915
3805.87573 0.04820
3804.58996 0.04769
3803.30419 0.04817
3802.01842 0.04934
3800.73265 0.05052
3799.44688 0.05135
3798.16111 0.05190
3796.87535 0.05216
3795.58958 0.05176
3794.30381 0.05040
3793.01804 0.04840
3791.73227 0.04661
3790.44650 0.04576
3789.16073 0.04586
3787.87496 0.04635
3786.58919 0.04674
3785.30343 0.04704
3784.01766 0.04741
3782.73189 0.04778
3781.44612 0.04797
3780.16035 0.04808
3778.87458 0.04838
3777.58881 0.04892
3776.30304 0.04940
3775.01728 0.04949
3773.73151 0.04922
3772.44574 0.04888
3771.15997 0.04879
3769.87420 0.04903
3768.58843 0.04950
3767.30266 0.04985
3766.01689 0.04971
3764.73112 0.04897
3763.44536 0.04805
3762.15959 0.04761
3760.87382 0.04786
3759.58805 0.04838
3758.30228 0.04866
3757.01651 0.04864
3755.73074 0.04855
3754.44497 0.04845
3753.15921 0.04815
3751.87344 0.04752
3750.58767 0.04681
3749.30190 0.04645
3748.01613 0.04668
3746.73036 0.04734
3745.44459 0.04786
3744.15882 0.04776
3742.87305 0.04713
3741.58729 0.04668
3740.30152 0.04707
3739.01575 0.04817
3737.72998 0.04922
3736.44421 0.04955
3735.15844 0.04916
3733.87267 0.04846
3732.58690 0.04778
3731.30114 0.04723
3730.01537 0.04682
3728.72960 0.04660
3727.44383 0.04651
3726.15806 0.04646
3724.87229 0.04641
3723.58652 0.04653
3722.30075 0.04698
3721.01498 0.04771
3719.72922 0.04838
3718.44345 0.04856
3717.15768 0.04811
3715.87191 0.04721
3714.58614 0.04625
3713.30037 0.04553
3712.01460 0.04514
3710.72883 0.04503
3709.44307 0.04514
3708.15730 0.04541
3706.87153 0.04568
3705.58576 0.04568
3704.29999 0.04527
3703.01422 0.04474
3701.72845 0.04457
3700.44268 0.04493
3699.15691 0.04561
3697.87115 0.04633
3696.58538 0.04688
3695.29961 0.04712
3694.01384 0.04698
3692.72807 0.04665
3691.44230 0.04647
3690.15653 0.04645
3688.87076 0.04627
3687.58500 0.04579
3686.29923 0.04535
3685.01346 0.04547
3683.72769 0.04621
3682.44192 0.04706
3681.15615 0.04749
3679.87038 0.04749
3678.58461 0.04736
3677.29884 0.04729
3676.01308 0.04729
3674.72731 0.04745
3673.44154 0.04796
3672.15577 0.04882
3670.87000 0.04962
3669.58423 0.04997
3668.29846 0.04976
3667.01269 0.04913
3665.72693 0.04826
3664.44116 0.04736
3663.15539 0.04679
3661.86962 0.04685
3660.58385 0.04752
3659.29808 0.04837
3658.01231 0.04894
3656.72654 0.04901
3655.44077 0.04877
3654.15501 0.04856
3652.86924 0.04859
3651.58347 0.04872
3650.29770 0.04872
3649.01193 0.04858
3647.72616 0.04838
3646.44039 0.04814
3645.15462 0.04787
3643.86886 0.04786
3642.58309 0.04841
3641.29732 0.04932
3640.01155 0.04997
3638.72578 0.05003
3637.44001 0.04978
3636.15424 0.04962
3634.86847 0.04958
3633.58270 0.04949
3632.29694 0.04942
3631.01117 0.04954
3629.72540 0.04987
3628.43963 0.05019
3627.15386 0.05032
3625.86809 0.05016
3624.58232 0.04969
3623.29655 0.04900
3622.01079 0.04833
3620.72502 0.04792
3619.43925 0.04782
3618.15348 0.04780
3616.86771 0.04760
3615.58194 0.04734
3614.29617 0.04751
3613.01040 0.04843
3611.72463 0.04972
3610.43887 0.05075
3609.15310 0.05131
3607.86733 0.05173
3606.58156 0.05222
3605.29579 0.05256
3604.01002 0.05248
3602.72425 0.05209
3601.43848 0.05180
3600.15272 0.05195
3598.86695 0.05261
3597.58118 0.05352
3596.29541 0.05417
3595.00964 0.05412
3593.72387 0.05336
3592.43810 0.05249
3591.15233 0.05225
3589.86656 0.05286
3588.58080 0.05376
3587.29503 0.05418
3586.00926 0.05386
3584.72349 0.05320
3583.43772 0.05285
3582.15195 0.05303
3580.86618 0.05352
3579.58041 0.05399
3578.29464 0.05437
3577.00888 0.05489
3575.72311 0.05569
3574.43734 0.05654
3573.15157 0.05692
3571.86580 0.05655
3570.58003 0.05581
3569.29426 0.05539
3568.00849 0.05561
3566.72273 0.05622
3565.43696 0.05685
3564.15119 0.05743
3562.86542 0.05807
3561.57965 0.05871
3560.29388 0.05915
3559.00811 0.05929
3557.72234 0.05925
3556.43657 0.05931
3555.15081 0.05960
3553.86504 0.06005
3552.57927 0.06046
3551.29350 0.06060
3550.00773 0.06032
3548.72196 0.05964
3547.43619 0.05888
3546.15042 0.05854
3544.86466 0.05886
3543.57889 0.05960
3542.29312 0.06027
3541.00735 0.06066
3539.72158 0.06087
3538.43581 0.06117
3537.15004 0.06168
3535.86427 0.06226
3534.57850 0.06260
3533.29274 0.06259
3532.00697 0.06246
3530.72120 0.06253
3529.43543 0.06280
3528.14966 0.06302
3526.86389 0.06302
3525.57812 0.06290
3524.29235 0.06282
3523.00659 0.06282
3521.72082 0.06287
3520.43505 0.06300
3519.14928 0.06321
3517.86351 0.06343
3516.57774 0.06362
3515.29197 0.06374
3514.00620 0.06375
3512.72043 0.06355
3511.43467 0.06305
3510.14890 0.06236
3508.86313 0.06172
3507.57736 0.06140
3506.29159 0.06156
3505.00582 0.06219
3503.72005 0.06307
3502.43428 0.06393
3501.14852 0.06463
3499.86275 0.06517
3498.57698 0.06557
3497.29121 0.06574
3496.00544 0.06559
3494.71967 0.06509
3493.43390 0.06450
3492.14813 0.06426
3490.86236 0.06472
3489.57660 0.06581
3488.29083 0.06709
3487.00506 0.06808
3485.71929 0.06858
3484.43352 0.06866
3483.14775 0.06847
3481.86198 0.06811
3480.57621 0.06782
3479.29045 0.06787
3478.00468 0.06830
3476.71891 0.06884
3475.43314 0.06909
3474.14737 0.06895
3472.86160 0.06871
3471.57583 0.06868
3470.29006 0.06888
3469.00429 0.06912
3467.71853 0.06919
3466.43276 0.06912
3465.14699 0.06913
3463.86122 0.06940
3462.57545 0.06978
3461.28968 0.06993
3460.00391 0.06967
3458.71814 0.06920
3457.43238 0.06892
3456.14661 0.06903
3454.86084 0.06942
3453.57507 0.06972
3452.28930 0.06957
3451.00353 0.06895
3449.71776 0.06837
3448.43199 0.06847
3447.14622 0.06933
3445.86046 0.07036
3444.57469 0.07079
3443.28892 0.07045
3442.00315 0.06977
3440.71738 0.06935
3439.43161 0.06944
3438.14584 0.06993
3436.86007 0.07051
3435.57431 0.07091
3434.28854 0.07105
3433.00277 0.07103
3431.71700 0.07107
3430.43123 0.07136
3429.14546 0.07181
3427.85969 0.07206
3426.57392 0.07183
3425.28815 0.07129
3424.00239 0.07096
3422.71662 0.07113
3421.43085 0.07165
3420.14508 0.07212
3418.85931 0.07235
3417.57354 0.07248
3416.28777 0.07270
3415.00200 0.07308
3413.71624 0.07351
3412.43047 0.07383
3411.14470 0.07392
3409.85893 0.07379
3408.57316 0.07363
3407.28739 0.07365
3406.00162 0.07399
3404.71585 0.07454
3403.43008 0.07499
3402.14432 0.07512
3400.85855 0.07512
3399.57278 0.07536
3398.28701 0.07583
3397.00124 0.07617
3395.71547 0.07601
3394.42970 0.07543
3393.14393 0.07494
3391.85817 0.07488
3390.57240 0.07506
3389.28663 0.07515
3388.00086 0.07504
3386.71509 0.07483
3385.42932 0.07458
3384.14355 0.07429
3382.85778 0.07407
3381.57201 0.07410
3380.28625 0.07438
3379.00048 0.07474
3377.71471 0.07504
3376.42894 0.07518
3375.14317 0.07512
3373.85740 0.07483
3372.57163 0.07452
3371.28586 0.07448
3370.00010 0.07485
3368.71433 0.07552
3367.42856 0.07620
3366.14279 0.07663
3364.85702 0.07665
3363.57125 0.07631
3362.28548 0.07590
3360.99971 0.07576
3359.71394 0.07603
3358.42818 0.07655
3357.14241 0.07709
3355.85664 0.07757
3354.57087 0.07798
3353.28510 0.07818
3351.99933 0.07800
3350.71356 0.07743
3349.42779 0.07674
3348.14202 0.07624
3346.85626 0.07602
3345.57049 0.07590
3344.28472 0.07570
3342.99895 0.07544
3341.71318 0.07524
3340.42741 0.07520
3339.14164 0.07533
3337.85587 0.07563
3336.57011 0.07609
3335.28434 0.07662
3333.99857 0.07695
3332.71280 0.07694
3331.42703 0.07673
3330.14126 0.07663
3328.85549 0.07672
3327.56972 0.07679
3326.28395 0.07667
3324.99819 0.07649
3323.71242 0.07654
3322.42665 0.07686
3321.14088 0.07712
3319.85511 0.07699
3318.56934 0.07646
3317.28357 0.07586
3315.99780 0.07550
3314.71204 0.07555
3313.42627 0.07597
3312.14050 0.07662
3310.85473 0.07720
3309.56896 0.07748
3308.28319 0.07748
3306.99742 0.07748
3305.71165 0.07769
3304.42588 0.07806
3303.14012 0.07833
3301.85435 0.07829
3300.56858 0.07790
3299.28281 0.07736
3297.99704 0.07699
3296.71127 0.07695
3295.42550 0.07712
3294.13973 0.07725
3292.85397 0.07727
3291.56820 0.07738
3290.28243 0.07776
3288.99666 0.07824
3287.71089 0.07845
3286.42512 0.07818
3285.13935 0.07754
3283.85358 0.07679
3282.56781 0.07617
3281.28205 0.07590
3279.99628 0.07608
3278.71051 0.07654
3277.42474 0.07683
3276.13897 0.07668
3274.85320 0.07624
3273.56743 0.07587
3272.28166 0.07584
3270.99590 0.07618
3269.71013 0.07670
3268.42436 0.07700
3267.13859 0.07685
3265.85282 0.07639
3264.56705 0.07603
3263.28128 0.07606
3261.99551 0.07636
3260.70974 0.07661
3259.42398 0.07658
3258.13821 0.07623
3256.85244 0.07566
3255.56667 0.07502
3254.28090 0.07449
3252.99513 0.07427
3251.70936 0.07450
3250.42359 0.07507
3249.13783 0.07554
3247.85206 0.07539
3246.56629 0.07459
3245.28052 0.07366
3243.99475 0.07330
3242.70898 0.07379
3241.42321 0.07483
3240.13744 0.07584
3238.85167 0.07635
3237.56591 0.07620
3236.28014 0.07559
3234.99437 0.07486
3233.70860 0.07428
3232.42283 0.07387
3231.13706 0.07352
3229.85129 0.07320
3228.56552 0.07295
3227.27976 0.07281
3225.99399 0.07274
3224.70822 0.07271
3223.42245 0.07276
3222.13668 0.07286
3220.85091 0.07286
3219.56514 0.07259
3218.27937 0.07211
3216.99360 0.07174
3215.70784 0.07178
3214.42207 0.07218
3213.13630 0.07260
3211.85053 0.07271
3210.56476 0.07254
3209.27899 0.07225
3207.99322 0.07191
3206.70745 0.07152
3205.42169 0.07114
3204.13592 0.07087
3202.85015 0.07077
3201.56438 0.07077
3200.27861 0.07075
3198.99284 0.07063
3197.70707 0.07043
3196.42130 0.07024
3195.13553 0.07018
3193.84977 0.07018
3192.56400 0.07007
3191.27823 0.06976
3189.99246 0.06937
3188.70669 0.06909
3187.42092 0.06906
3186.13515 0.06932
3184.84938 0.06978
3183.56362 0.07026
3182.27785 0.07055
3180.99208 0.07048
3179.70631 0.07007
3178.42054 0.06945
3177.13477 0.06881
3175.84900 0.06820
3174.56323 0.06757
3173.27746 0.06693
3171.99170 0.06645
3170.70593 0.06627
3169.42016 0.06631
3168.13439 0.06640
3166.84862 0.06650
3165.56285 0.06664
3164.27708 0.06680
3162.99131 0.06685
3161.70555 0.06678
3160.41978 0.06669
3159.13401 0.06674
3157.84824 0.06691
3156.56247 0.06707
3155.27670 0.06719
3153.99093 0.06727
3152.70516 0.06724
3151.41939 0.06697
3150.13363 0.06648
3148.84786 0.06602
3147.56209 0.06578
3146.27632 0.06578
3144.99055 0.06591
3143.70478 0.06607
3142.41901 0.06616
3141.13324 0.06608
3139.84748 0.06589
3138.56171 0.06574
3137.27594 0.06571
3135.99017 0.06569
3134.70440 0.06554
3133.41863 0.06517
3132.13286 0.06461
3130.84709 0.06407
3129.56132 0.06387
3128.27556 0.06416
3126.98979 0.06475
3125.70402 0.06522
3124.41825 0.06531
3123.13248 0.06502
3121.84671 0.06448
3120.56094 0.06384
3119.27517 0.06329
3117.98940 0.06293
3116.70364 0.06271
3115.41787 0.06250
3114.13210 0.06236
3112.84633 0.06248
3111.56056 0.06292
3110.27479 0.06336
3108.98902 0.06340
3107.70325 0.06296
3106.41749 0.06240
3105.13172 0.06213
3103.84595 0.06226
3102.56018 0.06258
3101.27441 0.06286
3099.98864 0.06305
3098.70287 0.06324
3097.41710 0.06353
3096.13133 0.06388
3094.84557 0.06408
3093.55980 0.06395
3092.27403 0.06345
3090.98826 0.06277
3089.70249 0.06225
3088.41672 0.06215
3087.13095 0.06248
3085.84518 0.06289
3084.55942 0.06292
3083.27365 0.06242
3081.98788 0.06175
3080.70211 0.06137
3079.41634 0.06141
3078.13057 0.06162
3076.84480 0.06169
3075.55903 0.06161
3074.27326 0.06160
3072.98750 0.06180
3071.70173 0.06210
3070.41596 0.06224
3069.13019 0.06208
3067.84442 0.06175
3066.55865 0.06141
3065.27288 0.06109
3063.98711 0.06066
3062.70135 0.06007
3061.41558 0.05960
3060.12981 0.05964
3058.84404 0.06023
3057.55827 0.06090
3056.27250 0.06110
3054.98673 0.06068
3053.70096 0.06002
3052.41519 0.05958
3051.12943 0.05948
3049.84366 0.05953
3048.55789 0.05953
3047.27212 0.05953
3045.98635 0.05961
3044.70058 0.05976
3043.41481 0.05987
3042.12904 0.05986
3040.84328 0.05973
3039.55751 0.05953
3038.27174 0.05928
3036.98597 0.05900
3035.70020 0.05874
3034.41443 0.05858
3033.12866 0.05850
3031.84289 0.05842
3030.55712 0.05827
3029.27136 0.05813
3027.98559 0.05807
3026.69982 0.05803
3025.41405 0.05785
3024.12828 0.05743
3022.84251 0.05691
3021.55674 0.05653
3020.27097 0.05643
3018.98521 0.05660
3017.69944 0.05695
3016.41367 0.05740
3015.12790 0.05781
3013.84213 0.05798
3012.55636 0.05779
3011.27059 0.05732
3009.98482 0.05683
3008.69905 0.05651
3007.41329 0.05642
3006.12752 0.05647
3004.84175 0.05653
3003.55598 0.05657
3002.27021 0.05669
3000.98444 0.05697
2999.69867 0.05728
2998.41290 0.05729
2997.12714 0.05693
2995.84137 0.05642
2994.55560 0.05609
2993.26983 0.05602
2991.98406 0.05606
2990.69829 0.05614
2989.41252 0.05637
2988.12675 0.05681
2986.84098 0.05738
2985.55522 0.05783
2984.26945 0.05804
2982.98368 0.05813
2981.69791 0.05826
2980.41214 0.05857
2979.12637 0.05902
2977.84060 0.05952
2976.55483 0.06001
2975.26907 0.06045
2973.98330 0.06086
2972.69753 0.06124
2971.41176 0.06160
2970.12599 0.06201
2968.84022 0.06253
2967.55445 0.06319
2966.26868 0.06405
2964.98291 0.06519
2963.69715 0.06663
2962.41138 0.06812
2961.12561 0.06928
2959.83984 0.06993
2958.55407 0.07023
2957.26830 0.07051
2955.98253 0.07094
2954.69676 0.07142
2953.41100 0.07172
2952.12523 0.07170
2950.83946 0.07145
2949.55369 0.07121
2948.26792 0.07124
2946.98215 0.07159
2945.69638 0.07214
2944.41061 0.07262
2943.12484 0.07283
2941.83908 0.07278
2940.55331 0.07269
2939.26754 0.07285
2937.98177 0.07331
2936.69600 0.07390
2935.41023 0.07439
2934.12446 0.07477
2932.83869 0.07520
2931.55293 0.07580
2930.26716 0.07652
2928.98139 0.07715
2927.69562 0.07758
2926.40985 0.07793
2925.12408 0.07832
2923.83831 0.07868
2922.55254 0.07877
2921.26677 0.07843
2919.98101 0.07769
2918.69524 0.07680
2917.40947 0.07598
2916.12370 0.07531
2914.83793 0.07475
2913.55216 0.07416
2912.26639 0.07342
2910.98062 0.07256
2909.69486 0.07178
2908.40909 0.07129
2907.12332 0.07110
2905.83755 0.07104
2904.55178 0.07094
2903.26601 0.07070
2901.98024 0.07025
2900.69447 0.06963
2899.40870 0.06897
2898.12294 0.06845
2896.83717 0.06806
2895.55140 0.06768
2894.26563 0.06718
2892.97986 0.06655
2891.69409 0.06593
2890.40832 0.06543
2889.12255 0.06507
2887.83678 0.06481
2886.55102 0.06461
2885.26525 0.06446
2883.97948 0.06436
2882.69371 0.06429
2881.40794 0.06426
2880.12217 0.06421
2878.83640 0.06408
2877.55063 0.06388
2876.26487 0.06377
2874.97910 0.06391
2873.69333 0.06437
2872.40756 0.06507
2871.12179 0.06577
2869.83602 0.06616
2868.55025 0.06617
2867.26448 0.06598
2865.97871 0.06586
2864.69295 0.06585
2863.40718 0.06584
2862.12141 0.06573
2860.83564 0.06550
2859.54987 0.06518
2858.26410 0.06484
2856.97833 0.06456
2855.69256 0.06435
2854.40680 0.06413
2853.12103 0.06379
2851.83526 0.06325
2850.54949 0.06254
2849.26372 0.06176
2847.97795 0.06100
2846.69218 0.06035
2845.40641 0.05982
2844.12064 0.05941
2842.83488 0.05897
2841.54911 0.05834
2840.26334 0.05751
2838.97757 0.05663
2837.69180 0.05592
2836.40603 0.05543
2835.12026 0.05505
2833.83449 0.05465
2832.54873 0.05417
2831.26296 0.05367
2829.97719 0.05326
2828.69142 0.05297
2827.40565 0.05270
2826.11988 0.05228
2824.83411 0.05163
2823.54834 0.05094
2822.26257 0.05046
2820.97681 0.05037
2819.69104 0.05059
2818.40527 0.05086
2817.11950 0.05089
2815.83373 0.05060
2814.54796 0.05012
2813.26219 0.04968
2811.97642 0.04937
2810.69066 0.04915
2809.40489 0.04904
2808.11912 0.04907
2806.83335 0.04918
2805.54758 0.04920
2804.26181 0.04908
2802.97604 0.04891
2801.69027 0.04878
2800.40450 0.04862
2799.11874 0.04830
2797.83297 0.04787
2796.54720 0.04752
2795.26143 0.04740
2793.97566 0.04746
2792.68989 0.04754
2791.40412 0.04752
2790.11835 0.04736
2788.83259 0.04720
2787.54682 0.04720
2786.26105 0.04740
2784.97528 0.04766
2783.68951 0.04779
2782.40374 0.04768
2781.11797 0.04737
2779.83220 0.04694
2778.54643 0.04648
2777.26067 0.04610
2775.97490 0.04592
2774.68913 0.04597
2773.40336 0.04616
2772.11759 0.04632
2770.83182 0.04634
2769.54605 0.04623
2768.26028 0.04605
2766.97452 0.04583
2765.68875 0.04565
2764.40298 0.04561
2763.11721 0.04574
2761.83144 0.04589
2760.54567 0.04587
2759.25990 0.04570
2757.97413 0.04555
2756.68836 0.04552
2755.40260 0.04548
2754.11683 0.04532
2752.83106 0.04510
2751.54529 0.04495
2750.25952 0.04497
2748.97375 0.04510
2747.68798 0.04517
2746.40221 0.04507
2745.11645 0.04487
2743.83068 0.04473
2742.54491 0.04472
2741.25914 0.04472
2739.97337 0.04459
2738.68760 0.04433
2737.40183 0.04410
2736.11606 0.04402
2734.83029 0.04409
2733.54453 0.04424
2732.25876 0.04437
2730.97299 0.04436
2729.68722 0.04412
2728.40145 0.04379
2727.11568 0.04360
2725.82991 0.04368
2724.54414 0.04389
2723.25838 0.04399
2721.97261 0.04385
2720.68684 0.04353
2719.40107 0.04322
2718.11530 0.04306
2716.82953 0.04301
2715.54376 0.04293
2714.25799 0.04275
2712.97222 0.04254
2711.68646 0.04244
2710.40069 0.04249
2709.11492 0.04258
2707.82915 0.04263
2706.54338 0.04262
2705.25761 0.04261
2703.97184 0.04261
2702.68607 0.04262
2701.40031 0.04261
2700.11454 0.04251
2698.82877 0.04226
2697.54300 0.04191
2696.25723 0.04161
2694.97146 0.04151
2693.68569 0.04160
2692.39992 0.04172
2691.11415 0.04172
2689.82839 0.04160
2688.54262 0.04144
2687.25685 0.04134
2685.97108 0.04133
2684.68531 0.04135
2683.39954 0.04131
2682.11377 0.04117
2680.82800 0.04092
2679.54224 0.04066
2678.25647 0.04053
2676.97070 0.04064
2675.68493 0.04100
2674.39916 0.04144
2673.11339 0.04179
2671.82762 0.04193
2670.54185 0.04191
2669.25608 0.04184
2667.97032 0.04184
2666.68455 0.04194
2665.39878 0.04207
2664.11301 0.04211
2662.82724 0.04201
2661.54147 0.04180
2660.25570 0.04148
2658.96993 0.04103
2657.68417 0.04056
2656.39840 0.04023
2655.11263 0.04019
2653.82686 0.04036
2652.54109 0.04058
2651.25532 0.04075
2649.96955 0.04085
2648.68378 0.04084
2647.39801 0.04070
2646.11225 0.04044
2644.82648 0.04015
2643.54071 0.03997
2642.25494 0.03997
2640.96917 0.04007
2639.68340 0.04003
2638.39763 0.03968
2637.11186 0.03906
2635.82609 0.03846
2634.54033 0.03815
2633.25456 0.03817
2631.96879 0.03838
2630.68302 0.03860
2629.39725 0.03871
2628.11148 0.03866
2626.82571 0.03848
2625.53994 0.03824
2624.25418 0.03802
2622.96841 0.03785
2621.68264 0.03766
2620.39687 0.03743
2619.11110 0.03714
2617.82533 0.03682
2616.53956 0.03654
2615.25379 0.03636
2613.96802 0.03624
2612.68226 0.03616
2611.39649 0.03622
2610.11072 0.03651
2608.82495 0.03693
2607.53918 0.03719
2606.25341 0.03705
2604.96764 0.03648
2603.68187 0.03561
2602.39611 0.03472
2601.11034 0.03415
2599.82457 0.03417
2598.53880 0.03473
2597.25303 0.03544
2595.96726 0.03585
2594.68149 0.03581
2593.39572 0.03547
2592.10995 0.03509
2590.82419 0.03476
2589.53842 0.03451
2588.25265 0.03439
2586.96688 0.03438
2585.68111 0.03431
2584.39534 0.03401
2583.10957 0.03363
2581.82380 0.03357
2580.53804 0.03402
2579.25227 0.03471
2577.96650 0.03518
2576.68073 0.03513
2575.39496 0.03461
2574.10919 0.03393
2572.82342 0.03343
2571.53765 0.03328
2570.25188 0.03337
2568.96612 0.03340
2567.68035 0.03330
2566.39458 0.03321
2565.10881 0.03337
2563.82304 0.03375
2562.53727 0.03415
2561.25150 0.03435
2559.96573 0.03419
2558.67997 0.03365
2557.39420 0.03294
2556.10843 0.03254
2554.82266 0.03278
2553.53689 0.03344
2552.25112 0.03385
2550.96535 0.03357
2549.67958 0.03281
2548.39381 0.03215
2547.10805 0.03199
2545.82228 0.03226
2544.53651 0.03262
2543.25074 0.03277
2541.96497 0.03263
2540.67920 0.03234
2539.39343 0.03210
2538.10766 0.03200
2536.82190 0.03204
2535.53613 0.03219
2534.25036 0.03241
2532.96459 0.03254
2531.67882 0.03250
2530.39305 0.03234
2529.10728 0.03213
2527.82151 0.03181
2526.53574 0.03132
2525.24998 0.03091
2523.96421 0.03094
2522.67844 0.03146
2521.39267 0.03209
2520.10690 0.03238
2518.82113 0.03215
2517.53536 0.03163
2516.24959 0.03124
2514.96383 0.03132
2513.67806 0.03181
2512.39229 0.03239
2511.10652 0.03272
2509.82075 0.03272
2508.53498 0.03249
2507.24921 0.03221
2505.96344 0.03210
2504.67767 0.03218
2503.39191 0.03224
2502.10614 0.03196
2500.82037 0.03140
2499.53460 0.03100
2498.24883 0.03114
2496.96306 0.03167
2495.67729 0.03214
2494.39152 0.03224
2493.10576 0.03208
2491.81999 0.03190
2490.53422 0.03183
2489.24845 0.03173
2487.96268 0.03152
2486.67691 0.03133
2485.39114 0.03132
2484.10537 0.03148
2482.81960 0.03156
2481.53384 0.03130
2480.24807 0.03068
2478.96230 0.02997
2477.67653 0.02950
2476.39076 0.02943
2475.10499 0.02965
2473.81922 0.02990
2472.53345 0.02999
2471.24769 0.02989
2469.96192 0.02971
2468.67615 0.02961
2467.39038 0.02970
2466.10461 0.02998
2464.81884 0.03036
2463.53307 0.03071
2462.24730 0.03096
2460.96153 0.03107
2459.67577 0.03104
2458.39000 0.03089
2457.10423 0.03067
2455.81846 0.03049
2454.53269 0.03037
2453.24692 0.03028
2451.96115 0.03013
2450.67538 0.03000
2449.38962 0.03007
2448.10385 0.03040
2446.81808 0.03074
2445.53231 0.03077
2444.24654 0.03045
2442.96077 0.03010
2441.67500 0.03011
2440.38923 0.03047
2439.10346 0.03077
2437.81770 0.03064
2436.53193 0.03010
2435.24616 0.02959
2433.96039 0.02953
2432.67462 0.02994
2431.38885 0.03039
2430.10308 0.03048
2428.81731 0.03014
2427.53155 0.02961
2426.24578 0.02916
2424.96001 0.02887
2423.67424 0.02875
2422.38847 0.02874
2421.10270 0.02876
2419.81693 0.02878
2418.53116 0.02884
2417.24539 0.02899
2415.95963 0.02913
2414.67386 0.02910
2413.38809 0.02884
2412.10232 0.02849
2410.81655 0.02820
2409.53078 0.02809
2408.24501 0.02818
2406.95924 0.02839
2405.67347 0.02852
2404.38771 0.02847
2403.10194 0.02829
2401.81617 0.02816
2400.53040 0.02811
2399.24463 0.02804
2397.95886 0.02793
2396.67309 0.02789
2395.38732 0.02797
2394.10156 0.02813
2392.81579 0.02828
2391.53002 0.02838
2390.24425 0.02843
2388.95848 0.02848
2387.67271 0.02852
2386.38694 0.02858
2385.10117 0.02867
2383.81540 0.02881
2382.52964 0.02897
2381.24387 0.02913
2379.95810 0.02929
2378.67233 0.02941
2377.38656 0.02943
2376.10079 0.02926
2374.81502 0.02890
2373.52925 0.02846
2372.24349 0.02808
2370.95772 0.02786
2369.67195 0.02785
2368.38618 0.02801
2367.10041 0.02832
2365.81464 0.02871
2364.52887 0.02907
2363.24310 0.02928
2361.95733 0.02925
2360.67157 0.02896
2359.38580 0.02851
2358.10003 0.02813
2356.81426 0.02804
2355.52849 0.02829
2354.24272 0.02867
2352.95695 0.02893
2351.67118 0.02901
2350.38542 0.02899
2349.09965 0.02897
2347.81388 0.02894
2346.52811 0.02888
2345.24234 0.02885
2343.95657 0.02891
2342.67080 0.02905
2341.38503 0.02916
2340.09926 0.02919
2338.81350 0.02919
2337.52773 0.02921
2336.24196 0.02921
2334.95619 0.02913
2333.67042 0.02900
2332.38465 0.02891
2331.09888 0.02894
2329.81311 0.02907
2328.52735 0.02930
2327.24158 0.02959
2325.95581 0.02993
2324.67004 0.03020
2323.38427 0.03027
2322.09850 0.03011
2320.81273 0.02978
2319.52696 0.02942
2318.24119 0.02910
2316.95543 0.02886
2315.66966 0.02870
2314.38389 0.02861
2313.09812 0.02850
2311.81235 0.02829
2310.52658 0.02793
2309.24081 0.02749
2307.95504 0.02714
2306.66928 0.02697
2305.38351 0.02698
2304.09774 0.02699
2302.81197 0.02686
2301.52620 0.02659
2300.24043 0.02634
2298.95466 0.02623
2297.66889 0.02622
2296.38312 0.02612
2295.09736 0.02585
2293.81159 0.02555
2292.52582 0.02546
2291.24005 0.02571
2289.95428 0.02617
2288.66851 0.02653
2287.38274 0.02656
2286.09697 0.02619
2284.81121 0.02555
2283.52544 0.02493
2282.23967 0.02464
2280.95390 0.02484
2279.66813 0.02541
2278.38236 0.02601
2277.09659 0.02628
2275.81082 0.02609
2274.52505 0.02549
2273.23929 0.02470
2271.95352 0.02396
2270.66775 0.02346
2269.38198 0.02319
2268.09621 0.02304
2266.81044 0.02295
2265.52467 0.02293
2264.23890 0.02305
2262.95314 0.02331
2261.66737 0.02372
2260.38160 0.02430
2259.09583 0.02482
2257.81006 0.02486
2256.52429 0.02410
2255.23852 0.02281
2253.95275 0.02163
2252.66698 0.02105
2251.38122 0.02102
2250.09545 0.02121
2248.80968 0.02133
2247.52391 0.02124
2246.23814 0.02108
2244.95237 0.02106
2243.66660 0.02128
2242.38083 0.02152
2241.09507 0.02139
2239.80930 0.02078
2238.52353 0.02000
2237.23776 0.01954
2235.95199 0.01971
2234.66622 0.02044
2233.38045 0.02136
2232.09468 0.02204
2230.80891 0.02209
2229.52315 0.02140
2228.23738 0.02022
2226.95161 0.01906
2225.66584 0.01844
2224.38007 0.01847
2223.09430 0.01872
2221.80853 0.01859
2220.52276 0.01794
2219.23700 0.01723
2217.95123 0.01701
2216.66546 0.01722
2215.37969 0.01729
2214.09392 0.01683
2212.80815 0.01602
2211.52238 0.01539
2210.23661 0.01533
2208.95084 0.01585
2207.66508 0.01663
2206.37931 0.01736
2205.09354 0.01794
2203.80777 0.01834
2202.52200 0.01849
2201.23623 0.01832
2199.95046 0.01792
2198.66469 0.01744
2197.37893 0.01704
2196.09316 0.01684
2194.80739 0.01669
2193.52162 0.01621
2192.23585 0.01523
2190.95008 0.01424
2189.66431 0.01414
2188.37854 0.01527
2187.09277 0.01689
2185.80701 0.01776
2184.52124 0.01726
2183.23547 0.01583
2181.94970 0.01443
2180.66393 0.01376
2179.37816 0.01399
2178.09239 0.01498
2176.80662 0.01629
2175.52085 0.01723
2174.23509 0.01730
2172.94932 0.01661
2171.66355 0.01569
2170.37778 0.01509
2169.09201 0.01515
2167.80624 0.01575
2166.52047 0.01614
2165.23470 0.01558
2163.94894 0.01428
2162.66317 0.01306
2161.37740 0.01221
2160.09163 0.01120
2158.80586 0.00985
2157.52009 0.00884
2156.23432 0.00867
2154.94855 0.00887
2153.66278 0.00878
2152.37702 0.00838
2151.09125 0.00824
2149.80548 0.00869
2148.51971 0.00957
2147.23394 0.01049
2145.94817 0.01116
2144.66240 0.01156
2143.37663 0.01191
2142.09087 0.01249
2140.80510 0.01337
2139.51933 0.01423
2138.23356 0.01473
2136.94779 0.01479
2135.66202 0.01465
2134.37625 0.01455
2133.09048 0.01456
2131.80471 0.01465
2130.51895 0.01491
2129.23318 0.01551
2127.94741 0.01644
2126.66164 0.01736
2125.37587 0.01783
2124.09010 0.01777
2122.80433 0.01747
2121.51856 0.01720
2120.23280 0.01699
2118.94703 0.01679
2117.66126 0.01673
2116.37549 0.01700
2115.08972 0.01752
2113.80395 0.01793
2112.51818 0.01789
2111.23241 0.01744
2109.94664 0.01685
2108.66088 0.01640
2107.37511 0.01616
2106.08934 0.01610
2104.80357 0.01609
2103.51780 0.01592
2102.23203 0.01545
2100.94626 0.01499
2099.66049 0.01664
2098.37473 0.01777
2097.08896 0.01799
2095.80319 0.01755
2094.51742 0.01667
2093.23165 0.01579
2091.94588 0.01532
2090.66011 0.01537
2089.37434 0.01576
2088.08857 0.01617
2086.80281 0.01638
2085.51704 0.01639
2084.23127 0.01633
2082.94550 0.01636
2081.65973 0.01641
2080.37396 0.01630
2079.08819 0.01594
2077.80242 0.01537
2076.51666 0.01485
2075.23089 0.01463
2073.94512 0.01485
2072.65935 0.01532
2071.37358 0.01563
2070.08781 0.01546
2068.80204 0.01494
2067.51627 0.01449
2066.23050 0.01441
2064.94474 0.01454
2063.65897 0.01446
2062.37320 0.01389
2061.08743 0.01295
2059.80166 0.01204
2058.51589 0.01148
2057.23012 0.01135
2055.94435 0.01162
2054.65859 0.01235
2053.37282 0.01353
2052.08705 0.01483
2050.80128 0.01574
2049.51551 0.01601
2048.22974 0.01572
2046.94397 0.01504
2045.65820 0.01400
2044.37243 0.01264
2043.08667 0.01118
2041.80090 0.00989
2040.51513 0.00904
2039.22936 0.00881
2037.94359 0.00920
2036.65782 0.00992
2035.37205 0.01052
2034.08628 0.01078
2032.80052 0.01076
2031.51475 0.01062
2030.22898 0.01045
2028.94321 0.01040
2027.65744 0.01063
2026.37167 0.01116
2025.08590 0.01176
2023.80013 0.01202
2022.51436 0.01167
2021.22860 0.01073
2019.94283 0.00957
2018.65706 0.00859
2017.37129 0.00806
2016.08552 0.00814
2014.79975 0.00891
2013.51398 0.01028
2012.22821 0.01187
2010.94245 0.01330
2009.65668 0.01437
2008.37091 0.01501
2007.08514 0.01507
2005.79937 0.01447
2004.51360 0.01341
2003.22783 0.01226
2001.94206 0.01127
2000.65629 0.01060
1999.37053 0.01041
1998.08476 0.01070
1996.79899 0.01122
1995.51322 0.01157
1994.22745 0.01156
1992.94168 0.01138
1991.65591 0.01141
1990.37014 0.01184
1989.08438 0.01244
1987.79861 0.01277
1986.51284 0.01267
1985.22707 0.01244
1983.94130 0.01253
1982.65553 0.01323
1981.36976 0.01444
1980.08399 0.01578
1978.79822 0.01684
1977.51246 0.01736
1976.22669 0.01737
1974.94092 0.01708
1973.65515 0.01674
1972.36938 0.01650
1971.08361 0.01629
1969.79784 0.01594
1968.51207 0.01542
1967.22631 0.01485
1965.94054 0.01439
1964.65477 0.01404
1963.36900 0.01377
1962.08323 0.01358
1960.79746 0.01347
1959.51169 0.01338
1958.22592 0.01316
1956.94015 0.01275
1955.65439 0.01229
1954.36862 0.01210
1953.08285 0.01243
1951.79708 0.01323
1950.51131 0.01418
1949.22554 0.01501
1947.93977 0.01561
1946.65400 0.01595
1945.36823 0.01609
1944.08247 0.01621
1942.79670 0.01647
1941.51093 0.01682
1940.22516 0.01702
1938.93939 0.01689
1937.65362 0.01647
1936.36785 0.01597
1935.08208 0.01565
1933.79632 0.01569
1932.51055 0.01610
1931.22478 0.01668
1929.93901 0.01714
1928.65324 0.01733
1927.36747 0.01731
1926.08170 0.01725
1924.79593 0.01722
1923.51016 0.01712
1922.22440 0.01684
1920.93863 0.01642
1919.65286 0.01597
1918.36709 0.01565
1917.08132 0.01561
1915.79555 0.01589
1914.50978 0.01634
1913.22401 0.01666
1911.93825 0.01661
1910.65248 0.01624
1909.36671 0.01580
1908.08094 0.01559
1906.79517 0.01576
1905.50940 0.01621
1904.22363 0.01672
1902.93786 0.01713
1901.65209 0.01727
1900.36633 0.01706
1899.08056 0.01654
1897.79479 0.01593
1896.50902 0.01550
1895.22325 0.01539
1893.93748 0.01561
1892.65171 0.01606
1891.36594 0.01656
1890.08018 0.01688
1888.79441 0.01694
1887.50864 0.01687
1886.22287 0.01685
1884.93710 0.01698
1883.65133 0.01719
1882.36556 0.01735
1881.07979 0.01740
1879.79402 0.01738
1878.50826 0.01735
1877.22249 0.01736
1875.93672 0.01739
1874.65095 0.01741
1873.36518 0.01744
1872.07941 0.01746
1870.79364 0.01743
1869.50787 0.01735
1868.22211 0.01729
1866.93634 0.01728
1865.65057 0.01729
1864.36480 0.01725
1863.07903 0.01717
1861.79326 0.01718
1860.50749 0.01732
1859.22172 0.01750
1857.93595 0.01763
1856.65019 0.01767
1855.36442 0.01764
1854.07865 0.01754
1852.79288 0.01735
1851.50711 0.01719
1850.22134 0.01716
1848.93557 0.01725
1847.64980 0.01730
1846.36404 0.01718
1845.07827 0.01693
1843.79250 0.01670
1842.50673 0.01659
1841.22096 0.01659
1839.93519 0.01659
1838.64942 0.01652
1837.36365 0.01642
1836.07788 0.01639
1834.79212 0.01652
1833.50635 0.01680
1832.22058 0.01714
1830.93481 0.01744
1829.64904 0.01767
1828.36327 0.01783
1827.07750 0.01796
1825.79173 0.01804
1824.50597 0.01804
1823.22020 0.01795
1821.93443 0.01785
1820.64866 0.01787
1819.36289 0.01797
1818.07712 0.01798
1816.79135 0.01775
1815.50558 0.01732
1814.21981 0.01694
1812.93405 0.01674
1811.64828 0.01671
1810.36251 0.01674
1809.07674 0.01675
1807.79097 0.01672
1806.50520 0.01669
1805.21943 0.01671
1803.93366 0.01680
1802.64790 0.01694
1801.36213 0.01705
1800.07636 0.01710
1798.79059 0.01711
1797.50482 0.01710
1796.21905 0.01711
1794.93328 0.01722
1793.64751 0.01747
1792.36174 0.01775
1791.07598 0.01792
1789.79021 0.01794
1788.50444 0.01795
1787.21867 0.01802
1785.93290 0.01813
1784.64713 0.01818
1783.36136 0.01815
1782.07559 0.01806
1780.78983 0.01795
1779.50406 0.01784
1778.21829 0.01772
1776.93252 0.01763
1775.64675 0.01761
1774.36098 0.01766
1773.07521 0.01771
1771.78944 0.01768
1770.50367 0.01757
1769.21791 0.01745
1767.93214 0.01738
1766.64637 0.01738
1765.36060 0.01743
1764.07483 0.01749
1762.78906 0.01755
1761.50329 0.01758
1760.21752 0.01756
1758.93176 0.01750
1757.64599 0.01745
1756.36022 0.01745
1755.07445 0.01755
1753.78868 0.01773
1752.50291 0.01794
1751.21714 0.01809
1749.93137 0.01815
1748.64560 0.01810
1747.35984 0.01797
1746.07407 0.01781
1744.78830 0.01769
1743.50253 0.01768
1742.21676 0.01776
1740.93099 0.01789
1739.64522 0.01801
1738.35945 0.01813
1737.07369 0.01828
1735.78792 0.01843
1734.50215 0.01848
1733.21638 0.01841
1731.93061 0.01829
1730.64484 0.01821
1729.35907 0.01824
1728.07330 0.01836
1726.78753 0.01853
1725.50177 0.01866
1724.21600 0.01870
1722.93023 0.01872
1721.64446 0.01883
1720.35869 0.01911
1719.07292 0.01948
1717.78715 0.01979
1716.50138 0.01999
1715.21561 0.02011
1713.92985 0.02023
1712.64408 0.02043
1711.35831 0.02075
1710.07254 0.02119
1708.78677 0.02168
1707.50100 0.02215
1706.21523 0.02259
1704.92946 0.02310
1703.64370 0.02384
1702.35793 0.02483
1701.07216 0.02593
1699.78639 0.02691
1698.50062 0.02771
1697.21485 0.02838
1695.92908 0.02896
1694.64331 0.02943
1693.35754 0.02979
1692.07178 0.03014
1690.78601 0.03061
1689.50024 0.03129
1688.21447 0.03224
1686.92870 0.03335
1685.64293 0.03443
1684.35716 0.03525
1683.07139 0.03576
1681.78563 0.03612
1680.49986 0.03656
1679.21409 0.03721
1677.92832 0.03806
1676.64255 0.03898
1675.35678 0.03986
1674.07101 0.04066
1672.78524 0.04140
1671.49947 0.04214
1670.21371 0.04286
1668.92794 0.04353
1667.64217 0.04418
1666.35640 0.04489
1665.07063 0.04565
1663.78486 0.04641
1662.49909 0.04704
1661.21332 0.04754
1659.92756 0.04796
1658.64179 0.04842
1657.35602 0.04900
1656.07025 0.04974
1654.78448 0.05054
1653.49871 0.05116
1652.21294 0.05141
1650.92717 0.05137
1649.64140 0.05130
1648.35564 0.05136
1647.06987 0.05146
1645.78410 0.05144
1644.49833 0.05125
1643.21256 0.05102
1641.92679 0.05086
1640.64102 0.05077
1639.35525 0.05070
1638.06949 0.05061
1636.78372 0.05042
1635.49795 0.05006
1634.21218 0.04951
1632.92641 0.04884
1631.64064 0.04814
1630.35487 0.04745
1629.06910 0.04680
1627.78333 0.04621
1626.49757 0.04566
1625.21180 0.04511
1623.92603 0.04448
1622.64026 0.04376
1621.35449 0.04305
1620.06872 0.04251
1618.78295 0.04217
1617.49718 0.04188
1616.21142 0.04147
1614.92565 0.04091
1613.63988 0.04033
1612.35411 0.03988
1611.06834 0.03955
1609.78257 0.03926
1608.49680 0.03896
1607.21103 0.03867
1605.92526 0.03846
1604.63950 0.03837
1603.35373 0.03835
1602.06796 0.03838
1600.78219 0.03842
1599.49642 0.03848
1598.21065 0.03856
1596.92488 0.03867
1595.63911 0.03882
1594.35335 0.03900
1593.06758 0.03922
1591.78181 0.03947
1590.49604 0.03974
1589.21027 0.04000
1587.92450 0.04026
1586.63873 0.04054
1585.35296 0.04088
1584.06719 0.04128
1582.78143 0.04175
1581.49566 0.04232
1580.20989 0.04301
1578.92412 0.04379
1577.63835 0.04457
1576.35258 0.04520
1575.06681 0.04561
1573.78104 0.04592
1572.49528 0.04630
1571.20951 0.04686
1569.92374 0.04752
1568.63797 0.04813
1567.35220 0.04863
1566.06643 0.04907
1564.78066 0.04953
1563.49489 0.05011
1562.20912 0.05085
1560.92336 0.05169
1559.63759 0.05248
1558.35182 0.05302
1557.06605 0.05326
1555.78028 0.05335
1554.49451 0.05347
1553.20874 0.05370
1551.92297 0.05399
1550.63721 0.05425
1549.35144 0.05444
1548.06567 0.05457
1546.77990 0.05467
1545.49413 0.05478
1544.20836 0.05492
1542.92259 0.05511
1541.63682 0.05528
1540.35105 0.05528
1539.06529 0.05502
1537.77952 0.05457
1536.49375 0.05415
1535.20798 0.05391
1533.92221 0.05384
1532.63644 0.05386
1531.35067 0.05392
1530.06490 0.05407
1528.77914 0.05434
1527.49337 0.05473
1526.20760 0.05519
1524.92183 0.05570
1523.63606 0.05627
1522.35029 0.05688
1521.06452 0.05747
1519.77875 0.05803
1518.49298 0.05860
1517.20722 0.05920
1515.92145 0.05985
1514.63568 0.06056
1513.34991 0.06135
1512.06414 0.06223
1510.77837 0.06321
1509.49260 0.06429
1508.20683 0.06541
1506.92107 0.06642
1505.63530 0.06721
1504.34953 0.06778
1503.06376 0.06831
1501.77799 0.06896
1500.49222 0.06976
1499.20645 0.07061
1497.92068 0.07136
1496.63491 0.07193
1495.34915 0.07234
1494.06338 0.07270
1492.77761 0.07313
1491.49184 0.07374
1490.20607 0.07449
1488.92030 0.07528
1487.63453 0.07603
1486.34876 0.07674
1485.06299 0.07748
1483.77723 0.07830
1482.49146 0.07923
1481.20569 0.08027
1479.91992 0.08139
1478.63415 0.08255
1477.34838 0.08369
1476.06261 0.08477
1474.77684 0.08577
1473.49108 0.08665
1472.20531 0.08741
1470.91954 0.08805
1469.63377 0.08867
1468.34800 0.08935
1467.06223 0.09009
1465.77646 0.09082
1464.49069 0.09148
1463.20492 0.09209
1461.91916 0.09276
1460.63339 0.09361
1459.34762 0.09459
1458.06185 0.09559
1456.77608 0.09645
1455.49031 0.09714
1454.20454 0.09772
1452.91877 0.09824
1451.63301 0.09870
1450.34724 0.09905
1449.06147 0.09925
1447.77570 0.09932
1446.48993 0.09927
1445.20416 0.09916
1443.91839 0.09901
1442.63262 0.09884
1441.34685 0.09867
1440.06109 0.09853
1438.77532 0.09845
1437.48955 0.09844
1436.20378 0.09846
1434.91801 0.09852
1433.63224 0.09868
1432.34647 0.09903
1431.06070 0.09963
1429.77494 0.10044
1428.48917 0.10140
1427.20340 0.10245
1425.91763 0.10354
1424.63186 0.10468
1423.34609 0.10590
1422.06032 0.10717
1420.77455 0.10842
1419.48878 0.10953
1418.20302 0.11044
1416.91725 0.11116
1415.63148 0.11173
1414.34571 0.11220
1413.05994 0.11258
1411.77417 0.11282
1410.48840 0.11289
1409.20263 0.11272
1407.91687 0.11231
1406.63110 0.11171
1405.34533 0.11096
1404.05956 0.11006
1402.77379 0.10896
1401.48802 0.10766
1400.20225 0.10618
1398.91648 0.10457
1397.63071 0.10287
1396.34495 0.10108
1395.05918 0.09919
1393.77341 0.09721
1392.48764 0.09520
1391.20187 0.09324
1389.91610 0.09136
1388.63033 0.08955
1387.34456 0.08771
1386.05880 0.08580
1384.77303 0.08382
1383.48726 0.08186
1382.20149 0.08002
1380.91572 0.07830
1379.62995 0.07663
1378.34418 0.07493
1377.05841 0.07311
1375.77264 0.07114
1374.48688 0.06905
1373.20111 0.06689
1371.91534 0.06475
1370.62957 0.06269
1369.34380 0.06077
1368.05803 0.05900
1366.77226 0.05737
1365.48649 0.05583
1364.20073 0.05433
1362.91496 0.05284
1361.62919 0.05136
1360.34342 0.04994
1359.05765 0.04863
1357.77188 0.04744
1356.48611 0.04636
1355.20034 0.04539
1353.91457 0.04454
1352.62881 0.04380
1351.34304 0.04316
1350.05727 0.04259
1348.77150 0.04206
1347.48573 0.04150
1346.19996 0.04090
1344.91419 0.04029
1343.62842 0.03974
1342.34266 0.03928
1341.05689 0.03889
1339.77112 0.03851
1338.48535 0.03811
1337.19958 0.03767
1335.91381 0.03721
1334.62804 0.03672
1333.34227 0.03623
1332.05650 0.03574
1330.77074 0.03529
1329.48497 0.03491
1328.19920 0.03458
1326.91343 0.03431
1325.62766 0.03408
1324.34189 0.03383
1323.05612 0.03355
1321.77035 0.03323
1320.48459 0.03290
1319.19882 0.03256
1317.91305 0.03221
1316.62728 0.03186
1315.34151 0.03155
1314.05574 0.03129
1312.76997 0.03106
1311.48420 0.03085
1310.19843 0.03063
1308.91267 0.03041
1307.62690 0.03017
1306.34113 0.02994
1305.05536 0.02971
1303.76959 0.02951
1302.48382 0.02932
1301.19805 0.02913
1299.91228 0.02892
1298.62652 0.02868
1297.34075 0.02840
1296.05498 0.02811
1294.76921 0.02783
1293.48344 0.02758
1292.19767 0.02736
1290.91190 0.02716
1289.62613 0.02698
1288.34036 0.02681
1287.05460 0.02668
1285.76883 0.02660
1284.48306 0.02656
1283.19729 0.02651
1281.91152 0.02642
1280.62575 0.02629
1279.33998 0.02614
1278.05421 0.02600
1276.76845 0.02588
1275.48268 0.02578
1274.19691 0.02571
1272.91114 0.02565
1271.62537 0.02559
1270.33960 0.02549
1269.05383 0.02532
1267.76806 0.02512
1266.48229 0.02494
1265.19653 0.02483
1263.91076 0.02477
1262.62499 0.02475
1261.33922 0.02474
1260.05345 0.02474
1258.76768 0.02475
1257.48191 0.02475
1256.19614 0.02473
1254.91037 0.02466
1253.62461 0.02457
1252.33884 0.02446
1251.05307 0.02436
1249.76730 0.02431
1248.48153 0.02430
1247.19576 0.02430
1245.90999 0.02430
1244.62422 0.02427
1243.33846 0.02421
1242.05269 0.02414
1240.76692 0.02408
1239.48115 0.02401
1238.19538 0.02391
1236.90961 0.02378
1235.62384 0.02361
1234.33807 0.02344
1233.05230 0.02324
1231.76654 0.02302
1230.48077 0.02280
1229.19500 0.02261
1227.90923 0.02246
1226.62346 0.02235
1225.33769 0.02223
1224.05192 0.02208
1222.76615 0.02190
1221.48039 0.02171
1220.19462 0.02151
1218.90885 0.02135
1217.62308 0.02122
1216.33731 0.02110
1215.05154 0.02096
1213.76577 0.02081
1212.48000 0.02069
1211.19423 0.02063
1209.90847 0.02062
1208.62270 0.02060
1207.33693 0.02058
1206.05116 0.02058
1204.76539 0.02061
1203.47962 0.02064
1202.19385 0.02061
1200.90808 0.02043
1199.62232 0.02009
1198.33655 0.02002
1197.05078 0.01999
1195.76501 0.01996
1194.47924 0.01990
1193.19347 0.01982
1191.90770 0.01973
1190.62193 0.01961
1189.33616 0.01946
1188.05040 0.01931
1186.76463 0.01919
1185.47886 0.01912
1184.19309 0.01907
1182.90732 0.01901
1181.62155 0.01894
1180.33578 0.01889
1179.05001 0.01882
1177.76425 0.01875
1176.47848 0.01867
1175.19271 0.01862
1173.90694 0.01864
1172.62117 0.01873
1171.33540 0.01888
1170.04963 0.01906
1168.76386 0.01925
1167.47809 0.01941
1166.19233 0.01954
1164.90656 0.01962
1163.62079 0.01967
1162.33502 0.01970
1161.04925 0.01972
1159.76348 0.01973
1158.47771 0.01978
1157.19194 0.01991
1155.90618 0.02012
1154.62041 0.02035
1153.33464 0.02053
1152.04887 0.02070
1150.76310 0.02089
1149.47733 0.02114
1148.19156 0.02146
1146.90579 0.02187
1145.62002 0.02235
1144.33426 0.02287
1143.04849 0.02342
1141.76272 0.02398
1140.47695 0.02459
1139.19118 0.02528
1137.90541 0.02603
1136.61964 0.02683
1135.33387 0.02774
1134.04811 0.02887
1132.76234 0.03030
1131.47657 0.03204
1130.19080 0.03399
1128.90503 0.03610
1127.61926 0.03831
1126.33349 0.04064
1125.04772 0.04309
1123.76195 0.04569
1122.47619 0.04845
1121.19042 0.05129
1119.90465 0.05414
1118.61888 0.05696
1117.33311 0.05977
1116.04734 0.06265
1114.76157 0.06561
1113.47580 0.06858
1112.19004 0.07147
1110.90427 0.07422
1109.61850 0.07688
1108.33273 0.07948
1107.04696 0.08205
1105.76119 0.08456
1104.47542 0.08696
1103.18965 0.08926
1101.90388 0.09150
1100.61812 0.09370
1099.33235 0.09584
1098.04658 0.09785
1096.76081 0.09974
1095.47504 0.10156
1094.18927 0.10335
1092.90350 0.10507
1091.61773 0.10665
1090.33197 0.10809
1089.04620 0.10948
1087.76043 0.11089
1086.47466 0.11236
1085.18889 0.11386
1083.90312 0.11535
1082.61735 0.11687
1081.33158 0.11848
1080.04581 0.12024
1078.76005 0.12218
1077.47428 0.12429
1076.18851 0.12651
1074.90274 0.12879
1073.61697 0.13111
1072.33120 0.13352
1071.04543 0.13604
1069.75966 0.13866
1068.47390 0.14130
1067.18813 0.14395
1065.90236 0.14665
1064.61659 0.14946
1063.33082 0.15239
1062.04505 0.15537
1060.75928 0.15831
1059.47351 0.16122
1058.18774 0.16413
1056.90198 0.16703
1055.61621 0.16990
1054.33044 0.17268
1053.04467 0.17536
1051.75890 0.17802
1050.47313 0.18072
1049.18736 0.18354
1047.90159 0.18647
1046.61583 0.18948
1045.33006 0.19251
1044.04429 0.19552
1042.75852 0.19853
1041.47275 0.20159
1040.18698 0.20472
1038.90121 0.20792
1037.61544 0.21111
1036.32967 0.21422
1035.04391 0.21721
1033.75814 0.22009
1032.47237 0.22289
1031.18660 0.22558
1029.90083 0.22810
1028.61506 0.23037
1027.32929 0.23234
1026.04352 0.23400
1024.75775 0.23538
1023.47199 0.23655
1022.18622 0.23747
1020.90045 0.23808
1019.61468 0.23827
1018.32891 0.23803
1017.04314 0.23739
1015.75737 0.23640
1014.47160 0.23504
1013.18584 0.23326
1011.90007 0.23105
1010.61430 0.22845
1009.32853 0.22551
1008.04276 0.22223
1006.75699 0.21861
1005.47122 0.21464
1004.18545 0.21033
1002.89968 0.20574
1001.61392 0.20095
1000.32815 0.19604
999.04238 0.19106
997.75661 0.18598
996.47084 0.18076
995.18507 0.17542
993.89930 0.17001
992.61353 0.16457
991.32777 0.15915
990.04200 0.15388
988.75623 0.14888
987.47046 0.14417
986.18469 0.13964
984.89892 0.13516
983.61315 0.13071
982.32738 0.12638
981.04161 0.12229
979.75585 0.11850
978.47008 0.11501
977.18431 0.11183
975.89854 0.10893
974.61277 0.10635
973.32700 0.10413
972.04123 0.10232
970.75546 0.10096
969.46970 0.10008
968.18393 0.09967
966.89816 0.09971
965.61239 0.10013
964.32662 0.10080
963.04085 0.10155
961.75508 0.10216
960.46931 0.10233
959.18354 0.10188
957.89778 0.10079
956.61201 0.09923
955.32624 0.09738
954.04047 0.09530
952.75470 0.09304
951.46893 0.09069
950.18316 0.08842
948.89739 0.08632
947.61163 0.08437
946.32586 0.08251
945.04009 0.08068
943.75432 0.07887
942.46855 0.07708
941.18278 0.07536
939.89701 0.07371
938.61124 0.07214
937.32547 0.07063
936.03971 0.06917
934.75394 0.06776
933.46817 0.06645
932.18240 0.06527
930.89663 0.06418
929.61086 0.06309
928.32509 0.06197
927.03932 0.06085
925.75356 0.05978
924.46779 0.05882
923.18202 0.05801
921.89625 0.05730
920.61048 0.05664
919.32471 0.05594
918.03894 0.05517
916.75317 0.05442
915.46740 0.05377
914.18164 0.05321
912.89587 0.05269
911.61010 0.05215
910.32433 0.05157
909.03856 0.05098
907.75279 0.05042
906.46702 0.04995
905.18125 0.04958
903.89549 0.04921
902.60972 0.04874
901.32395 0.04811
900.03818 0.04743
898.75241 0.04681
897.46664 0.04628
896.18087 0.04587
894.89510 0.04556
893.60933 0.04533
892.32357 0.04513
891.03780 0.04494
889.75203 0.04484
888.46626 0.04499
887.18049 0.04553
885.89472 0.04659
884.60895 0.04823
883.32318 0.05047
882.03742 0.05322
880.75165 0.05619
879.46588 0.05899
878.18011 0.06132
876.89434 0.06322
875.60857 0.06489
874.32280 0.06640
873.03703 0.06759
871.75126 0.06823
870.46550 0.06815
869.17973 0.06734
867.89396 0.06586
866.60819 0.06385
865.32242 0.06152
864.03665 0.05908
862.75088 0.05668
861.46511 0.05443
860.17935 0.05239
858.89358 0.05061
857.60781 0.04909
856.32204 0.04785
855.03627 0.04684
853.75050 0.04604
852.46473 0.04536
851.17896 0.04473
849.89319 0.04410
848.60743 0.04348
847.32166 0.04290
846.03589 0.04239
844.75012 0.04190
843.46435 0.04143
842.17858 0.04097
840.89281 0.04057
839.60704 0.04023
838.32128 0.03990
837.03551 0.03960
835.74974 0.03934
834.46397 0.03914
833.17820 0.03898
831.89243 0.03879
830.60666 0.03851
829.32089 0.03812
828.03512 0.03773
826.74936 0.03744
825.46359 0.03725
824.17782 0.03707
822.89205 0.03684
821.60628 0.03665
820.32051 0.03658
819.03474 0.03660
817.74897 0.03660
816.46321 0.03651
815.17744 0.03636
813.89167 0.03620
812.60590 0.03603
811.32013 0.03581
810.03436 0.03555
808.74859 0.03530
807.46282 0.03517
806.17705 0.03519
804.89129 0.03531
803.60552 0.03541
802.31975 0.03536
801.03398 0.03517
799.74821 0.03493
798.46244 0.03478
797.17667 0.03480
795.89090 0.03489
794.60513 0.03493
793.31937 0.03486
792.03360 0.03474
790.74783 0.03464
789.46206 0.03454
788.17629 0.03439
786.89052 0.03418
785.60475 0.03397
784.31898 0.03382
783.03322 0.03372
781.74745 0.03364
780.46168 0.03359
779.17591 0.03363
777.89014 0.03376
776.60437 0.03387
775.31860 0.03389
774.03283 0.03384
772.74706 0.03380
771.46130 0.03378
770.17553 0.03374
768.88976 0.03365
767.60399 0.03355
766.31822 0.03349
765.03245 0.03346
763.74668 0.03345
762.46091 0.03342
761.17515 0.03342
759.88938 0.03348
758.60361 0.03362
757.31784 0.03373
756.03207 0.03372
754.74630 0.03357
753.46053 0.03335
752.17476 0.03318
750.88899 0.03310
749.60323 0.03307
748.31746 0.03303
747.03169 0.03290
745.74592 0.03271
744.46015 0.03257
743.17438 0.03258
741.88861 0.03274
740.60284 0.03293
739.31708 0.03302
738.03131 0.03295
736.74554 0.03277
735.45977 0.03255
734.17400 0.03234
732.88823 0.03219
731.60246 0.03216
730.31669 0.03227
729.03092 0.03249
727.74516 0.03271
726.45939 0.03285
725.17362 0.03284
723.88785 0.03273
722.60208 0.03259
721.31631 0.03250
720.03054 0.03246
718.74477 0.03246
717.45901 0.03249
716.17324 0.03253
714.88747 0.03253
713.60170 0.03245
712.31593 0.03231
711.03016 0.03216
709.74439 0.03203
708.45862 0.03197
707.17285 0.03196
705.88709 0.03199
704.60132 0.03201
703.31555 0.03200
702.02978 0.03195
700.74401 0.03186
699.45824 0.03175
698.17247 0.03165
696.88670 0.03160
695.60094 0.03160
694.31517 0.03163
693.02940 0.03165
691.74363 0.03165
690.45786 0.03164
689.17209 0.03163
687.88632 0.03159
686.60055 0.03149
685.31478 0.03132
684.02902 0.03114
682.74325 0.03101
681.45748 0.03091
680.17171 0.03083
678.88594 0.03074
677.60017 0.03068
676.31440 0.03067
675.02863 0.03071
673.74287 0.03081
672.45710 0.03094
671.17133 0.03110
669.88556 0.03126
668.59979 0.03138
667.31402 0.03143
666.02825 0.03135
664.74248 0.03110
663.45671 0.03072
662.17095 0.03029
660.88518 0.02994
659.59941 0.02972
658.31364 0.02960
657.02787 0.02956
655.74210 0.02953
654.45633 0.02952
653.17056 0.02950
651.88480 0.02945
650.59903 0.02933
649.31326 0.02919
648.02749 0.02906
646.74172 0.02897
645.45595 0.02890
644.17018 0.02883
642.88441 0.02875
641.59864 0.02873
640.31288 0.02877
639.02711 0.02885
637.74134 0.02891
636.45557 0.02892
635.16980 0.02894
633.88403 0.02898
632.59826 0.02904
631.31249 0.02927
630.02673 0.03062
628.74096 0.03267
627.45519 0.03164
626.16942 0.03410
624.88365 0.03906
623.59788 0.04432
622.31211 0.04935
621.02634 0.05349
619.74057 0.05539
618.45481 0.05435
617.16904 0.05146
615.88327 0.04907
614.59750 0.04924
613.31173 0.05273
612.02596 0.05883
610.74019 0.06596
609.45442 0.07279
608.16866 0.07897
606.88289 0.08469
605.59712 0.08964
604.31135 0.09303
603.02558 0.09451
601.73981 0.09455
600.45404 0.09379
599.16827 0.09236
597.88250 0.09007
596.59674 0.08701
595.31097 0.08363
594.02520 0.08054
592.73943 0.07811
591.45366 0.07641
590.16789 0.07537
588.88212 0.07489
587.59635 0.07498
586.31059 0.07566
585.02482 0.07691
583.73905 0.07863
582.45328 0.08071
581.16751 0.08306
579.88174 0.08556
578.59597 0.08802
577.31020 0.09030
576.02443 0.09236
574.73867 0.09427
573.45290 0.09616
572.16713 0.09817
570.88136 0.10055
569.59559 0.10355
568.30982 0.10720
567.02405 0.11114
565.73828 0.11484
564.45251 0.11786
563.16675 0.12002
561.88098 0.12113
560.59521 0.12092
559.30944 0.11918
558.02367 0.11598
556.73790 0.11167
555.45213 0.10677
554.16636 0.10167
552.88060 0.09663
551.59483 0.09178
550.30906 0.08723
549.02329 0.08304
547.73752 0.07927
546.45175 0.07588
545.16598 0.07278
543.88021 0.06990
542.59444 0.06720
541.30868 0.06466
540.02291 0.06233
538.73714 0.06025
537.45137 0.05846
536.16560 0.05692
534.87983 0.05551
533.59406 0.05412
532.30829 0.05272
531.02253 0.05143
529.73676 0.05036
528.45099 0.04944
527.16522 0.04849
525.87945 0.04741
524.59368 0.04629
523.30791 0.04526
522.02214 0.04438
520.73637 0.04358
519.45061 0.04283
518.16484 0.04213
516.87907 0.04149
515.59330 0.04085
514.30753 0.04017
513.02176 0.03946
511.73599 0.03881
510.45022 0.03825
509.16446 0.03776
507.87869 0.03728
506.59292 0.03679
505.30715 0.03626
504.02138 0.03564
502.73561 0.03496
501.44984 0.03428
500.16407 0.03370
498.87830 0.03324
497.59254 0.03292
496.30677 0.03271
495.02100 0.03258
493.73523 0.03244
492.44946 0.03219
491.16369 0.03179
489.87792 0.03131
488.59215 0.03088
487.30639 0.03060
486.02062 0.03047
484.73485 0.03044
483.44908 0.03051
482.16331 0.03063
480.87754 0.03071
479.59177 0.03073
478.30600 0.03072
477.02023 0.03075
475.73447 0.03081
474.44870 0.03085
473.16293 0.03088
471.87716 0.03093
470.59139 0.03097
469.30562 0.03095
468.01985 0.03081
466.73408 0.03062
465.44832 0.03042
464.16255 0.03023
462.87678 0.02999
461.59101 0.02967
460.30524 0.02927
459.01947 0.02882
457.73370 0.02836
456.44793 0.02791
455.16216 0.02753
453.87640 0.02723
452.59063 0.02702
451.30486 0.02682
450.01909 0.02656
448.73332 0.02619
447.44755 0.02581
446.16178 0.02552
444.87601 0.02537
443.59025 0.02529
442.30448 0.02519
441.01871 0.02500
439.73294 0.02475
438.44717 0.02451
437.16140 0.02430
435.87563 0.02412
434.58986 0.02395
433.30409 0.02380
432.01833 0.02367
430.73256 0.02353
429.44679 0.02337
428.16102 0.02321
426.87525 0.02305
425.58948 0.02290
424.30371 0.02277
423.01794 0.02265
421.73218 0.02251
420.44641 0.02234
419.16064 0.02217
417.87487 0.02201
416.58910 0.02188
415.30333 0.02179
414.01756 0.02176
412.73179 0.02174
411.44602 0.02169
410.16026 0.02159
408.87449 0.02149
407.58872 0.02143
406.30295 0.02147
405.01718 0.02160
403.73141 0.02175
402.44564 0.02183
401.15987 0.02187
399.87411 0.02191
