3997.45528 0.03817
3996.16951 0.03883
3994.88374 0.03931
3993.59798 0.03950
3992.31221 0.03923
3991.02644 0.03865
3989.74067 0.03798
3988.45490 0.03729
3987.16913 0.03669
3985.88336 0.03645
3984.59759 0.03676
3983.31183 0.03736
3982.02606 0.03772
3980.74029 0.03748
3979.45452 0.03675
3978.16875 0.03595
3976.88298 0.03549
3975.59721 0.03562
3974.31144 0.03618
3973.02567 0.03653
3971.73991 0.03597
3970.45414 0.03443
3969.16837 0.03284
3967.88260 0.03239
3966.59683 0.03365
3965.31106 0.03605
3964.02529 0.03840
3962.73952 0.03963
3961.45376 0.03947
3960.16799 0.03846
3958.88222 0.03745
3957.59645 0.03692
3956.31068 0.03672
3955.02491 0.03642
3953.73914 0.03592
3952.45337 0.03562
3951.16760 0.03589
3949.88184 0.03649
3948.59607 0.03683
3947.31030 0.03671
3946.02453 0.03654
3944.73876 0.03683
3943.45299 0.03764
3942.16722 0.03866
3940.88145 0.03952
3939.59569 0.03991
3938.30992 0.03960
3937.02415 0.03865
3935.73838 0.03755
3934.45261 0.03693
3933.16684 0.03693
3931.88107 0.03706
3930.59530 0.03670
3929.30953 0.03578
3928.02377 0.03497
3926.73800 0.03510
3925.45223 0.03643
3924.16646 0.03829
3922.88069 0.03948
3921.59492 0.03920
3920.30915 0.03772
3919.02338 0.03605
3917.73762 0.03502
3916.45185 0.03466
3915.16608 0.03441
3913.88031 0.03371
3912.59454 0.03269
3911.30877 0.03204
3910.02300 0.03228
3908.73723 0.03314
3907.45146 0.03380
3906.16570 0.03377
3904.87993 0.03343
3903.59416 0.03348
3902.30839 0.03412
3901.02262 0.03487
3899.73685 0.03519
3898.45108 0.03499
3897.16531 0.03460
3895.87955 0.03454
3894.59378 0.03509
3893.30801 0.03616
3892.02224 0.03725
3890.73647 0.03790
3889.45070 0.03788
3888.16493 0.03721
3886.87916 0.03621
3885.59339 0.03537
3884.30763 0.03483
3883.02186 0.03444
3881.73609 0.03411
3880.45032 0.03397
3879.16455 0.03416
3877.87878 0.03448
3876.59301 0.03460
3875.30724 0.03444
3874.02148 0.03422
3872.73571 0.03422
3871.44994 0.03457
3870.16417 0.03508
3868.87840 0.03517
3867.59263 0.03439
3866.30686 0.03318
3865.02109 0.03251
3863.73532 0.03275
3862.44956 0.03344
3861.16379 0.03421
3859.87802 0.03520
3858.59225 0.03647
3857.30648 0.03768
3856.02071 0.03857
3854.73494 0.03928
3853.44917 0.04003
3852.16341 0.04039
3850.87764 0.03981
3849.59187 0.03845
3848.30610 0.03708
3847.02033 0.03617
3845.73456 0.03561
3844.44879 0.03520
3843.16302 0.03502
3841.87725 0.03513
3840.59149 0.03531
3839.30572 0.03528
3838.01995 0.03496
3836.73418 0.03447
3835.44841 0.03407
3834.16264 0.03406
3832.87687 0.03447
3831.59110 0.03476
3830.30534 0.03435
3829.01957 0.03335
3827.73380 0.03241
3826.44803 0.03194
3825.16226 0.03181
3823.87649 0.03177
3822.59072 0.03190
3821.30495 0.03240
3820.01918 0.03303
3818.73342 0.03328
3817.44765 0.03315
3816.16188 0.03329
3814.87611 0.03411
3813.59034 0.03521
3812.30457 0.03611
3811.01880 0.03684
3809.73303 0.03749
3808.44726 0.03781
3807.16150 0.03744
3805.87573 0.03627
3804.58996 0.03466
3803.30419 0.03351
3802.01842 0.03378
3800.73265 0.03549
3799.44688 0.03751
3798.16111 0.03866
3796.87535 0.03872
3795.58958 0.03808
3794.30381 0.03701
3793.01804 0.03572
3791.73227 0.03460
3790.44650 0.03405
3789.16073 0.03404
3787.87496 0.03425
3786.58919 0.03446
3785.30343 0.03466
3784.01766 0.03483
3782.73189 0.03480
3781.44612 0.03451
3780.16035 0.03418
3778.87458 0.03410
3777.58881 0.03429
3776.30304 0.03447
3775.01728 0.03433
3773.73151 0.03385
3772.44574 0.03335
3771.15997 0.03338
3769.87420 0.03427
3768.58843 0.03567
3767.30266 0.03681
3766.01689 0.03717
3764.73112 0.03665
3763.44536 0.03548
3762.15959 0.03405
3760.87382 0.03291
3759.58805 0.03236
3758.30228 0.03239
3757.01651 0.03286
3755.73074 0.03344
3754.44497 0.03358
3753.15921 0.03294
3751.87344 0.03175
3750.58767 0.03059
3749.30190 0.02996
3748.01613 0.02997
3746.73036 0.03024
3745.44459 0.03051
3744.15882 0.03092
3742.87305 0.03152
3741.58729 0.03213
3740.30152 0.03276
3739.01575 0.03353
3737.72998 0.03443
3736.44421 0.03545
3735.15844 0.03646
3733.87267 0.03700
3732.58690 0.03654
3731.30114 0.03502
3730.01537 0.03291
3728.72960 0.03086
3727.44383 0.02953
3726.15806 0.02932
3724.87229 0.03007
3723.58652 0.03138
3722.30075 0.03282
3721.01498 0.03405
3719.72922 0.03473
3718.44345 0.03470
3717.15768 0.03404
3715.87191 0.03299
3714.58614 0.03190
3713.30037 0.03120
3712.01460 0.03115
3710.72883 0.03165
3709.44307 0.03226
3708.15730 0.03265
3706.87153 0.03281
3705.58576 0.03279
3704.29999 0.03275
3703.01422 0.03257
3701.72845 0.03205
3700.44268 0.03116
3699.15691 0.03031
3697.87115 0.02986
3696.58538 0.02992
3695.29961 0.03034
3694.01384 0.03081
3692.72807 0.03115
3691.44230 0.03156
3690.15653 0.03222
3688.87076 0.03289
3687.58500 0.03319
3686.29923 0.03314
3685.01346 0.03288
3683.72769 0.03258
3682.44192 0.03232
3681.15615 0.03200
3679.87038 0.03164
3678.58461 0.03135
3677.29884 0.03118
3676.01308 0.03133
3674.72731 0.03192
3673.44154 0.03279
3672.15577 0.03371
3670.87000 0.03477
3669.58423 0.03591
3668.29846 0.03659
3667.01269 0.03627
3665.72693 0.03513
3664.44116 0.03376
3663.15539 0.03269
3661.86962 0.03220
3660.58385 0.03225
3659.29808 0.03253
3658.01231 0.03270
3656.72654 0.03265
3655.44077 0.03247
3654.15501 0.03218
3652.86924 0.03189
3651.58347 0.03190
3650.29770 0.03241
3649.01193 0.03316
3647.72616 0.03363
3646.44039 0.03345
3645.15462 0.03275
3643.86886 0.03199
3642.58309 0.03166
3641.29732 0.03186
3640.01155 0.03232
3638.72578 0.03281
3637.44001 0.03335
3636.15424 0.03395
3634.86847 0.03448
3633.58270 0.03484
3632.29694 0.03503
3631.01117 0.03508
3629.72540 0.03502
3628.43963 0.03496
3627.15386 0.03500
3625.86809 0.03501
3624.58232 0.03472
3623.29655 0.03390
3622.01079 0.03263
3620.72502 0.03148
3619.43925 0.03111
3618.15348 0.03161
3616.86771 0.03237
3615.58194 0.03287
3614.29617 0.03324
3613.01040 0.03389
3611.72463 0.03493
3610.43887 0.03604
3609.15310 0.03688
3607.86733 0.03730
3606.58156 0.03728
3605.29579 0.03701
3604.01002 0.03691
3602.72425 0.03705
3601.43848 0.03702
3600.15272 0.03655
3598.86695 0.03605
3597.58118 0.03614
3596.29541 0.03684
3595.00964 0.03759
3593.72387 0.03806
3592.43810 0.03819
3591.15233 0.03810
3589.86656 0.03799
3588.58080 0.03801
3587.29503 0.03825
3586.00926 0.03866
3584.72349 0.03907
3583.43772 0.03918
3582.15195 0.03890
3580.86618 0.03855
3579.58041 0.03853
3578.29464 0.03896
3577.00888 0.03957
3575.72311 0.03984
3574.43734 0.03944
3573.15157 0.03850
3571.86580 0.03759
3570.58003 0.03732
3569.29426 0.03790
3568.00849 0.03914
3566.72273 0.04068
3565.43696 0.04216
3564.15119 0.04318
3562.86542 0.04333
3561.57965 0.04250
3560.29388 0.04114
3559.00811 0.04009
3557.72234 0.04000
3556.43657 0.04081
3555.15081 0.04180
3553.86504 0.04225
3552.57927 0.04204
3551.29350 0.04170
3550.00773 0.04179
3548.72196 0.04236
3547.43619 0.04296
3546.15042 0.04323
3544.86466 0.04313
3543.57889 0.04292
3542.29312 0.04284
3541.00735 0.04293
3539.72158 0.04312
3538.43581 0.04328
3537.15004 0.04337
3535.86427 0.04347
3534.57850 0.04370
3533.29274 0.04415
3532.00697 0.04477
3530.72120 0.04540
3529.43543 0.04576
3528.14966 0.04574
3526.86389 0.04549
3525.57812 0.04527
3524.29235 0.04519
3523.00659 0.04517
3521.72082 0.04515
3520.43505 0.04520
3519.14928 0.04532
3517.86351 0.04543
3516.57774 0.04544
3515.29197 0.04540
3514.00620 0.04533
3512.72043 0.04514
3511.43467 0.04482
3510.14890 0.04462
3508.86313 0.04478
3507.57736 0.04520
3506.29159 0.04547
3505.00582 0.04541
3503.72005 0.04527
3502.43428 0.04542
3501.14852 0.04594
3499.86275 0.04659
3498.57698 0.04698
3497.29121 0.04681
3496.00544 0.04611
3494.71967 0.04530
3493.43390 0.04493
3492.14813 0.04527
3490.86236 0.04613
3489.57660 0.04712
3488.29083 0.04796
3487.00506 0.04859
3485.71929 0.04911
3484.43352 0.04965
3483.14775 0.05008
3481.86198 0.05012
3480.57621 0.04974
3479.29045 0.04931
3478.00468 0.04928
3476.71891 0.04961
3475.43314 0.04990
3474.14737 0.04986
3472.86160 0.04962
3471.57583 0.04960
3470.29006 0.04999
3469.00429 0.05064
3467.71853 0.05110
3466.43276 0.05099
3465.14699 0.05035
3463.86122 0.04965
3462.57545 0.04942
3461.28968 0.04985
3460.00391 0.05057
3458.71814 0.05098
3457.43238 0.05077
3456.14661 0.05016
3454.86084 0.04973
3453.57507 0.04980
3452.28930 0.05030
3451.00353 0.05090
3449.71776 0.05134
3448.43199 0.05148
3447.14622 0.05125
3445.86046 0.05072
3444.57469 0.05011
3443.28892 0.04969
3442.00315 0.04958
3440.71738 0.04978
3439.43161 0.05019
3438.14584 0.05065
3436.86007 0.05102
3435.57431 0.05122
3434.28854 0.05124
3433.00277 0.05116
3431.71700 0.05124
3430.43123 0.05174
3429.14546 0.05253
3427.85969 0.05313
3426.57392 0.05317
3425.28815 0.05275
3424.00239 0.05233
3422.71662 0.05216
3421.43085 0.05216
3420.14508 0.05217
3418.85931 0.05215
3417.57354 0.05218
3416.28777 0.05230
3415.00200 0.05255
3413.71624 0.05286
3412.43047 0.05309
3411.14470 0.05311
3409.85893 0.05287
3408.57316 0.05242
3407.28739 0.05192
3406.00162 0.05166
3404.71585 0.05194
3403.43008 0.05286
3402.14432 0.05421
3400.85855 0.05558
3399.57278 0.05659
3398.28701 0.05693
3397.00124 0.05662
3395.71547 0.05599
3394.42970 0.05549
3393.14393 0.05542
3391.85817 0.05573
3390.57240 0.05603
3389.28663 0.05606
3388.00086 0.05578
3386.71509 0.05537
3385.42932 0.05503
3384.14355 0.05490
3382.85778 0.05502
3381.57201 0.05530
3380.28625 0.05554
3379.00048 0.05558
3377.71471 0.05533
3376.42894 0.05478
3375.14317 0.05397
3373.85740 0.05323
3372.57163 0.05304
3371.28586 0.05367
3370.00010 0.05482
3368.71433 0.05582
3367.42856 0.05617
3366.14279 0.05584
3364.85702 0.05523
3363.57125 0.05479
3362.28548 0.05472
3360.99971 0.05498
3359.71394 0.05544
3358.42818 0.05599
3357.14241 0.05656
3355.85664 0.05708
3354.57087 0.05743
3353.28510 0.05747
3351.99933 0.05704
3350.71356 0.05622
3349.42779 0.05541
3348.14202 0.05504
3346.85626 0.05514
3345.57049 0.05541
3344.28472 0.05564
3342.99895 0.05585
3341.71318 0.05607
3340.42741 0.05621
3339.14164 0.05623
3337.85587 0.05618
3336.57011 0.05616
3335.28434 0.05621
3333.99857 0.05627
3332.71280 0.05626
3331.42703 0.05612
3330.14126 0.05591
3328.85549 0.05582
3327.56972 0.05604
3326.28395 0.05659
3324.99819 0.05716
3323.71242 0.05737
3322.42665 0.05708
3321.14088 0.05656
3319.85511 0.05620
3318.56934 0.05615
3317.28357 0.05628
3315.99780 0.05650
3314.71204 0.05685
3313.42627 0.05733
3312.14050 0.05776
3310.85473 0.05795
3309.56896 0.05795
3308.28319 0.05798
3306.99742 0.05820
3305.71165 0.05850
3304.42588 0.05866
3303.14012 0.05852
3301.85435 0.05807
3300.56858 0.05751
3299.28281 0.05707
3297.99704 0.05690
3296.71127 0.05693
3295.42550 0.05699
3294.13973 0.05695
3292.85397 0.05685
3291.56820 0.05670
3290.28243 0.05648
3288.99666 0.05620
3287.71089 0.05595
3286.42512 0.05590
3285.13935 0.05605
3283.85358 0.05620
3282.56781 0.05625
3281.28205 0.05642
3279.99628 0.05700
3278.71051 0.05779
3277.42474 0.05825
3276.13897 0.05806
3274.85320 0.05747
3273.56743 0.05694
3272.28166 0.05677
3270.99590 0.05699
3269.71013 0.05751
3268.42436 0.05812
3267.13859 0.05853
3265.85282 0.05860
3264.56705 0.05837
3263.28128 0.05800
3261.99551 0.05774
3260.70974 0.05771
3259.42398 0.05781
3258.13821 0.05771
3256.85244 0.05714
3255.56667 0.05618
3254.28090 0.05525
3252.99513 0.05481
3251.70936 0.05500
3250.42359 0.05547
3249.13783 0.05575
3247.85206 0.05554
3246.56629 0.05494
3245.28052 0.05429
3243.99475 0.05391
3242.70898 0.05396
3241.42321 0.05440
3240.13744 0.05503
3238.85167 0.05557
3237.56591 0.05576
3236.28014 0.05551
3234.99437 0.05498
3233.70860 0.05450
3232.42283 0.05434
3231.13706 0.05445
3229.85129 0.05462
3228.56552 0.05464
3227.27976 0.05458
3225.99399 0.05456
3224.70822 0.05466
3223.42245 0.05478
3222.13668 0.05485
3220.85091 0.05478
3219.56514 0.05455
3218.27937 0.05420
3216.99360 0.05392
3215.70784 0.05389
3214.42207 0.05417
3213.13630 0.05457
3211.85053 0.05484
3210.56476 0.05487
3209.27899 0.05476
3207.99322 0.05457
3206.70745 0.05427
3205.42169 0.05380
3204.13592 0.05316
3202.85015 0.05245
3201.56438 0.05181
3200.27861 0.05136
3198.99284 0.05125
3197.70707 0.05151
3196.42130 0.05198
3195.13553 0.05238
3193.84977 0.05249
3192.56400 0.05222
3191.27823 0.05163
3189.99246 0.05088
3188.70669 0.05021
3187.42092 0.04990
3186.13515 0.05013
3184.84938 0.05087
3183.56362 0.05187
3182.27785 0.05275
3180.99208 0.05322
3179.70631 0.05312
3178.42054 0.05257
3177.13477 0.05188
3175.84900 0.05134
3174.56323 0.05098
3173.27746 0.05068
3171.99170 0.05038
3170.70593 0.05019
3169.42016 0.05018
3168.13439 0.05026
3166.84862 0.05024
3165.56285 0.05004
3164.27708 0.04973
3162.99131 0.04939
3161.70555 0.04909
3160.41978 0.04889
3159.13401 0.04883
3157.84824 0.04890
3156.56247 0.04913
3155.27670 0.04952
3153.99093 0.04996
3152.70516 0.05016
3151.41939 0.04992
3150.13363 0.04943
3148.84786 0.04913
3147.56209 0.04929
3146.27632 0.04969
3144.99055 0.04999
3143.70478 0.05004
3142.41901 0.04997
3141.13324 0.04985
3139.84748 0.04961
3138.56171 0.04916
3137.27594 0.04855
3135.99017 0.04798
3134.70440 0.04764
3133.41863 0.04760
3132.13286 0.04780
3130.84709 0.04808
3129.56132 0.04834
3128.27556 0.04852
3126.98979 0.04860
3125.70402 0.04856
3124.41825 0.04844
3123.13248 0.04824
3121.84671 0.04797
3120.56094 0.04762
3119.27517 0.04724
3117.98940 0.04686
3116.70364 0.04647
3115.41787 0.04602
3114.13210 0.04556
3112.84633 0.04523
3111.56056 0.04519
3110.27479 0.04543
3108.98902 0.04581
3107.70325 0.04614
3106.41749 0.04630
3105.13172 0.04630
3103.84595 0.04617
3102.56018 0.04602
3101.27441 0.04600
3099.98864 0.04617
3098.70287 0.04643
3097.41710 0.04660
3096.13133 0.04665
3094.84557 0.04667
3093.55980 0.04673
3092.27403 0.04671
3090.98826 0.04648
3089.70249 0.04610
3088.41672 0.04583
3087.13095 0.04587
3085.84518 0.04614
3084.55942 0.04638
3083.27365 0.04639
3081.98788 0.04624
3080.70211 0.04609
3079.41634 0.04603
3078.13057 0.04601
3076.84480 0.04602
3075.55903 0.04614
3074.27326 0.04643
3072.98750 0.04681
3071.70173 0.04704
3070.41596 0.04700
3069.13019 0.04672
3067.84442 0.04633
3066.55865 0.04592
3065.27288 0.04554
3063.98711 0.04527
3062.70135 0.04523
3061.41558 0.04549
3060.12981 0.04595
3058.84404 0.04638
3057.55827 0.04649
3056.27250 0.04622
3054.98673 0.04577
3053.70096 0.04537
3052.41519 0.04512
3051.12943 0.04500
3049.84366 0.04500
3048.55789 0.04511
3047.27212 0.04520
3045.98635 0.04509
3044.70058 0.04474
3043.41481 0.04438
3042.12904 0.04422
3040.84328 0.04427
3039.55751 0.04435
3038.27174 0.04426
3036.98597 0.04403
3035.70020 0.04378
3034.41443 0.04362
3033.12866 0.04358
3031.84289 0.04364
3030.55712 0.04377
3029.27136 0.04401
3027.98559 0.04433
3026.69982 0.04459
3025.41405 0.04457
3024.12828 0.04414
3022.84251 0.04342
3021.55674 0.04270
3020.27097 0.04226
3018.98521 0.04222
3017.69944 0.04253
3016.41367 0.04304
3015.12790 0.04349
3013.84213 0.04372
3012.55636 0.04363
3011.27059 0.04326
3009.98482 0.04272
3008.69905 0.04214
3007.41329 0.04169
3006.12752 0.04151
3004.84175 0.04160
3003.55598 0.04181
3002.27021 0.04201
3000.98444 0.04216
2999.69867 0.04228
2998.41290 0.04231
2997.12714 0.04229
2995.84137 0.04226
2994.55560 0.04227
2993.26983 0.04231
2991.98406 0.04231
2990.69829 0.04225
2989.41252 0.04213
2988.12675 0.04207
2986.84098 0.04216
2985.55522 0.04244
2984.26945 0.04275
2982.98368 0.04292
2981.69791 0.04291
2980.41214 0.04283
2979.12637 0.04281
2977.84060 0.04289
2976.55483 0.04303
2975.26907 0.04314
2973.98330 0.04318
2972.69753 0.04311
2971.41176 0.04299
2970.12599 0.04290
2968.84022 0.04292
2967.55445 0.04309
2966.26868 0.04336
2964.98291 0.04372
2963.69715 0.04413
2962.41138 0.04452
2961.12561 0.04477
2959.83984 0.04485
2958.55407 0.04485
2957.26830 0.04489
2955.98253 0.04503
2954.69676 0.04517
2953.41100 0.04508
2952.12523 0.04460
2950.83946 0.04386
2949.55369 0.04319
2948.26792 0.04294
2946.98215 0.04324
2945.69638 0.04389
2944.41061 0.04448
2943.12484 0.04467
2941.83908 0.04441
2940.55331 0.04402
2939.26754 0.04385
2937.98177 0.04398
2936.69600 0.04418
2935.41023 0.04434
2934.12446 0.04453
2932.83869 0.04484
2931.55293 0.04517
2930.26716 0.04529
2928.98139 0.04508
2927.69562 0.04467
2926.40985 0.04421
2925.12408 0.04384
2923.83831 0.04361
2922.55254 0.04350
2921.26677 0.04337
2919.98101 0.04310
2918.69524 0.04278
2917.40947 0.04264
2916.12370 0.04282
2914.83793 0.04314
2913.55216 0.04331
2912.26639 0.04321
2910.98062 0.04293
2909.69486 0.04262
2908.40909 0.04240
2907.12332 0.04232
2905.83755 0.04238
2904.55178 0.04251
2903.26601 0.04254
2901.98024 0.04232
2900.69447 0.04190
2899.40870 0.04144
2898.12294 0.04116
2896.83717 0.04115
2895.55140 0.04139
2894.26563 0.04176
2892.97986 0.04204
2891.69409 0.04202
2890.40832 0.04163
2889.12255 0.04102
2887.83678 0.04047
2886.55102 0.04022
2885.26525 0.04030
2883.97948 0.04048
2882.69371 0.04059
2881.40794 0.04064
2880.12217 0.04070
2878.83640 0.04079
2877.55063 0.04082
2876.26487 0.04074
2874.97910 0.04060
2873.69333 0.04049
2872.40756 0.04054
2871.12179 0.04075
2869.83602 0.04096
2868.55025 0.04095
2867.26448 0.04066
2865.97871 0.04025
2864.69295 0.03989
2863.40718 0.03960
2862.12141 0.03927
2860.83564 0.03885
2859.54987 0.03849
2858.26410 0.03833
2856.97833 0.03830
2855.69256 0.03827
2854.40680 0.03811
2853.12103 0.03786
2851.83526 0.03757
2850.54949 0.03734
2849.26372 0.03729
2847.97795 0.03735
2846.69218 0.03739
2845.40641 0.03736
2844.12064 0.03731
2842.83488 0.03728
2841.54911 0.03722
2840.26334 0.03711
2838.97757 0.03705
2837.69180 0.03711
2836.40603 0.03728
2835.12026 0.03749
2833.83449 0.03764
2832.54873 0.03768
2831.26296 0.03754
2829.97719 0.03723
2828.69142 0.03689
2827.40565 0.03666
2826.11988 0.03652
2824.83411 0.03632
2823.54834 0.03597
2822.26257 0.03563
2820.97681 0.03548
2819.69104 0.03561
2818.40527 0.03586
2817.11950 0.03600
2815.83373 0.03584
2814.54796 0.03545
2813.26219 0.03508
2811.97642 0.03485
2810.69066 0.03473
2809.40489 0.03464
2808.11912 0.03467
2806.83335 0.03485
2805.54758 0.03510
2804.26181 0.03531
2802.97604 0.03546
2801.69027 0.03558
2800.40450 0.03558
2799.11874 0.03539
2797.83297 0.03502
2796.54720 0.03465
2795.26143 0.03446
2793.97566 0.03448
2792.68989 0.03459
2791.40412 0.03461
2790.11835 0.03442
2788.83259 0.03410
2787.54682 0.03385
2786.26105 0.03380
2784.97528 0.03391
2783.68951 0.03404
2782.40374 0.03411
2781.11797 0.03412
2779.83220 0.03405
2778.54643 0.03389
2777.26067 0.03371
2775.97490 0.03367
2774.68913 0.03377
2773.40336 0.03388
2772.11759 0.03388
2770.83182 0.03383
2769.54605 0.03384
2768.26028 0.03388
2766.97452 0.03382
2765.68875 0.03364
2764.40298 0.03344
2763.11721 0.03335
2761.83144 0.03338
2760.54567 0.03347
2759.25990 0.03354
2757.97413 0.03349
2756.68836 0.03323
2755.40260 0.03280
2754.11683 0.03239
2752.83106 0.03225
2751.54529 0.03245
2750.25952 0.03285
2748.97375 0.03318
2747.68798 0.03328
2746.40221 0.03319
2745.11645 0.03307
2743.83068 0.03302
2742.54491 0.03302
2741.25914 0.03297
2739.97337 0.03279
2738.68760 0.03251
2737.40183 0.03227
2736.11606 0.03213
2734.83029 0.03209
2733.54453 0.03213
2732.25876 0.03226
2730.97299 0.03240
2729.68722 0.03241
2728.40145 0.03224
2727.11568 0.03199
2725.82991 0.03181
2724.54414 0.03178
2723.25838 0.03186
2721.97261 0.03195
2720.68684 0.03200
2719.40107 0.03198
2718.11530 0.03191
2716.82953 0.03177
2715.54376 0.03159
2714.25799 0.03142
2712.97222 0.03129
2711.68646 0.03122
2710.40069 0.03120
2709.11492 0.03122
2707.82915 0.03121
2706.54338 0.03113
2705.25761 0.03104
2703.97184 0.03098
2702.68607 0.03100
2701.40031 0.03108
2700.11454 0.03115
2698.82877 0.03113
2697.54300 0.03099
2696.25723 0.03078
2694.97146 0.03060
2693.68569 0.03057
2692.39992 0.03074
2691.11415 0.03103
2689.82839 0.03128
2688.54262 0.03135
2687.25685 0.03120
2685.97108 0.03089
2684.68531 0.03055
2683.39954 0.03023
2682.11377 0.02998
2680.82800 0.02979
2679.54224 0.02968
2678.25647 0.02974
2676.97070 0.03005
2675.68493 0.03055
2674.39916 0.03104
2673.11339 0.03126
2671.82762 0.03114
2670.54185 0.03082
2669.25608 0.03055
2667.97032 0.03043
2666.68455 0.03042
2665.39878 0.03039
2664.11301 0.03027
2662.82724 0.03005
2661.54147 0.02976
2660.25570 0.02945
2658.96993 0.02913
2657.68417 0.02885
2656.39840 0.02864
2655.11263 0.02847
2653.82686 0.02827
2652.54109 0.02809
2651.25532 0.02806
2649.96955 0.02819
2648.68378 0.02832
2647.39801 0.02823
2646.11225 0.02797
2644.82648 0.02773
2643.54071 0.02769
2642.25494 0.02785
2640.96917 0.02803
2639.68340 0.02798
2638.39763 0.02761
2637.11186 0.02696
2635.82609 0.02625
2634.54033 0.02568
2633.25456 0.02539
2631.96879 0.02542
2630.68302 0.02577
2629.39725 0.02631
2628.11148 0.02679
2626.82571 0.02695
2625.53994 0.02668
2624.25418 0.02616
2622.96841 0.02567
2621.68264 0.02541
2620.39687 0.02544
2619.11110 0.02562
2617.82533 0.02579
2616.53956 0.02579
2615.25379 0.02563
2613.96802 0.02544
2612.68226 0.02534
2611.39649 0.02540
2610.11072 0.02557
2608.82495 0.02572
2607.53918 0.02572
2606.25341 0.02557
2604.96764 0.02537
2603.68187 0.02519
2602.39611 0.02502
2601.11034 0.02490
2599.82457 0.02488
2598.53880 0.02498
2597.25303 0.02508
2595.96726 0.02504
2594.68149 0.02491
2593.39572 0.02484
2592.10995 0.02489
2590.82419 0.02492
2589.53842 0.02477
2588.25265 0.02454
2586.96688 0.02441
2585.68111 0.02432
2584.39534 0.02411
2583.10957 0.02381
2581.82380 0.02369
2580.53804 0.02393
2579.25227 0.02440
2577.96650 0.02478
2576.68073 0.02484
2575.39496 0.02456
2574.10919 0.02415
2572.82342 0.02386
2571.53765 0.02376
2570.25188 0.02371
2568.96612 0.02358
2567.68035 0.02356
2566.39458 0.02391
2565.10881 0.02461
2563.82304 0.02529
2562.53727 0.02562
2561.25150 0.02552
2559.96573 0.02516
2558.67997 0.02467
2557.39420 0.02417
2556.10843 0.02380
2554.82266 0.02375
2553.53689 0.02402
2552.25112 0.02434
2550.96535 0.02441
2549.67958 0.02421
2548.39381 0.02405
2547.10805 0.02418
2545.82228 0.02452
2544.53651 0.02474
2543.25074 0.02462
2541.96497 0.02429
2540.67920 0.02396
2539.39343 0.02370
2538.10766 0.02352
2536.82190 0.02351
2535.53613 0.02381
2534.25036 0.02432
2532.96459 0.02471
2531.67882 0.02471
2530.39305 0.02436
2529.10728 0.02387
2527.82151 0.02339
2526.53574 0.02305
2525.24998 0.02304
2523.96421 0.02341
2522.67844 0.02390
2521.39267 0.02406
2520.10690 0.02372
2518.82113 0.02304
2517.53536 0.02237
2516.24959 0.02193
2514.96383 0.02183
2513.67806 0.02206
2512.39229 0.02247
2511.10652 0.02283
2509.82075 0.02301
2508.53498 0.02318
2507.24921 0.02355
2505.96344 0.02418
2504.67767 0.02480
2503.39191 0.02503
2502.10614 0.02469
2500.82037 0.02401
2499.53460 0.02354
2498.24883 0.02356
2496.96306 0.02392
2495.67729 0.02417
2494.39152 0.02407
2493.10576 0.02368
2491.81999 0.02328
2490.53422 0.02312
2489.24845 0.02337
2487.96268 0.02387
2486.67691 0.02431
2485.39114 0.02450
2484.10537 0.02452
2482.81960 0.02449
2481.53384 0.02438
2480.24807 0.02405
2478.96230 0.02360
2477.67653 0.02333
2476.39076 0.02345
2475.10499 0.02380
2473.81922 0.02395
2472.53345 0.02365
2471.24769 0.02302
2469.96192 0.02251
2468.67615 0.02251
2467.39038 0.02294
2466.10461 0.02338
2464.81884 0.02343
2463.53307 0.02308
2462.24730 0.02262
2460.96153 0.02238
2459.67577 0.02247
2458.39000 0.02273
2457.10423 0.02290
2455.81846 0.02290
2454.53269 0.02282
2453.24692 0.02274
2451.96115 0.02266
2450.67538 0.02264
2449.38962 0.02282
2448.10385 0.02321
2446.81808 0.02353
2445.53231 0.02345
2444.24654 0.02296
2442.96077 0.02240
2441.67500 0.02214
2440.38923 0.02223
2439.10346 0.02240
2437.81770 0.02238
2436.53193 0.02213
2435.24616 0.02180
2433.96039 0.02154
2432.67462 0.02141
2431.38885 0.02138
2430.10308 0.02138
2428.81731 0.02139
2427.53155 0.02146
2426.24578 0.02160
2424.96001 0.02174
2423.67424 0.02181
2422.38847 0.02183
2421.10270 0.02190
2419.81693 0.02203
2418.53116 0.02211
2417.24539 0.02205
2415.95963 0.02194
2414.67386 0.02187
2413.38809 0.02181
2412.10232 0.02169
2410.81655 0.02149
2409.53078 0.02133
2408.24501 0.02136
2406.95924 0.02161
2405.67347 0.02198
2404.38771 0.02230
2403.10194 0.02250
2401.81617 0.02261
2400.53040 0.02266
2399.24463 0.02265
2397.95886 0.02261
2396.67309 0.02251
2395.38732 0.02234
2394.10156 0.02214
2392.81579 0.02187
2391.53002 0.02157
2390.24425 0.02133
2388.95848 0.02124
2387.67271 0.02134
2386.38694 0.02160
2385.10117 0.02198
2383.81540 0.02246
2382.52964 0.02295
2381.24387 0.02330
2379.95810 0.02350
2378.67233 0.02337
2377.38656 0.02330
2376.10079 0.02368
2374.81502 0.02424
2373.52925 0.02375
2372.24349 0.02255
2370.95772 0.02170
2369.67195 0.02152
2368.38618 0.02178
2367.10041 0.02208
2365.81464 0.02240
2364.52887 0.02271
2363.24310 0.02285
2361.95733 0.02258
2360.67157 0.02169
2359.38580 0.02082
2358.10003 0.02044
2356.81426 0.02070
2355.52849 0.02168
2354.24272 0.02314
2352.95695 0.02420
2351.67118 0.02345
2350.38542 0.02200
2349.09965 0.02150
2347.81388 0.02166
2346.52811 0.02130
2345.24234 0.02109
2343.95657 0.02226
2342.67080 0.02461
2341.38503 0.02407
2340.09926 0.02148
2338.81350 0.02144
2337.52773 0.02349
2336.24196 0.02263
2334.95619 0.02064
2333.67042 0.02154
2332.38465 0.02407
2331.09888 0.02227
2329.81311 0.02108
2328.52735 0.02216
2327.24158 0.02096
2325.95581 0.01910
2324.67004 0.01902
2323.38427 0.01944
2322.09850 0.01850
2320.81273 0.01866
2319.52696 0.01869
2318.24119 0.01854
2316.95543 0.01906
2315.66966 0.01929
2314.38389 0.01952
2313.09812 0.01977
2311.81235 0.01930
2310.52658 0.01893
2309.24081 0.01880
2307.95504 0.01862
2306.66928 0.01882
2305.38351 0.01900
2304.09774 0.01913
2302.81197 0.01909
2301.52620 0.01872
2300.24043 0.01838
2298.95466 0.01819
2297.66889 0.01813
2296.38312 0.01806
2295.09736 0.01783
2293.81159 0.01749
2292.52582 0.01701
2291.24005 0.01645
2289.95428 0.01577
2288.66851 0.01501
2287.38274 0.01434
2286.09697 0.01403
2284.81121 0.01425
2283.52544 0.01491
2282.23967 0.01574
2280.95390 0.01642
2279.66813 0.01676
2278.38236 0.01673
2277.09659 0.01644
2275.81082 0.01602
2274.52505 0.01566
2273.23929 0.01547
2271.95352 0.01545
2270.66775 0.01548
2269.38198 0.01553
2268.09621 0.01551
2266.81044 0.01535
2265.52467 0.01499
2264.23890 0.01461
2262.95314 0.01443
2261.66737 0.01456
2260.38160 0.01512
2259.09583 0.01596
2257.81006 0.01664
2256.52429 0.01670
2255.23852 0.01607
2253.95275 0.01523
2252.66698 0.01479
2251.38122 0.01490
2250.09545 0.01515
2248.80968 0.01510
2247.52391 0.01482
2246.23814 0.01459
2244.95237 0.01444
2243.66660 0.01418
2242.38083 0.01376
2241.09507 0.01347
2239.80930 0.01356
2238.52353 0.01398
2237.23776 0.01427
2235.95199 0.01408
2234.66622 0.01347
2233.38045 0.01290
2232.09468 0.01281
2230.80891 0.01324
2229.52315 0.01387
2228.23738 0.01435
2226.95161 0.01453
2225.66584 0.01439
2224.38007 0.01397
2223.09430 0.01333
2221.80853 0.01264
2220.52276 0.01210
2219.23700 0.01181
2217.95123 0.01174
2216.66546 0.01182
2215.37969 0.01199
2214.09392 0.01229
2212.80815 0.01266
2211.52238 0.01291
2210.23661 0.01288
2208.95084 0.01277
2207.66508 0.01311
2206.37931 0.01408
2205.09354 0.01511
2203.80777 0.01535
2202.52200 0.01466
2201.23623 0.01380
2199.95046 0.01354
2198.66469 0.01390
2197.37893 0.01434
2196.09316 0.01433
2194.80739 0.01361
2193.52162 0.01217
2192.23585 0.01032
2190.95008 0.00876
2189.66431 0.00821
2188.37854 0.00886
2187.09277 0.01020
2185.80701 0.01140
2184.52124 0.01194
2183.23547 0.01194
2181.94970 0.01169
2180.66393 0.01120
2179.37816 0.01039
2178.09239 0.00946
2176.80662 0.00875
2175.52085 0.00832
2174.23509 0.00813
2172.94932 0.00834
2171.66355 0.00904
2170.37778 0.00979
2169.09201 0.00985
2167.80624 0.00893
2166.52047 0.00746
2165.23470 0.00627
2163.94894 0.00607
2162.66317 0.00702
2161.37740 0.00864
2160.09163 0.01017
2158.80586 0.01116
2157.52009 0.01161
2156.23432 0.01158
2154.94855 0.01096
2153.66278 0.00978
2152.37702 0.00844
2151.09125 0.00757
2149.80548 0.00760
2148.51971 0.00844
2147.23394 0.00960
2145.94817 0.01052
2144.66240 0.01095
2143.37663 0.01105
2142.09087 0.01113
2140.80510 0.01134
2139.51933 0.01161
2138.23356 0.01191
2136.94779 0.01236
2135.66202 0.01302
2134.37625 0.01371
2133.09048 0.01414
2131.80471 0.01424
2130.51895 0.01421
2129.23318 0.01436
2127.94741 0.01475
2126.66164 0.01507
2125.37587 0.01487
2124.09010 0.01408
2122.80433 0.01306
2121.51856 0.01233
2120.23280 0.01207
2118.94703 0.01215
2117.66126 0.01237
2116.37549 0.01262
2115.08972 0.01285
2113.80395 0.01285
2112.51818 0.01240
2111.23241 0.01160
2109.94664 0.01089
2108.66088 0.01062
2107.37511 0.01065
2106.08934 0.01060
2104.80357 0.01034
2103.51780 0.01000
2102.23203 0.00969
2100.94626 0.00959
2099.66049 0.01109
2098.37473 0.01242
2097.08896 0.01334
2095.80319 0.01384
2094.51742 0.01373
2093.23165 0.01313
2091.94588 0.01240
2090.66011 0.01179
2089.37434 0.01137
2088.08857 0.01113
2086.80281 0.01106
2085.51704 0.01114
2084.23127 0.01130
2082.94550 0.01145
2081.65973 0.01152
2080.37396 0.01143
2079.08819 0.01123
2077.80242 0.01099
2076.51666 0.01081
2075.23089 0.01063
2073.94512 0.01031
2072.65935 0.00977
2071.37358 0.00911
2070.08781 0.00859
2068.80204 0.00847
2067.51627 0.00879
2066.23050 0.00939
2064.94474 0.00996
2063.65897 0.01018
2062.37320 0.00985
2061.08743 0.00908
2059.80166 0.00822
2058.51589 0.00760
2057.23012 0.00727
2055.94435 0.00708
2054.65859 0.00685
2053.37282 0.00651
2052.08705 0.00612
2050.80128 0.00588
2049.51551 0.00608
2048.22974 0.00672
2046.94397 0.00739
2045.65820 0.00750
2044.37243 0.00687
2043.08667 0.00591
2041.80090 0.00518
2040.51513 0.00497
2039.22936 0.00525
2037.94359 0.00579
2036.65782 0.00626
2035.37205 0.00635
2034.08628 0.00611
2032.80052 0.00594
2031.51475 0.00614
2030.22898 0.00663
2028.94321 0.00705
2027.65744 0.00720
2026.37167 0.00717
2025.08590 0.00709
2023.80013 0.00694
2022.51436 0.00655
2021.22860 0.00592
2019.94283 0.00528
2018.65706 0.00491
2017.37129 0.00481
2016.08552 0.00477
2014.79975 0.00466
2013.51398 0.00463
2012.22821 0.00507
2010.94245 0.00620
2009.65668 0.00786
2008.37091 0.00954
2007.08514 0.01065
2005.79937 0.01093
2004.51360 0.01048
2003.22783 0.00957
2001.94206 0.00843
2000.65629 0.00727
1999.37053 0.00638
1998.08476 0.00612
1996.79899 0.00658
1995.51322 0.00738
1994.22745 0.00789
1992.94168 0.00781
1991.65591 0.00746
1990.37014 0.00736
1989.08438 0.00759
1987.79861 0.00780
1986.51284 0.00778
1985.22707 0.00779
1983.94130 0.00816
1982.65553 0.00882
1981.36976 0.00941
1980.08399 0.00989
1978.79822 0.01070
1977.51246 0.01206
1976.22669 0.01349
1974.94092 0.01420
1973.65515 0.01394
1972.36938 0.01319
1971.08361 0.01265
1969.79784 0.01259
1968.51207 0.01285
1967.22631 0.01304
1965.94054 0.01291
1964.65477 0.01247
1963.36900 0.01191
1962.08323 0.01145
1960.79746 0.01123
1959.51169 0.01125
1958.22592 0.01143
1956.94015 0.01163
1955.65439 0.01185
1954.36862 0.01223
1953.08285 0.01278
1951.79708 0.01325
1950.51131 0.01337
1949.22554 0.01317
1947.93977 0.01297
1946.65400 0.01305
1945.36823 0.01344
1944.08247 0.01395
1942.79670 0.01438
1941.51093 0.01459
1940.22516 0.01459
1938.93939 0.01449
1937.65362 0.01437
1936.36785 0.01420
1935.08208 0.01395
1933.79632 0.01364
1932.51055 0.01339
1931.22478 0.01335
1929.93901 0.01353
1928.65324 0.01381
1927.36747 0.01403
1926.08170 0.01409
1924.79593 0.01401
1923.51016 0.01378
1922.22440 0.01342
1920.93863 0.01294
1919.65286 0.01247
1918.36709 0.01223
1917.08132 0.01243
1915.79555 0.01296
1914.50978 0.01351
1913.22401 0.01375
1911.93825 0.01362
1910.65248 0.01327
1909.36671 0.01285
1908.08094 0.01241
1906.79517 0.01204
1905.50940 0.01187
1904.22363 0.01200
1902.93786 0.01233
1901.65209 0.01264
1900.36633 0.01274
1899.08056 0.01261
1897.79479 0.01238
1896.50902 0.01225
1895.22325 0.01229
1893.93748 0.01253
1892.65171 0.01291
1891.36594 0.01326
1890.08018 0.01338
1888.79441 0.01317
1887.50864 0.01283
1886.22287 0.01265
1884.93710 0.01277
1883.65133 0.01308
1882.36556 0.01333
1881.07979 0.01338
1879.79402 0.01324
1878.50826 0.01306
1877.22249 0.01300
1875.93672 0.01312
1874.65095 0.01333
1873.36518 0.01349
1872.07941 0.01352
1870.79364 0.01347
1869.50787 0.01342
1868.22211 0.01339
1866.93634 0.01335
1865.65057 0.01325
1864.36480 0.01317
1863.07903 0.01321
1861.79326 0.01342
1860.50749 0.01372
1859.22172 0.01397
1857.93595 0.01404
1856.65019 0.01388
1855.36442 0.01361
1854.07865 0.01336
1852.79288 0.01325
1851.50711 0.01333
1850.22134 0.01357
1848.93557 0.01386
1847.64980 0.01402
1846.36404 0.01390
1845.07827 0.01357
1843.79250 0.01326
1842.50673 0.01310
1841.22096 0.01305
1839.93519 0.01297
1838.64942 0.01284
1837.36365 0.01271
1836.07788 0.01259
1834.79212 0.01258
1833.50635 0.01270
1832.22058 0.01294
1830.93481 0.01322
1829.64904 0.01345
1828.36327 0.01358
1827.07750 0.01362
1825.79173 0.01367
1824.50597 0.01383
1823.22020 0.01408
1821.93443 0.01436
1820.64866 0.01463
1819.36289 0.01485
1818.07712 0.01488
1816.79135 0.01462
1815.50558 0.01414
1814.21981 0.01366
1812.93405 0.01335
1811.64828 0.01323
1810.36251 0.01320
1809.07674 0.01322
1807.79097 0.01328
1806.50520 0.01337
1805.21943 0.01343
1803.93366 0.01335
1802.64790 0.01316
1801.36213 0.01298
1800.07636 0.01293
1798.79059 0.01297
1797.50482 0.01296
1796.21905 0.01285
1794.93328 0.01276
1793.64751 0.01281
1792.36174 0.01301
1791.07598 0.01322
1789.79021 0.01331
1788.50444 0.01326
1787.21867 0.01317
1785.93290 0.01311
1784.64713 0.01314
1783.36136 0.01326
1782.07559 0.01339
1780.78983 0.01343
1779.50406 0.01334
1778.21829 0.01317
1776.93252 0.01298
1775.64675 0.01287
1774.36098 0.01287
1773.07521 0.01303
1771.78944 0.01328
1770.50367 0.01345
1769.21791 0.01338
1767.93214 0.01316
1766.64637 0.01299
1765.36060 0.01295
1764.07483 0.01301
1762.78906 0.01312
1761.50329 0.01327
1760.21752 0.01335
1758.93176 0.01329
1757.64599 0.01314
1756.36022 0.01305
1755.07445 0.01308
1753.78868 0.01315
1752.50291 0.01318
1751.21714 0.01319
1749.93137 0.01319
1748.64560 0.01311
1747.35984 0.01293
1746.07407 0.01270
1744.78830 0.01256
1743.50253 0.01256
1742.21676 0.01265
1740.93099 0.01274
1739.64522 0.01281
1738.35945 0.01292
1737.07369 0.01306
1735.78792 0.01319
1734.50215 0.01332
1733.21638 0.01345
1731.93061 0.01347
1730.64484 0.01329
1729.35907 0.01304
1728.07330 0.01291
1726.78753 0.01291
1725.50177 0.01297
1724.21600 0.01303
1722.93023 0.01313
1721.64446 0.01330
1720.35869 0.01354
1719.07292 0.01384
1717.78715 0.01418
1716.50138 0.01452
1715.21561 0.01473
1713.92985 0.01481
1712.64408 0.01490
1711.35831 0.01513
1710.07254 0.01548
1708.78677 0.01588
1707.50100 0.01630
1706.21523 0.01679
1704.92946 0.01740
1703.64370 0.01815
1702.35793 0.01895
1701.07216 0.01982
1699.78639 0.02081
1698.50062 0.02177
1697.21485 0.02251
1695.92908 0.02314
1694.64331 0.02384
1693.35754 0.02454
1692.07178 0.02510
1690.78601 0.02565
1689.50024 0.02638
1688.21447 0.02730
1686.92870 0.02831
1685.64293 0.02935
1684.35716 0.03046
1683.07139 0.03154
1681.78563 0.03237
1680.49986 0.03298
1679.21409 0.03358
1677.92832 0.03431
1676.64255 0.03511
1675.35678 0.03594
1674.07101 0.03677
1672.78524 0.03756
1671.49947 0.03830
1670.21371 0.03902
1668.92794 0.03980
1667.64217 0.04058
1666.35640 0.04131
1665.07063 0.04199
1663.78486 0.04268
1662.49909 0.04343
1661.21332 0.04420
1659.92756 0.04489
1658.64179 0.04549
1657.35602 0.04608
1656.07025 0.04673
1654.78448 0.04744
1653.49871 0.04821
1652.21294 0.04896
1650.92717 0.04946
1649.64140 0.04955
1648.35564 0.04943
1647.06987 0.04939
1645.78410 0.04950
1644.49833 0.04963
1643.21256 0.04967
1641.92679 0.04964
1640.64102 0.04957
1639.35525 0.04946
1638.06949 0.04927
1636.78372 0.04903
1635.49795 0.04879
1634.21218 0.04850
1632.92641 0.04802
1631.64064 0.04732
1630.35487 0.04654
1629.06910 0.04580
1627.78333 0.04516
1626.49757 0.04454
1625.21180 0.04387
1623.92603 0.04310
1622.64026 0.04229
1621.35449 0.04152
1620.06872 0.04082
1618.78295 0.04019
1617.49718 0.03961
1616.21142 0.03908
1614.92565 0.03852
1613.63988 0.03787
1612.35411 0.03720
1611.06834 0.03661
1609.78257 0.03610
1608.49680 0.03559
1607.21103 0.03508
1605.92526 0.03461
1604.63950 0.03421
1603.35373 0.03388
1602.06796 0.03359
1600.78219 0.03331
1599.49642 0.03306
1598.21065 0.03290
1596.92488 0.03285
1595.63911 0.03288
1594.35335 0.03293
1593.06758 0.03297
1591.78181 0.03301
1590.49604 0.03308
1589.21027 0.03317
1587.92450 0.03328
1586.63873 0.03341
1585.35296 0.03357
1584.06719 0.03379
1582.78143 0.03406
1581.49566 0.03438
1580.20989 0.03474
1578.92412 0.03511
1577.63835 0.03546
1576.35258 0.03582
1575.06681 0.03623
1573.78104 0.03659
1572.49528 0.03684
1571.20951 0.03710
1569.92374 0.03748
1568.63797 0.03796
1567.35220 0.03836
1566.06643 0.03864
1564.78066 0.03889
1563.49489 0.03925
1562.20912 0.03968
1560.92336 0.04015
1559.63759 0.04068
1558.35182 0.04125
1557.06605 0.04169
1555.78028 0.04187
1554.49451 0.04191
1553.20874 0.04201
1551.92297 0.04220
1550.63721 0.04241
1549.35144 0.04258
1548.06567 0.04272
1546.77990 0.04280
1545.49413 0.04286
1544.20836 0.04298
1542.92259 0.04319
1541.63682 0.04343
1540.35105 0.04362
1539.06529 0.04371
1537.77952 0.04365
1536.49375 0.04337
1535.20798 0.04297
1533.92221 0.04265
1532.63644 0.04250
1531.35067 0.04244
1530.06490 0.04240
1528.77914 0.04238
1527.49337 0.04244
1526.20760 0.04257
1524.92183 0.04275
1523.63606 0.04290
1522.35029 0.04300
1521.06452 0.04313
1519.77875 0.04333
1518.49298 0.04351
1517.20722 0.04361
1515.92145 0.04368
1514.63568 0.04376
1513.34991 0.04384
1512.06414 0.04400
1510.77837 0.04429
1509.49260 0.04469
1508.20683 0.04511
1506.92107 0.04555
1505.63530 0.04599
1504.34953 0.04632
1503.06376 0.04646
1501.77799 0.04648
1500.49222 0.04656
1499.20645 0.04672
1497.92068 0.04689
1496.63491 0.04701
1495.34915 0.04709
1494.06338 0.04714
1492.77761 0.04718
1491.49184 0.04729
1490.20607 0.04753
1488.92030 0.04786
1487.63453 0.04820
1486.34876 0.04856
1485.06299 0.04895
1483.77723 0.04938
1482.49146 0.04985
1481.20569 0.05040
1479.91992 0.05105
1478.63415 0.05179
1477.34838 0.05258
1476.06261 0.05336
1474.77684 0.05408
1473.49108 0.05471
1472.20531 0.05528
1470.91954 0.05582
1469.63377 0.05630
1468.34800 0.05673
1467.06223 0.05713
1465.77646 0.05750
1464.49069 0.05789
1463.20492 0.05830
1461.91916 0.05879
1460.63339 0.05939
1459.34762 0.06012
1458.06185 0.06095
1456.77608 0.06183
1455.49031 0.06265
1454.20454 0.06325
1452.91877 0.06359
1451.63301 0.06377
1450.34724 0.06390
1449.06147 0.06403
1447.77570 0.06417
1446.48993 0.06427
1445.20416 0.06427
1443.91839 0.06414
1442.63262 0.06391
1441.34685 0.06363
1440.06109 0.06333
1438.77532 0.06305
1437.48955 0.06282
1436.20378 0.06267
1434.91801 0.06258
1433.63224 0.06253
1432.34647 0.06257
1431.06070 0.06279
1429.77494 0.06321
1428.48917 0.06373
1427.20340 0.06429
1425.91763 0.06487
1424.63186 0.06551
1423.34609 0.06621
1422.06032 0.06694
1420.77455 0.06766
1419.48878 0.06837
1418.20302 0.06905
1416.91725 0.06964
1415.63148 0.07004
1414.34571 0.07030
1413.05994 0.07049
1411.77417 0.07060
1410.48840 0.07058
1409.20263 0.07037
1407.91687 0.06999
1406.63110 0.06949
1405.34533 0.06893
1404.05956 0.06829
1402.77379 0.06750
1401.48802 0.06655
1400.20225 0.06545
1398.91648 0.06430
1397.63071 0.06310
1396.34495 0.06185
1395.05918 0.06056
1393.77341 0.05926
1392.48764 0.05797
1391.20187 0.05666
1389.91610 0.05533
1388.63033 0.05403
1387.34456 0.05283
1386.05880 0.05172
1384.77303 0.05063
1383.48726 0.04949
1382.20149 0.04832
1380.91572 0.04716
1379.62995 0.04600
1378.34418 0.04483
1377.05841 0.04366
1375.77264 0.04249
1374.48688 0.04133
1373.20111 0.04018
1371.91534 0.03907
1370.62957 0.03802
1369.34380 0.03704
1368.05803 0.03613
1366.77226 0.03528
1365.48649 0.03446
1364.20073 0.03365
1362.91496 0.03287
1361.62919 0.03214
1360.34342 0.03148
1359.05765 0.03088
1357.77188 0.03032
1356.48611 0.02980
1355.20034 0.02933
1353.91457 0.02895
1352.62881 0.02866
1351.34304 0.02843
1350.05727 0.02821
1348.77150 0.02798
1347.48573 0.02772
1346.19996 0.02745
1344.91419 0.02720
1343.62842 0.02699
1342.34266 0.02680
1341.05689 0.02660
1339.77112 0.02638
1338.48535 0.02615
1337.19958 0.02595
1335.91381 0.02578
1334.62804 0.02559
1333.34227 0.02536
1332.05650 0.02509
1330.77074 0.02480
1329.48497 0.02454
1328.19920 0.02432
1326.91343 0.02416
1325.62766 0.02402
1324.34189 0.02386
1323.05612 0.02363
1321.77035 0.02335
1320.48459 0.02305
1319.19882 0.02280
1317.91305 0.02260
1316.62728 0.02243
1315.34151 0.02227
1314.05574 0.02212
1312.76997 0.02199
1311.48420 0.02185
1310.19843 0.02171
1308.91267 0.02158
1307.62690 0.02146
1306.34113 0.02133
1305.05536 0.02117
1303.76959 0.02098
1302.48382 0.02079
1301.19805 0.02065
1299.91228 0.02055
1298.62652 0.02047
1297.34075 0.02034
1296.05498 0.02016
1294.76921 0.01995
1293.48344 0.01978
1292.19767 0.01967
1290.91190 0.01962
1289.62613 0.01959
1288.34036 0.01955
1287.05460 0.01948
1285.76883 0.01942
1284.48306 0.01939
1283.19729 0.01939
1281.91152 0.01941
1280.62575 0.01938
1279.33998 0.01933
1278.05421 0.01926
1276.76845 0.01922
1275.48268 0.01922
1274.19691 0.01920
1272.91114 0.01915
1271.62537 0.01905
1270.33960 0.01892
1269.05383 0.01881
1267.76806 0.01874
1266.48229 0.01873
1265.19653 0.01874
1263.91076 0.01874
1262.62499 0.01873
1261.33922 0.01870
1260.05345 0.01868
1258.76768 0.01867
1257.48191 0.01871
1256.19614 0.01878
1254.91037 0.01888
1253.62461 0.01900
1252.33884 0.01909
1251.05307 0.01918
1249.76730 0.01925
1248.48153 0.01930
1247.19576 0.01931
1245.90999 0.01927
1244.62422 0.01919
1243.33846 0.01913
1242.05269 0.01913
1240.76692 0.01917
1239.48115 0.01924
1238.19538 0.01928
1236.90961 0.01927
1235.62384 0.01920
1234.33807 0.01907
1233.05230 0.01891
1231.76654 0.01876
1230.48077 0.01862
1229.19500 0.01853
1227.90923 0.01847
1226.62346 0.01844
1225.33769 0.01843
1224.05192 0.01841
1222.76615 0.01835
1221.48039 0.01827
1220.19462 0.01818
1218.90885 0.01811
1217.62308 0.01804
1216.33731 0.01794
1215.05154 0.01781
1213.76577 0.01770
1212.48000 0.01766
1211.19423 0.01773
1209.90847 0.01787
1208.62270 0.01802
1207.33693 0.01816
1206.05116 0.01825
1204.76539 0.01834
1203.47962 0.01846
1202.19385 0.01861
1200.90808 0.01870
1199.62232 0.01866
1198.33655 0.01872
1197.05078 0.01872
1195.76501 0.01866
1194.47924 0.01859
1193.19347 0.01858
1191.90770 0.01862
1190.62193 0.01864
1189.33616 0.01861
1188.05040 0.01853
1186.76463 0.01845
1185.47886 0.01840
1184.19309 0.01838
1182.90732 0.01838
1181.62155 0.01840
1180.33578 0.01840
1179.05001 0.01840
1177.76425 0.01839
1176.47848 0.01840
1175.19271 0.01846
1173.90694 0.01857
1172.62117 0.01873
1171.33540 0.01894
1170.04963 0.01918
1168.76386 0.01941
1167.47809 0.01958
1166.19233 0.01966
1164.90656 0.01971
1163.62079 0.01978
1162.33502 0.01992
1161.04925 0.02011
1159.76348 0.02032
1158.47771 0.02052
1157.19194 0.02070
1155.90618 0.02087
1154.62041 0.02103
1153.33464 0.02117
1152.04887 0.02132
1150.76310 0.02148
1149.47733 0.02169
1148.19156 0.02195
1146.90579 0.02228
1145.62002 0.02269
1144.33426 0.02315
1143.04849 0.02363
1141.76272 0.02409
1140.47695 0.02455
1139.19118 0.02506
1137.90541 0.02563
1136.61964 0.02623
1135.33387 0.02685
1134.04811 0.02757
1132.76234 0.02850
1131.47657 0.02968
1130.19080 0.03104
1128.90503 0.03249
1127.61926 0.03398
1126.33349 0.03550
1125.04772 0.03712
1123.76195 0.03889
1122.47619 0.04083
1121.19042 0.04289
1119.90465 0.04498
1118.61888 0.04705
1117.33311 0.04912
1116.04734 0.05125
1114.76157 0.05345
1113.47580 0.05566
1112.19004 0.05785
1110.90427 0.06000
1109.61850 0.06214
1108.33273 0.06429
1107.04696 0.06642
1105.76119 0.06851
1104.47542 0.07055
1103.18965 0.07256
1101.90388 0.07455
1100.61812 0.07649
1099.33235 0.07834
1098.04658 0.08009
1096.76081 0.08180
1095.47504 0.08347
1094.18927 0.08508
1092.90350 0.08656
1091.61773 0.08790
1090.33197 0.08916
1089.04620 0.09043
1087.76043 0.09175
1086.47466 0.09308
1085.18889 0.09438
1083.90312 0.09561
1082.61735 0.09681
1081.33158 0.09800
1080.04581 0.09927
1078.76005 0.10067
1077.47428 0.10226
1076.18851 0.10399
1074.90274 0.10578
1073.61697 0.10761
1072.33120 0.10950
1071.04543 0.11147
1069.75966 0.11350
1068.47390 0.11558
1067.18813 0.11768
1065.90236 0.11980
1064.61659 0.12195
1063.33082 0.12413
1062.04505 0.12635
1060.75928 0.12861
1059.47351 0.13087
1058.18774 0.13311
1056.90198 0.13533
1055.61621 0.13751
1054.33044 0.13960
1053.04467 0.14159
1051.75890 0.14354
1050.47313 0.14549
1049.18736 0.14749
1047.90159 0.14955
1046.61583 0.15167
1045.33006 0.15385
1044.04429 0.15602
1042.75852 0.15815
1041.47275 0.16027
1040.18698 0.16244
1038.90121 0.16467
1037.61544 0.16690
1036.32967 0.16907
1035.04391 0.17118
1033.75814 0.17323
1032.47237 0.17520
1031.18660 0.17706
1029.90083 0.17876
1028.61506 0.18028
1027.32929 0.18160
1026.04352 0.18275
1024.75775 0.18374
1023.47199 0.18458
1022.18622 0.18520
1020.90045 0.18554
1019.61468 0.18558
1018.32891 0.18535
1017.04314 0.18493
1015.75737 0.18435
1014.47160 0.18357
1013.18584 0.18251
1011.90007 0.18112
1010.61430 0.17940
1009.32853 0.17739
1008.04276 0.17513
1006.75699 0.17264
1005.47122 0.16991
1004.18545 0.16693
1002.89968 0.16368
1001.61392 0.16022
1000.32815 0.15659
999.04238 0.15286
997.75661 0.14911
996.47084 0.14537
995.18507 0.14164
993.89930 0.13788
992.61353 0.13407
991.32777 0.13022
990.04200 0.12633
988.75623 0.12246
987.47046 0.11868
986.18469 0.11510
984.89892 0.11170
983.61315 0.10843
982.32738 0.10521
981.04161 0.10207
979.75585 0.09907
978.47008 0.09625
977.18431 0.09359
975.89854 0.09108
974.61277 0.08878
973.32700 0.08674
972.04123 0.08493
970.75546 0.08335
969.46970 0.08208
968.18393 0.08124
966.89816 0.08091
965.61239 0.08104
964.32662 0.08142
963.04085 0.08186
961.75508 0.08224
960.46931 0.08244
959.18354 0.08231
957.89778 0.08173
956.61201 0.08072
955.32624 0.07939
954.04047 0.07786
952.75470 0.07617
951.46893 0.07441
950.18316 0.07266
948.89739 0.07102
947.61163 0.06949
946.32586 0.06801
945.04009 0.06652
943.75432 0.06504
942.46855 0.06358
941.18278 0.06213
939.89701 0.06068
938.61124 0.05926
937.32547 0.05793
936.03971 0.05672
934.75394 0.05565
933.46817 0.05469
932.18240 0.05382
930.89663 0.05297
929.61086 0.05208
928.32509 0.05113
927.03932 0.05015
925.75356 0.04919
924.46779 0.04829
923.18202 0.04747
921.89625 0.04675
920.61048 0.04613
919.32471 0.04557
918.03894 0.04502
916.75317 0.04443
915.46740 0.04381
914.18164 0.04320
912.89587 0.04262
911.61010 0.04206
910.32433 0.04150
909.03856 0.04099
907.75279 0.04059
906.46702 0.04031
905.18125 0.04007
903.89549 0.03978
902.60972 0.03940
901.32395 0.03899
900.03818 0.03857
898.75241 0.03815
897.46664 0.03772
896.18087 0.03729
894.89510 0.03692
893.60933 0.03664
892.32357 0.03641
891.03780 0.03619
889.75203 0.03601
888.46626 0.03596
887.18049 0.03617
885.89472 0.03675
884.60895 0.03776
883.32318 0.03917
882.03742 0.04085
880.75165 0.04263
879.46588 0.04428
878.18011 0.04557
876.89434 0.04650
875.60857 0.04724
874.32280 0.04799
873.03703 0.04868
871.75126 0.04909
870.46550 0.04905
869.17973 0.04854
867.89396 0.04764
866.60819 0.04644
865.32242 0.04506
864.03665 0.04365
862.75088 0.04227
861.46511 0.04096
860.17935 0.03971
858.89358 0.03855
857.60781 0.03752
856.32204 0.03665
855.03627 0.03596
853.75050 0.03546
852.46473 0.03508
851.17896 0.03469
849.89319 0.03420
848.60743 0.03364
847.32166 0.03313
846.03589 0.03275
844.75012 0.03247
843.46435 0.03224
842.17858 0.03200
840.89281 0.03176
839.60704 0.03149
838.32128 0.03120
837.03551 0.03092
835.74974 0.03064
834.46397 0.03038
833.17820 0.03012
831.89243 0.02986
830.60666 0.02962
829.32089 0.02944
828.03512 0.02933
826.74936 0.02929
825.46359 0.02925
824.17782 0.02916
822.89205 0.02904
821.60628 0.02892
820.32051 0.02883
819.03474 0.02872
817.74897 0.02861
816.46321 0.02851
815.17744 0.02844
813.89167 0.02842
812.60590 0.02843
811.32013 0.02842
810.03436 0.02834
808.74859 0.02822
807.46282 0.02812
806.17705 0.02811
804.89129 0.02818
803.60552 0.02827
802.31975 0.02827
801.03398 0.02814
799.74821 0.02796
798.46244 0.02784
797.17667 0.02786
795.89090 0.02795
794.60513 0.02800
793.31937 0.02803
792.03360 0.02811
790.74783 0.02826
789.46206 0.02839
788.17629 0.02840
786.89052 0.02830
785.60475 0.02819
784.31898 0.02811
783.03322 0.02801
781.74745 0.02786
780.46168 0.02770
779.17591 0.02767
777.89014 0.02779
776.60437 0.02798
775.31860 0.02806
774.03283 0.02796
772.74706 0.02776
771.46130 0.02759
770.17553 0.02754
768.88976 0.02753
767.60399 0.02751
766.31822 0.02744
765.03245 0.02737
763.74668 0.02735
762.46091 0.02737
761.17515 0.02742
759.88938 0.02747
758.60361 0.02754
757.31784 0.02761
756.03207 0.02766
754.74630 0.02769
753.46053 0.02765
752.17476 0.02753
750.88899 0.02736
749.60323 0.02723
748.31746 0.02718
747.03169 0.02711
745.74592 0.02695
744.46015 0.02676
743.17438 0.02668
741.88861 0.02680
740.60284 0.02705
739.31708 0.02731
738.03131 0.02747
736.74554 0.02750
735.45977 0.02747
734.17400 0.02742
732.88823 0.02737
731.60246 0.02734
730.31669 0.02735
729.03092 0.02739
727.74516 0.02742
726.45939 0.02740
725.17362 0.02731
723.88785 0.02719
722.60208 0.02710
721.31631 0.02708
720.03054 0.02714
718.74477 0.02726
717.45901 0.02742
716.17324 0.02758
714.88747 0.02769
713.60170 0.02772
712.31593 0.02768
711.03016 0.02761
709.74439 0.02755
708.45862 0.02750
707.17285 0.02745
705.88709 0.02739
704.60132 0.02731
703.31555 0.02723
702.02978 0.02715
700.74401 0.02710
699.45824 0.02709
698.17247 0.02712
696.88670 0.02714
695.60094 0.02709
694.31517 0.02700
693.02940 0.02693
691.74363 0.02691
690.45786 0.02698
689.17209 0.02708
687.88632 0.02717
686.60055 0.02720
685.31478 0.02714
684.02902 0.02698
682.74325 0.02672
681.45748 0.02649
680.17171 0.02637
678.88594 0.02637
677.60017 0.02645
676.31440 0.02650
675.02863 0.02657
673.74287 0.02672
672.45710 0.02689
671.17133 0.02699
669.88556 0.02699
668.59979 0.02703
667.31402 0.02712
666.02825 0.02698
664.74248 0.02689
663.45671 0.02678
662.17095 0.02666
660.88518 0.02657
659.59941 0.02653
658.31364 0.02649
657.02787 0.02647
655.74210 0.02652
654.45633 0.02662
653.17056 0.02673
651.88480 0.02683
650.59903 0.02688
649.31326 0.02687
648.02749 0.02687
646.74172 0.02692
645.45595 0.02703
644.17018 0.02719
642.88441 0.02736
641.59864 0.02750
640.31288 0.02759
639.02711 0.02764
637.74134 0.02764
636.45557 0.02764
635.16980 0.02769
633.88403 0.02774
632.59826 0.02766
631.31249 0.02755
630.02673 0.02813
628.74096 0.02912
627.45519 0.02799
626.16942 0.02966
624.88365 0.03350
623.59788 0.03766
622.31211 0.04121
621.02634 0.04342
619.74057 0.04395
618.45481 0.04327
617.16904 0.04237
615.88327 0.04206
614.59750 0.04264
613.31173 0.04437
612.02596 0.04760
610.74019 0.05250
609.45442 0.05861
608.16866 0.06519
606.88289 0.07155
605.59712 0.07704
604.31135 0.08090
603.02558 0.08269
601.73981 0.08270
600.45404 0.08151
599.16827 0.07952
597.88250 0.07695
596.59674 0.07403
595.31097 0.07119
594.02520 0.06876
592.73943 0.06688
591.45366 0.06548
590.16789 0.06447
588.88212 0.06379
587.59635 0.06353
586.31059 0.06379
585.02482 0.06463
583.73905 0.06595
582.45328 0.06762
581.16751 0.06948
579.88174 0.07144
578.59597 0.07344
577.31020 0.07543
576.02443 0.07740
574.73867 0.07933
573.45290 0.08120
572.16713 0.08307
570.88136 0.08512
569.59559 0.08753
568.30982 0.09032
567.02405 0.09334
565.73828 0.09629
564.45251 0.09889
563.16675 0.10091
561.88098 0.10209
560.59521 0.10215
559.30944 0.10095
558.02367 0.09857
556.73790 0.09531
555.45213 0.09155
554.16636 0.08761
552.88060 0.08370
551.59483 0.07987
550.30906 0.07614
549.02329 0.07260
547.73752 0.06938
546.45175 0.06657
545.16598 0.06411
543.88021 0.06190
542.59444 0.05978
541.30868 0.05774
540.02291 0.05580
538.73714 0.05407
537.45137 0.05263
536.16560 0.05145
534.87983 0.05042
533.59406 0.04936
532.30829 0.04822
531.02253 0.04705
529.73676 0.04595
528.45099 0.04498
527.16522 0.04409
525.87945 0.04323
524.59368 0.04240
523.30791 0.04164
522.02214 0.04093
520.73637 0.04025
519.45061 0.03958
518.16484 0.03891
516.87907 0.03824
515.59330 0.03758
514.30753 0.03694
513.02176 0.03640
511.73599 0.03600
510.45022 0.03571
509.16446 0.03542
507.87869 0.03501
506.59292 0.03448
505.30715 0.03386
504.02138 0.03324
502.73561 0.03268
501.44984 0.03222
500.16407 0.03185
498.87830 0.03154
497.59254 0.03125
496.30677 0.03098
495.02100 0.03075
493.73523 0.03058
492.44946 0.03045
491.16369 0.03030
489.87792 0.03004
488.59215 0.02967
487.30639 0.02931
486.02062 0.02910
484.73485 0.02910
483.44908 0.02925
482.16331 0.02943
480.87754 0.02950
479.59177 0.02946
478.30600 0.02943
477.02023 0.02949
475.73447 0.02966
474.44870 0.02983
473.16293 0.02993
471.87716 0.02994
470.59139 0.02989
469.30562 0.02977
468.01985 0.02956
466.73408 0.02929
465.44832 0.02901
464.16255 0.02874
462.87678 0.02846
461.59101 0.02816
460.30524 0.02783
459.01947 0.02748
457.73370 0.02712
456.44793 0.02677
455.16216 0.02640
453.87640 0.02602
452.59063 0.02566
451.30486 0.02535
450.01909 0.02508
448.73332 0.02479
447.44755 0.02449
446.16178 0.02421
444.87601 0.02400
443.59025 0.02384
442.30448 0.02366
441.01871 0.02343
439.73294 0.02317
438.44717 0.02294
437.16140 0.02277
435.87563 0.02266
434.58986 0.02258
433.30409 0.02248
432.01833 0.02235
430.73256 0.02221
429.44679 0.02206
428.16102 0.02190
426.87525 0.02174
425.58948 0.02158
424.30371 0.02142
423.01794 0.02125
421.73218 0.02105
420.44641 0.02083
419.16064 0.02064
417.87487 0.02049
416.58910 0.02035
415.30333 0.02018
414.01756 0.02000
412.73179 0.01980
411.44602 0.01961
410.16026 0.01944
408.87449 0.01933
407.58872 0.01931
406.30295 0.01935
405.01718 0.01942
403.73141 0.01949
402.44564 0.01953
401.15987 0.01957
399.87411 0.01963
