3997.45528 0.06012
3996.16951 0.06047
3994.88374 0.06099
3993.59798 0.06147
3992.31221 0.06166
3991.02644 0.06153
3989.74067 0.06122
3988.45490 0.06096
3987.16913 0.06084
3985.88336 0.06063
3984.59759 0.05998
3983.31183 0.05896
3982.02606 0.05812
3980.74029 0.05808
3979.45452 0.05882
3978.16875 0.05968
3976.88298 0.06003
3975.59721 0.05984
3974.31144 0.05955
3973.02567 0.05939
3971.73991 0.05910
3970.45414 0.05841
3969.16837 0.05760
3967.88260 0.05740
3966.59683 0.05826
3965.31106 0.05985
3964.02529 0.06130
3962.73952 0.06180
3961.45376 0.06130
3960.16799 0.06046
3958.88222 0.05995
3957.59645 0.05981
3956.31068 0.05965
3955.02491 0.05929
3953.73914 0.05909
3952.45337 0.05951
3951.16760 0.06040
3949.88184 0.06105
3948.59607 0.06088
3947.31030 0.06006
3946.02453 0.05915
3944.73876 0.05857
3943.45299 0.05849
3942.16722 0.05897
3940.88145 0.05990
3939.59569 0.06080
3938.30992 0.06115
3937.02415 0.06089
3935.73838 0.06048
3934.45261 0.06029
3933.16684 0.06026
3931.88107 0.06018
3930.59530 0.05998
3929.30953 0.05962
3928.02377 0.05907
3926.73800 0.05847
3925.45223 0.05800
3924.16646 0.05758
3922.88069 0.05704
3921.59492 0.05649
3920.30915 0.05634
3919.02338 0.05679
3917.73762 0.05747
3916.45185 0.05784
3915.16608 0.05771
3913.88031 0.05722
3912.59454 0.05663
3911.30877 0.05622
3910.02300 0.05618
3908.73723 0.05634
3907.45146 0.05631
3906.16570 0.05584
3904.87993 0.05521
3903.59416 0.05491
3902.30839 0.05517
3901.02262 0.05583
3899.73685 0.05660
3898.45108 0.05733
3897.16531 0.05805
3895.87955 0.05887
3894.59378 0.05981
3893.30801 0.06066
3892.02224 0.06100
3890.73647 0.06059
3889.45070 0.05956
3888.16493 0.05831
3886.87916 0.05726
3885.59339 0.05669
3884.30763 0.05661
3883.02186 0.05670
3881.73609 0.05658
3880.45032 0.05618
3879.16455 0.05577
3877.87878 0.05564
3876.59301 0.05584
3875.30724 0.05622
3874.02148 0.05662
3872.73571 0.05704
3871.44994 0.05755
3870.16417 0.05789
3868.87840 0.05757
3867.59263 0.05638
3866.30686 0.05482
3865.02109 0.05374
3863.73532 0.05364
3862.44956 0.05436
3861.16379 0.05540
3859.87802 0.05629
3858.59225 0.05676
3857.30648 0.05685
3856.02071 0.05676
3854.73494 0.05652
3853.44917 0.05606
3852.16341 0.05547
3850.87764 0.05511
3849.59187 0.05533
3848.30610 0.05607
3847.02033 0.05698
3845.73456 0.05771
3844.44879 0.05818
3843.16302 0.05840
3841.87725 0.05824
3840.59149 0.05756
3839.30572 0.05643
3838.01995 0.05514
3836.73418 0.05404
3835.44841 0.05339
3834.16264 0.05327
3832.87687 0.05351
3831.59110 0.05377
3830.30534 0.05387
3829.01957 0.05402
3827.73380 0.05432
3826.44803 0.05445
3825.16226 0.05393
3823.87649 0.05285
3822.59072 0.05192
3821.30495 0.05178
3820.01918 0.05233
3818.73342 0.05291
3817.44765 0.05310
3816.16188 0.05308
3814.87611 0.05337
3813.59034 0.05424
3812.30457 0.05549
3811.01880 0.05666
3809.73303 0.05735
3808.44726 0.05730
3807.16150 0.05645
3805.87573 0.05509
3804.58996 0.05392
3803.30419 0.05359
3802.01842 0.05421
3800.73265 0.05532
3799.44688 0.05640
3798.16111 0.05721
3796.87535 0.05759
3795.58958 0.05717
3794.30381 0.05566
3793.01804 0.05335
3791.73227 0.05107
3790.44650 0.04960
3789.16073 0.04918
3787.87496 0.04961
3786.58919 0.05054
3785.30343 0.05163
3784.01766 0.05253
3782.73189 0.05289
3781.44612 0.05270
3780.16035 0.05244
3778.87458 0.05266
3777.58881 0.05350
3776.30304 0.05456
3775.01728 0.05522
3773.73151 0.05518
3772.44574 0.05473
3771.15997 0.05453
3769.87420 0.05512
3768.58843 0.05638
3767.30266 0.05759
3766.01689 0.05798
3764.73112 0.05730
3763.44536 0.05594
3762.15959 0.05457
3760.87382 0.05356
3759.58805 0.05281
3758.30228 0.05210
3757.01651 0.05137
3755.73074 0.05073
3754.44497 0.05023
3753.15921 0.04983
3751.87344 0.04954
3750.58767 0.04945
3749.30190 0.04968
3748.01613 0.05025
3746.73036 0.05089
3745.44459 0.05117
3744.15882 0.05093
3742.87305 0.05052
3741.58729 0.05052
3740.30152 0.05116
3739.01575 0.05217
3737.72998 0.05307
3736.44421 0.05358
3735.15844 0.05383
3733.87267 0.05407
3732.58690 0.05418
3731.30114 0.05371
3730.01537 0.05239
3728.72960 0.05057
3727.44383 0.04904
3726.15806 0.04847
3724.87229 0.04893
3723.58652 0.04990
3722.30075 0.05079
3721.01498 0.05136
3719.72922 0.05179
3718.44345 0.05222
3717.15768 0.05247
3715.87191 0.05232
3714.58614 0.05177
3713.30037 0.05104
3712.01460 0.05033
3710.72883 0.04976
3709.44307 0.04944
3708.15730 0.04969
3706.87153 0.05069
3705.58576 0.05205
3704.29999 0.05302
3703.01422 0.05280
3701.72845 0.05122
3700.44268 0.04882
3699.15691 0.04677
3697.87115 0.04596
3696.58538 0.04647
3695.29961 0.04759
3694.01384 0.04837
3692.72807 0.04850
3691.44230 0.04833
3690.15653 0.04827
3688.87076 0.04822
3687.58500 0.04791
3686.29923 0.04759
3685.01346 0.04776
3683.72769 0.04848
3682.44192 0.04925
3681.15615 0.04960
3679.87038 0.04958
3678.58461 0.04964
3677.29884 0.05010
3676.01308 0.05091
3674.72731 0.05183
3673.44154 0.05274
3672.15577 0.05359
3670.87000 0.05420
3669.58423 0.05434
3668.29846 0.05403
3667.01269 0.05347
3665.72693 0.05274
3664.44116 0.05168
3663.15539 0.05031
3661.86962 0.04913
3660.58385 0.04876
3659.29808 0.04937
3658.01231 0.05063
3656.72654 0.05197
3655.44077 0.05300
3654.15501 0.05361
3652.86924 0.05377
3651.58347 0.05354
3650.29770 0.05302
3649.01193 0.05250
3647.72616 0.05218
3646.44039 0.05203
3645.15462 0.05189
3643.86886 0.05180
3642.58309 0.05201
3641.29732 0.05256
3640.01155 0.05311
3638.72578 0.05325
3637.44001 0.05292
3636.15424 0.05236
3634.86847 0.05197
3633.58270 0.05206
3632.29694 0.05269
3631.01117 0.05362
3629.72540 0.05447
3628.43963 0.05490
3627.15386 0.05454
3625.86809 0.05322
3624.58232 0.05131
3623.29655 0.04976
3622.01079 0.04949
3620.72502 0.05062
3619.43925 0.05233
3618.15348 0.05354
3616.86771 0.05375
3615.58194 0.05343
3614.29617 0.05351
3613.01040 0.05444
3611.72463 0.05576
3610.43887 0.05663
3609.15310 0.05675
3607.86733 0.05653
3606.58156 0.05645
3605.29579 0.05657
3604.01002 0.05674
3602.72425 0.05681
3601.43848 0.05677
3600.15272 0.05668
3598.86695 0.05680
3597.58118 0.05723
3596.29541 0.05785
3595.00964 0.05828
3593.72387 0.05830
3592.43810 0.05800
3591.15233 0.05770
3589.86656 0.05766
3588.58080 0.05776
3587.29503 0.05776
3586.00926 0.05765
3584.72349 0.05763
3583.43772 0.05774
3582.15195 0.05764
3580.86618 0.05708
3579.58041 0.05626
3578.29464 0.05566
3577.00888 0.05571
3575.72311 0.05650
3574.43734 0.05768
3573.15157 0.05867
3571.86580 0.05905
3570.58003 0.05885
3569.29426 0.05848
3568.00849 0.05836
3566.72273 0.05867
3565.43696 0.05940
3564.15119 0.06036
3562.86542 0.06120
3561.57965 0.06166
3560.29388 0.06177
3559.00811 0.06191
3557.72234 0.06244
3556.43657 0.06329
3555.15081 0.06400
3553.86504 0.06423
3552.57927 0.06408
3551.29350 0.06388
3550.00773 0.06374
3548.72196 0.06352
3547.43619 0.06326
3546.15042 0.06324
3544.86466 0.06366
3543.57889 0.06430
3542.29312 0.06481
3541.00735 0.06512
3539.72158 0.06543
3538.43581 0.06578
3537.15004 0.06588
3535.86427 0.06544
3534.57850 0.06457
3533.29274 0.06383
3532.00697 0.06375
3530.72120 0.06446
3529.43543 0.06552
3528.14966 0.06632
3526.86389 0.06654
3525.57812 0.06642
3524.29235 0.06646
3523.00659 0.06688
3521.72082 0.06747
3520.43505 0.06790
3519.14928 0.06811
3517.86351 0.06825
3516.57774 0.06841
3515.29197 0.06864
3514.00620 0.06890
3512.72043 0.06905
3511.43467 0.06891
3510.14890 0.06847
3508.86313 0.06804
3507.57736 0.06793
3506.29159 0.06815
3505.00582 0.06844
3503.72005 0.06855
3502.43428 0.06839
3501.14852 0.06802
3499.86275 0.06767
3498.57698 0.06767
3497.29121 0.06815
3496.00544 0.06894
3494.71967 0.06966
3493.43390 0.07007
3492.14813 0.07024
3490.86236 0.07035
3489.57660 0.07055
3488.29083 0.07087
3487.00506 0.07129
3485.71929 0.07182
3484.43352 0.07245
3483.14775 0.07300
3481.86198 0.07332
3480.57621 0.07345
3479.29045 0.07365
3478.00468 0.07407
3476.71891 0.07456
3475.43314 0.07487
3474.14737 0.07492
3472.86160 0.07487
3471.57583 0.07490
3470.29006 0.07503
3469.00429 0.07511
3467.71853 0.07502
3466.43276 0.07482
3465.14699 0.07465
3463.86122 0.07459
3462.57545 0.07451
3461.28968 0.07428
3460.00391 0.07388
3458.71814 0.07347
3457.43238 0.07327
3456.14661 0.07344
3454.86084 0.07392
3453.57507 0.07450
3452.28930 0.07493
3451.00353 0.07515
3449.71776 0.07527
3448.43199 0.07549
3447.14622 0.07589
3445.86046 0.07636
3444.57469 0.07663
3443.28892 0.07656
3442.00315 0.07636
3440.71738 0.07641
3439.43161 0.07687
3438.14584 0.07742
3436.86007 0.07766
3435.57431 0.07757
3434.28854 0.07748
3433.00277 0.07762
3431.71700 0.07797
3430.43123 0.07836
3429.14546 0.07854
3427.85969 0.07828
3426.57392 0.07760
3425.28815 0.07687
3424.00239 0.07650
3422.71662 0.07653
3421.43085 0.07671
3420.14508 0.07687
3418.85931 0.07701
3417.57354 0.07714
3416.28777 0.07727
3415.00200 0.07748
3413.71624 0.07784
3412.43047 0.07825
3411.14470 0.07844
3409.85893 0.07828
3408.57316 0.07810
3407.28739 0.07845
3406.00162 0.07951
3404.71585 0.08085
3403.43008 0.08184
3402.14432 0.08234
3400.85855 0.08275
3399.57278 0.08342
3398.28701 0.08406
3397.00124 0.08410
3395.71547 0.08330
3394.42970 0.08211
3393.14393 0.08121
3391.85817 0.08091
3390.57240 0.08106
3389.28663 0.08134
3388.00086 0.08154
3386.71509 0.08155
3385.42932 0.08136
3384.14355 0.08117
3382.85778 0.08131
3381.57201 0.08180
3380.28625 0.08224
3379.00048 0.08217
3377.71471 0.08156
3376.42894 0.08082
3375.14317 0.08039
3373.85740 0.08050
3372.57163 0.08119
3371.28586 0.08232
3370.00010 0.08350
3368.71433 0.08426
3367.42856 0.08435
3366.14279 0.08389
3364.85702 0.08318
3363.57125 0.08256
3362.28548 0.08226
3360.99971 0.08239
3359.71394 0.08284
3358.42818 0.08336
3357.14241 0.08382
3355.85664 0.08425
3354.57087 0.08478
3353.28510 0.08530
3351.99933 0.08549
3350.71356 0.08515
3349.42779 0.08435
3348.14202 0.08343
3346.85626 0.08272
3345.57049 0.08233
3344.28472 0.08223
3342.99895 0.08233
3341.71318 0.08254
3340.42741 0.08277
3339.14164 0.08299
3337.85587 0.08324
3336.57011 0.08354
3335.28434 0.08382
3333.99857 0.08387
3332.71280 0.08358
3331.42703 0.08313
3330.14126 0.08279
3328.85549 0.08265
3327.56972 0.08256
3326.28395 0.08250
3324.99819 0.08259
3323.71242 0.08297
3322.42665 0.08354
3321.14088 0.08403
3319.85511 0.08421
3318.56934 0.08406
3317.28357 0.08375
3315.99780 0.08360
3314.71204 0.08376
3313.42627 0.08414
3312.14050 0.08450
3310.85473 0.08463
3309.56896 0.08454
3308.28319 0.08438
3306.99742 0.08431
3305.71165 0.08438
3304.42588 0.08451
3303.14012 0.08449
3301.85435 0.08420
3300.56858 0.08376
3299.28281 0.08354
3297.99704 0.08381
3296.71127 0.08442
3295.42550 0.08493
3294.13973 0.08503
3292.85397 0.08487
3291.56820 0.08483
3290.28243 0.08509
3288.99666 0.08539
3287.71089 0.08534
3286.42512 0.08488
3285.13935 0.08429
3283.85358 0.08376
3282.56781 0.08328
3281.28205 0.08286
3279.99628 0.08274
3278.71051 0.08298
3277.42474 0.08331
3276.13897 0.08339
3274.85320 0.08322
3273.56743 0.08301
3272.28166 0.08301
3270.99590 0.08333
3269.71013 0.08397
3268.42436 0.08474
3267.13859 0.08533
3265.85282 0.08559
3264.56705 0.08553
3263.28128 0.08528
3261.99551 0.08491
3260.70974 0.08450
3259.42398 0.08408
3258.13821 0.08362
3256.85244 0.08304
3255.56667 0.08238
3254.28090 0.08182
3252.99513 0.08151
3251.70936 0.08135
3250.42359 0.08119
3249.13783 0.08100
3247.85206 0.08082
3246.56629 0.08068
3245.28052 0.08051
3243.99475 0.08038
3242.70898 0.08052
3241.42321 0.08100
3240.13744 0.08167
3238.85167 0.08222
3237.56591 0.08241
3236.28014 0.08221
3234.99437 0.08174
3233.70860 0.08121
3232.42283 0.08076
3231.13706 0.08045
3229.85129 0.08032
3228.56552 0.08034
3227.27976 0.08047
3225.99399 0.08060
3224.70822 0.08063
3223.42245 0.08048
3222.13668 0.08011
3220.85091 0.07964
3219.56514 0.07923
3218.27937 0.07898
3216.99360 0.07884
3215.70784 0.07878
3214.42207 0.07884
3213.13630 0.07906
3211.85053 0.07934
3210.56476 0.07948
3209.27899 0.07937
3207.99322 0.07897
3206.70745 0.07837
3205.42169 0.07778
3204.13592 0.07739
3202.85015 0.07723
3201.56438 0.07722
3200.27861 0.07724
3198.99284 0.07725
3197.70707 0.07725
3196.42130 0.07719
3195.13553 0.07711
3193.84977 0.07706
3192.56400 0.07709
3191.27823 0.07709
3189.99246 0.07686
3188.70669 0.07630
3187.42092 0.07550
3186.13515 0.07481
3184.84938 0.07457
3183.56362 0.07488
3182.27785 0.07554
3180.99208 0.07612
3179.70631 0.07625
3178.42054 0.07583
3177.13477 0.07512
3175.84900 0.07448
3174.56323 0.07409
3173.27746 0.07396
3171.99170 0.07403
3170.70593 0.07422
3169.42016 0.07437
3168.13439 0.07428
3166.84862 0.07400
3165.56285 0.07374
3164.27708 0.07368
3162.99131 0.07378
3161.70555 0.07391
3160.41978 0.07393
3159.13401 0.07378
3157.84824 0.07340
3156.56247 0.07284
3155.27670 0.07233
3153.99093 0.07204
3152.70516 0.07189
3151.41939 0.07164
3150.13363 0.07121
3148.84786 0.07077
3147.56209 0.07047
3146.27632 0.07026
3144.99055 0.07009
3143.70478 0.07012
3142.41901 0.07046
3141.13324 0.07091
3139.84748 0.07102
3138.56171 0.07060
3137.27594 0.06988
3135.99017 0.06928
3134.70440 0.06900
3133.41863 0.06898
3132.13286 0.06906
3130.84709 0.06920
3129.56132 0.06950
3128.27556 0.06999
3126.98979 0.07053
3125.70402 0.07086
3124.41825 0.07078
3123.13248 0.07031
3121.84671 0.06963
3120.56094 0.06896
3119.27517 0.06849
3117.98940 0.06823
3116.70364 0.06809
3115.41787 0.06793
3114.13210 0.06773
3112.84633 0.06761
3111.56056 0.06762
3110.27479 0.06769
3108.98902 0.06774
3107.70325 0.06778
3106.41749 0.06793
3105.13172 0.06824
3103.84595 0.06855
3102.56018 0.06859
3101.27441 0.06819
3099.98864 0.06750
3098.70287 0.06697
3097.41710 0.06700
3096.13133 0.06758
3094.84557 0.06825
3093.55980 0.06859
3092.27403 0.06854
3090.98826 0.06832
3089.70249 0.06816
3088.41672 0.06809
3087.13095 0.06808
3085.84518 0.06806
3084.55942 0.06787
3083.27365 0.06737
3081.98788 0.06662
3080.70211 0.06594
3079.41634 0.06564
3078.13057 0.06573
3076.84480 0.06600
3075.55903 0.06632
3074.27326 0.06670
3072.98750 0.06709
3071.70173 0.06731
3070.41596 0.06718
3069.13019 0.06675
3067.84442 0.06629
3066.55865 0.06606
3065.27288 0.06614
3063.98711 0.06641
3062.70135 0.06666
3061.41558 0.06687
3060.12981 0.06710
3058.84404 0.06739
3057.55827 0.06760
3056.27250 0.06750
3054.98673 0.06707
3053.70096 0.06651
3052.41519 0.06608
3051.12943 0.06587
3049.84366 0.06575
3048.55789 0.06560
3047.27212 0.06539
3045.98635 0.06512
3044.70058 0.06483
3043.41481 0.06455
3042.12904 0.06441
3040.84328 0.06443
3039.55751 0.06446
3038.27174 0.06422
3036.98597 0.06370
3035.70020 0.06317
3034.41443 0.06299
3033.12866 0.06321
3031.84289 0.06357
3030.55712 0.06377
3029.27136 0.06377
3027.98559 0.06374
3026.69982 0.06373
3025.41405 0.06362
3024.12828 0.06331
3022.84251 0.06295
3021.55674 0.06273
3020.27097 0.06264
3018.98521 0.06252
3017.69944 0.06235
3016.41367 0.06225
3015.12790 0.06228
3013.84213 0.06238
3012.55636 0.06241
3011.27059 0.06227
3009.98482 0.06193
3008.69905 0.06150
3007.41329 0.06118
3006.12752 0.06106
3004.84175 0.06111
3003.55598 0.06125
3002.27021 0.06140
3000.98444 0.06152
2999.69867 0.06155
2998.41290 0.06141
2997.12714 0.06109
2995.84137 0.06067
2994.55560 0.06030
2993.26983 0.06014
2991.98406 0.06031
2990.69829 0.06079
2989.41252 0.06137
2988.12675 0.06182
2986.84098 0.06205
2985.55522 0.06222
2984.26945 0.06245
2982.98368 0.06269
2981.69791 0.06281
2980.41214 0.06276
2979.12637 0.06263
2977.84060 0.06255
2976.55483 0.06267
2975.26907 0.06302
2973.98330 0.06349
2972.69753 0.06392
2971.41176 0.06425
2970.12599 0.06455
2968.84022 0.06486
2967.55445 0.06522
2966.26868 0.06561
2964.98291 0.06606
2963.69715 0.06661
2962.41138 0.06737
2961.12561 0.06835
2959.83984 0.06940
2958.55407 0.07030
2957.26830 0.07088
2955.98253 0.07116
2954.69676 0.07116
2953.41100 0.07081
2952.12523 0.07010
2950.83946 0.06923
2949.55369 0.06857
2948.26792 0.06835
2946.98215 0.06859
2945.69638 0.06908
2944.41061 0.06960
2943.12484 0.06993
2941.83908 0.06998
2940.55331 0.06991
2939.26754 0.06992
2937.98177 0.07010
2936.69600 0.07032
2935.41023 0.07049
2934.12446 0.07070
2932.83869 0.07107
2931.55293 0.07157
2930.26716 0.07200
2928.98139 0.07219
2927.69562 0.07215
2926.40985 0.07196
2925.12408 0.07169
2923.83831 0.07141
2922.55254 0.07115
2921.26677 0.07085
2919.98101 0.07039
2918.69524 0.06975
2917.40947 0.06913
2916.12370 0.06876
2914.83793 0.06866
2913.55216 0.06869
2912.26639 0.06872
2910.98062 0.06872
2909.69486 0.06866
2908.40909 0.06843
2907.12332 0.06800
2905.83755 0.06752
2904.55178 0.06715
2903.26601 0.06683
2901.98024 0.06637
2900.69447 0.06572
2899.40870 0.06506
2898.12294 0.06457
2896.83717 0.06431
2895.55140 0.06420
2894.26563 0.06415
2892.97986 0.06411
2891.69409 0.06402
2890.40832 0.06388
2889.12255 0.06367
2887.83678 0.06342
2886.55102 0.06315
2885.26525 0.06291
2883.97948 0.06275
2882.69371 0.06266
2881.40794 0.06261
2880.12217 0.06252
2878.83640 0.06238
2877.55063 0.06233
2876.26487 0.06253
2874.97910 0.06297
2873.69333 0.06344
2872.40756 0.06372
2871.12179 0.06373
2869.83602 0.06351
2868.55025 0.06315
2867.26448 0.06275
2865.97871 0.06247
2864.69295 0.06238
2863.40718 0.06245
2862.12141 0.06249
2860.83564 0.06231
2859.54987 0.06197
2858.26410 0.06166
2856.97833 0.06148
2855.69256 0.06136
2854.40680 0.06119
2853.12103 0.06096
2851.83526 0.06074
2850.54949 0.06049
2849.26372 0.06015
2847.97795 0.05963
2846.69218 0.05898
2845.40641 0.05835
2844.12064 0.05792
2842.83488 0.05767
2841.54911 0.05747
2840.26334 0.05722
2838.97757 0.05695
2837.69180 0.05674
2836.40603 0.05660
2835.12026 0.05645
2833.83449 0.05615
2832.54873 0.05572
2831.26296 0.05531
2829.97719 0.05505
2828.69142 0.05494
2827.40565 0.05482
2826.11988 0.05448
2824.83411 0.05389
2823.54834 0.05324
2822.26257 0.05279
2820.97681 0.05269
2819.69104 0.05287
2818.40527 0.05307
2817.11950 0.05306
2815.83373 0.05277
2814.54796 0.05233
2813.26219 0.05189
2811.97642 0.05151
2810.69066 0.05122
2809.40489 0.05111
2808.11912 0.05121
2806.83335 0.05139
2805.54758 0.05145
2804.26181 0.05131
2802.97604 0.05109
2801.69027 0.05094
2800.40450 0.05088
2799.11874 0.05084
2797.83297 0.05075
2796.54720 0.05061
2795.26143 0.05046
2793.97566 0.05034
2792.68989 0.05029
2791.40412 0.05029
2790.11835 0.05025
2788.83259 0.05006
2787.54682 0.04973
2786.26105 0.04946
2784.97528 0.04937
2783.68951 0.04939
2782.40374 0.04938
2781.11797 0.04933
2779.83220 0.04930
2778.54643 0.04933
2777.26067 0.04943
2775.97490 0.04959
2774.68913 0.04975
2773.40336 0.04979
2772.11759 0.04969
2770.83182 0.04954
2769.54605 0.04941
2768.26028 0.04924
2766.97452 0.04893
2765.68875 0.04857
2764.40298 0.04831
2763.11721 0.04823
2761.83144 0.04824
2760.54567 0.04826
2759.25990 0.04830
2757.97413 0.04836
2756.68836 0.04836
2755.40260 0.04823
2754.11683 0.04802
2752.83106 0.04786
2751.54529 0.04787
2750.25952 0.04803
2748.97375 0.04825
2747.68798 0.04843
2746.40221 0.04848
2745.11645 0.04834
2743.83068 0.04804
2742.54491 0.04774
2741.25914 0.04757
2739.97337 0.04755
2738.68760 0.04756
2737.40183 0.04748
2736.11606 0.04729
2734.83029 0.04706
2733.54453 0.04692
2732.25876 0.04691
2730.97299 0.04694
2729.68722 0.04687
2728.40145 0.04666
2727.11568 0.04640
2725.82991 0.04622
2724.54414 0.04614
2723.25838 0.04613
2721.97261 0.04612
2720.68684 0.04612
2719.40107 0.04616
2718.11530 0.04624
2716.82953 0.04629
2715.54376 0.04626
2714.25799 0.04611
2712.97222 0.04586
2711.68646 0.04560
2710.40069 0.04537
2709.11492 0.04523
2707.82915 0.04521
2706.54338 0.04528
2705.25761 0.04531
2703.97184 0.04523
2702.68607 0.04509
2701.40031 0.04505
2700.11454 0.04511
2698.82877 0.04509
2697.54300 0.04484
2696.25723 0.04443
2694.97146 0.04409
2693.68569 0.04395
2692.39992 0.04402
2691.11415 0.04416
2689.82839 0.04431
2688.54262 0.04444
2687.25685 0.04451
2685.97108 0.04444
2684.68531 0.04418
2683.39954 0.04382
2682.11377 0.04354
2680.82800 0.04342
2679.54224 0.04343
2678.25647 0.04354
2676.97070 0.04376
2675.68493 0.04408
2674.39916 0.04435
2673.11339 0.04443
2671.82762 0.04431
2670.54185 0.04417
2669.25608 0.04416
2667.97032 0.04428
2666.68455 0.04440
2665.39878 0.04439
2664.11301 0.04421
2662.82724 0.04397
2661.54147 0.04377
2660.25570 0.04362
2658.96993 0.04342
2657.68417 0.04311
2656.39840 0.04282
2655.11263 0.04269
2653.82686 0.04268
2652.54109 0.04270
2651.25532 0.04277
2649.96955 0.04297
2648.68378 0.04325
2647.39801 0.04335
2646.11225 0.04319
2644.82648 0.04294
2643.54071 0.04281
2642.25494 0.04282
2640.96917 0.04284
2639.68340 0.04276
2638.39763 0.04255
2637.11186 0.04220
2635.82609 0.04171
2634.54033 0.04115
2633.25456 0.04068
2631.96879 0.04044
2630.68302 0.04045
2629.39725 0.04061
2628.11148 0.04078
2626.82571 0.04088
2625.53994 0.04092
2624.25418 0.04091
2622.96841 0.04082
2621.68264 0.04066
2620.39687 0.04043
2619.11110 0.04009
2617.82533 0.03955
2616.53956 0.03893
2615.25379 0.03851
2613.96802 0.03843
2612.68226 0.03856
2611.39649 0.03868
2610.11072 0.03875
2608.82495 0.03887
2607.53918 0.03902
2606.25341 0.03907
2604.96764 0.03896
2603.68187 0.03873
2602.39611 0.03844
2601.11034 0.03816
2599.82457 0.03799
2598.53880 0.03799
2597.25303 0.03804
2595.96726 0.03797
2594.68149 0.03773
2593.39572 0.03748
2592.10995 0.03732
2590.82419 0.03723
2589.53842 0.03713
2588.25265 0.03697
2586.96688 0.03675
2585.68111 0.03645
2584.39534 0.03611
2583.10957 0.03589
2581.82380 0.03591
2580.53804 0.03607
2579.25227 0.03614
2577.96650 0.03606
2576.68073 0.03595
2575.39496 0.03593
2574.10919 0.03589
2572.82342 0.03565
2571.53765 0.03527
2570.25188 0.03492
2568.96612 0.03468
2567.68035 0.03456
2566.39458 0.03463
2565.10881 0.03490
2563.82304 0.03523
2562.53727 0.03548
2561.25150 0.03562
2559.96573 0.03567
2558.67997 0.03554
2557.39420 0.03520
2556.10843 0.03486
2554.82266 0.03479
2553.53689 0.03498
2552.25112 0.03508
2550.96535 0.03474
2549.67958 0.03404
2548.39381 0.03350
2547.10805 0.03358
2545.82228 0.03426
2544.53651 0.03506
2543.25074 0.03549
2541.96497 0.03541
2540.67920 0.03502
2539.39343 0.03461
2538.10766 0.03429
2536.82190 0.03409
2535.53613 0.03397
2534.25036 0.03386
2532.96459 0.03369
2531.67882 0.03342
2530.39305 0.03318
2529.10728 0.03312
2527.82151 0.03324
2526.53574 0.03343
2525.24998 0.03361
2523.96421 0.03381
2522.67844 0.03398
2521.39267 0.03396
2520.10690 0.03370
2518.82113 0.03333
2517.53536 0.03303
2516.24959 0.03292
2514.96383 0.03302
2513.67806 0.03334
2512.39229 0.03381
2511.10652 0.03423
2509.82075 0.03434
2508.53498 0.03409
2507.24921 0.03370
2505.96344 0.03347
2504.67767 0.03352
2503.39191 0.03361
2502.10614 0.03343
2500.82037 0.03303
2499.53460 0.03280
2498.24883 0.03300
2496.96306 0.03346
2495.67729 0.03380
2494.39152 0.03388
2493.10576 0.03383
2491.81999 0.03380
2490.53422 0.03386
2489.24845 0.03395
2487.96268 0.03400
2486.67691 0.03398
2485.39114 0.03396
2484.10537 0.03399
2482.81960 0.03407
2481.53384 0.03409
2480.24807 0.03392
2478.96230 0.03361
2477.67653 0.03331
2476.39076 0.03321
2475.10499 0.03320
2473.81922 0.03302
2472.53345 0.03256
2471.24769 0.03205
2469.96192 0.03179
2468.67615 0.03185
2467.39038 0.03204
2466.10461 0.03212
2464.81884 0.03199
2463.53307 0.03180
2462.24730 0.03177
2460.96153 0.03199
2459.67577 0.03232
2458.39000 0.03253
2457.10423 0.03249
2455.81846 0.03236
2454.53269 0.03230
2453.24692 0.03229
2451.96115 0.03216
2450.67538 0.03196
2449.38962 0.03195
2448.10385 0.03230
2446.81808 0.03276
2445.53231 0.03286
2444.24654 0.03237
2442.96077 0.03165
2441.67500 0.03130
2440.38923 0.03160
2439.10346 0.03221
2437.81770 0.03257
2436.53193 0.03249
2435.24616 0.03227
2433.96039 0.03227
2432.67462 0.03247
2431.38885 0.03258
2430.10308 0.03238
2428.81731 0.03203
2427.53155 0.03177
2426.24578 0.03169
2424.96001 0.03164
2423.67424 0.03157
2422.38847 0.03157
2421.10270 0.03172
2419.81693 0.03192
2418.53116 0.03200
2417.24539 0.03179
2415.95963 0.03127
2414.67386 0.03064
2413.38809 0.03022
2412.10232 0.03017
2410.81655 0.03033
2409.53078 0.03041
2408.24501 0.03036
2406.95924 0.03029
2405.67347 0.03030
2404.38771 0.03032
2403.10194 0.03028
2401.81617 0.03023
2400.53040 0.03022
2399.24463 0.03025
2397.95886 0.03032
2396.67309 0.03042
2395.38732 0.03046
2394.10156 0.03037
2392.81579 0.03020
2391.53002 0.03010
2390.24425 0.03016
2388.95848 0.03033
2387.67271 0.03045
2386.38694 0.03047
2385.10117 0.03047
2383.81540 0.03056
2382.52964 0.03079
2381.24387 0.03103
2379.95810 0.03125
2378.67233 0.03119
2377.38656 0.03121
2376.10079 0.03170
2374.81502 0.03238
2373.52925 0.03195
2372.24349 0.03087
2370.95772 0.03011
2369.67195 0.02978
2368.38618 0.02981
2367.10041 0.03005
2365.81464 0.03045
2364.52887 0.03071
2363.24310 0.03062
2361.95733 0.03018
2360.67157 0.02953
2359.38580 0.02906
2358.10003 0.02901
2356.81426 0.02936
2355.52849 0.03021
2354.24272 0.03160
2352.95695 0.03292
2351.67118 0.03274
2350.38542 0.03190
2349.09965 0.03170
2347.81388 0.03178
2346.52811 0.03139
2345.24234 0.03116
2343.95657 0.03194
2342.67080 0.03367
2341.38503 0.03310
2340.09926 0.03119
2338.81350 0.03107
2337.52773 0.03225
2336.24196 0.03151
2334.95619 0.03038
2333.67042 0.03113
2332.38465 0.03291
2331.09888 0.03155
2329.81311 0.03115
2328.52735 0.03233
2327.24158 0.03224
2325.95581 0.03206
2324.67004 0.03256
2323.38427 0.03321
2322.09850 0.03256
2320.81273 0.03213
2319.52696 0.03172
2318.24119 0.03130
2316.95543 0.03105
2315.66966 0.03076
2314.38389 0.03073
2313.09812 0.03071
2311.81235 0.03031
2310.52658 0.02999
2309.24081 0.02984
2307.95504 0.02974
2306.66928 0.02987
2305.38351 0.02990
2304.09774 0.02971
2302.81197 0.02926
2301.52620 0.02865
2300.24043 0.02822
2298.95466 0.02808
2297.66889 0.02809
2296.38312 0.02804
2295.09736 0.02794
2293.81159 0.02795
2292.52582 0.02813
2291.24005 0.02837
2289.95428 0.02833
2288.66851 0.02778
2287.38274 0.02683
2286.09697 0.02592
2284.81121 0.02548
2283.52544 0.02567
2282.23967 0.02628
2280.95390 0.02699
2279.66813 0.02756
2278.38236 0.02787
2277.09659 0.02785
2275.81082 0.02743
2274.52505 0.02673
2273.23929 0.02593
2271.95352 0.02520
2270.66775 0.02458
2269.38198 0.02406
2268.09621 0.02357
2266.81044 0.02304
2265.52467 0.02251
2264.23890 0.02224
2262.95314 0.02242
2261.66737 0.02298
2260.38160 0.02373
2259.09583 0.02442
2257.81006 0.02486
2256.52429 0.02491
2255.23852 0.02455
2253.95275 0.02390
2252.66698 0.02322
2251.38122 0.02269
2250.09545 0.02228
2248.80968 0.02177
2247.52391 0.02104
2246.23814 0.02036
2244.95237 0.02021
2243.66660 0.02090
2242.38083 0.02220
2241.09507 0.02352
2239.80930 0.02435
2238.52353 0.02453
2237.23776 0.02417
2235.95199 0.02350
2234.66622 0.02282
2233.38045 0.02229
2232.09468 0.02177
2230.80891 0.02096
2229.52315 0.01993
2228.23738 0.01908
2226.95161 0.01878
2225.66584 0.01906
2224.38007 0.01969
2223.09430 0.02032
2221.80853 0.02059
2220.52276 0.02033
2219.23700 0.01967
2217.95123 0.01893
2216.66546 0.01839
2215.37969 0.01810
2214.09392 0.01792
2212.80815 0.01759
2211.52238 0.01698
2210.23661 0.01642
2208.95084 0.01652
2207.66508 0.01764
2206.37931 0.01936
2205.09354 0.02061
2203.80777 0.02054
2202.52200 0.01936
2201.23623 0.01810
2199.95046 0.01758
2198.66469 0.01775
2197.37893 0.01804
2196.09316 0.01811
2194.80739 0.01780
2193.52162 0.01694
2192.23585 0.01539
2190.95008 0.01366
2189.66431 0.01273
2188.37854 0.01326
2187.09277 0.01493
2185.80701 0.01659
2184.52124 0.01719
2183.23547 0.01647
2181.94970 0.01509
2180.66393 0.01420
2179.37816 0.01460
2178.09239 0.01605
2176.80662 0.01736
2175.52085 0.01741
2174.23509 0.01623
2172.94932 0.01483
2171.66355 0.01420
2170.37778 0.01465
2169.09201 0.01586
2167.80624 0.01707
2166.52047 0.01746
2165.23470 0.01693
2163.94894 0.01638
2162.66317 0.01667
2161.37740 0.01730
2160.09163 0.01695
2158.80586 0.01516
2157.52009 0.01301
2156.23432 0.01147
2154.94855 0.01040
2153.66278 0.00925
2152.37702 0.00802
2151.09125 0.00727
2149.80548 0.00744
2148.51971 0.00844
2147.23394 0.00975
2145.94817 0.01088
2144.66240 0.01179
2143.37663 0.01276
2142.09087 0.01390
2140.80510 0.01496
2139.51933 0.01551
2138.23356 0.01539
2136.94779 0.01476
2135.66202 0.01396
2134.37625 0.01336
2133.09048 0.01332
2131.80471 0.01398
2130.51895 0.01529
2129.23318 0.01697
2127.94741 0.01858
2126.66164 0.01955
2125.37587 0.01961
2124.09010 0.01904
2122.80433 0.01847
2121.51856 0.01823
2120.23280 0.01822
2118.94703 0.01824
2117.66126 0.01835
2116.37549 0.01876
2115.08972 0.01942
2113.80395 0.02001
2112.51818 0.02025
2111.23241 0.02008
2109.94664 0.01959
2108.66088 0.01897
2107.37511 0.01834
2106.08934 0.01777
2104.80357 0.01717
2103.51780 0.01650
2102.23203 0.01588
2100.94626 0.01562
2099.66049 0.01630
2098.37473 0.01710
2097.08896 0.01750
2095.80319 0.01721
2094.51742 0.01632
2093.23165 0.01543
2091.94588 0.01520
2090.66011 0.01583
2089.37434 0.01689
2088.08857 0.01776
2086.80281 0.01818
2085.51704 0.01831
2084.23127 0.01843
2082.94550 0.01857
2081.65973 0.01843
2080.37396 0.01776
2079.08819 0.01669
2077.80242 0.01564
2076.51666 0.01504
2075.23089 0.01492
2073.94512 0.01502
2072.65935 0.01503
2071.37358 0.01482
2070.08781 0.01446
2068.80204 0.01411
2067.51627 0.01387
2066.23050 0.01375
2064.94474 0.01370
2063.65897 0.01370
2062.37320 0.01374
2061.08743 0.01376
2059.80166 0.01367
2058.51589 0.01339
2057.23012 0.01294
2055.94435 0.01247
2054.65859 0.01219
2053.37282 0.01219
2052.08705 0.01234
2050.80128 0.01238
2049.51551 0.01215
2048.22974 0.01167
2046.94397 0.01097
2045.65820 0.01014
2044.37243 0.00947
2043.08667 0.00924
2041.80090 0.00940
2040.51513 0.00958
2039.22936 0.00965
2037.94359 0.00979
2036.65782 0.00998
2035.37205 0.00981
2034.08628 0.00909
2032.80052 0.00832
2031.51475 0.00826
2030.22898 0.00911
2028.94321 0.01030
2027.65744 0.01101
2026.37167 0.01090
2025.08590 0.01018
2023.80013 0.00926
2022.51436 0.00845
2021.22860 0.00788
2019.94283 0.00763
2018.65706 0.00765
2017.37129 0.00777
2016.08552 0.00795
2014.79975 0.00829
2013.51398 0.00884
2012.22821 0.00950
2010.94245 0.01014
2009.65668 0.01067
2008.37091 0.01096
2007.08514 0.01086
2005.79937 0.01040
2004.51360 0.00983
2003.22783 0.00942
2001.94206 0.00934
2000.65629 0.00962
1999.37053 0.01017
1998.08476 0.01081
1996.79899 0.01138
1995.51322 0.01171
1994.22745 0.01170
1992.94168 0.01151
1991.65591 0.01154
1990.37014 0.01209
1989.08438 0.01293
1987.79861 0.01353
1986.51284 0.01377
1985.22707 0.01403
1983.94130 0.01453
1982.65553 0.01491
1981.36976 0.01459
1980.08399 0.01353
1978.79822 0.01230
1977.51246 0.01137
1976.22669 0.01077
1974.94092 0.01039
1973.65515 0.01031
1972.36938 0.01068
1971.08361 0.01134
1969.79784 0.01198
1968.51207 0.01249
1967.22631 0.01301
1965.94054 0.01365
1964.65477 0.01426
1963.36900 0.01444
1962.08323 0.01405
1960.79746 0.01341
1959.51169 0.01315
1958.22592 0.01349
1956.94015 0.01408
1955.65439 0.01452
1954.36862 0.01481
1953.08285 0.01519
1951.79708 0.01562
1950.51131 0.01586
1949.22554 0.01585
1947.93977 0.01581
1946.65400 0.01598
1945.36823 0.01635
1944.08247 0.01676
1942.79670 0.01704
1941.51093 0.01709
1940.22516 0.01694
1938.93939 0.01667
1937.65362 0.01637
1936.36785 0.01603
1935.08208 0.01567
1933.79632 0.01544
1932.51055 0.01553
1931.22478 0.01594
1929.93901 0.01645
1928.65324 0.01677
1927.36747 0.01681
1926.08170 0.01671
1924.79593 0.01661
1923.51016 0.01652
1922.22440 0.01629
1920.93863 0.01591
1919.65286 0.01551
1918.36709 0.01535
1917.08132 0.01558
1915.79555 0.01612
1914.50978 0.01669
1913.22401 0.01696
1911.93825 0.01685
1910.65248 0.01651
1909.36671 0.01622
1908.08094 0.01609
1906.79517 0.01610
1905.50940 0.01621
1904.22363 0.01644
1902.93786 0.01677
1901.65209 0.01698
1900.36633 0.01686
1899.08056 0.01647
1897.79479 0.01606
1896.50902 0.01586
1895.22325 0.01581
1893.93748 0.01582
1892.65171 0.01591
1891.36594 0.01614
1890.08018 0.01641
1888.79441 0.01657
1887.50864 0.01661
1886.22287 0.01673
1884.93710 0.01702
1883.65133 0.01738
1882.36556 0.01758
1881.07979 0.01753
1879.79402 0.01733
1878.50826 0.01716
1877.22249 0.01718
1875.93672 0.01734
1874.65095 0.01751
1873.36518 0.01756
1872.07941 0.01746
1870.79364 0.01726
1869.50787 0.01705
1868.22211 0.01693
1866.93634 0.01690
1865.65057 0.01685
1864.36480 0.01672
1863.07903 0.01656
1861.79326 0.01650
1860.50749 0.01660
1859.22172 0.01677
1857.93595 0.01690
1856.65019 0.01698
1855.36442 0.01701
1854.07865 0.01701
1852.79288 0.01697
1851.50711 0.01695
1850.22134 0.01706
1848.93557 0.01733
1847.64980 0.01765
1846.36404 0.01781
1845.07827 0.01769
1843.79250 0.01736
1842.50673 0.01698
1841.22096 0.01669
1839.93519 0.01653
1838.64942 0.01645
1837.36365 0.01641
1836.07788 0.01640
1834.79212 0.01648
1833.50635 0.01672
1832.22058 0.01708
1830.93481 0.01739
1829.64904 0.01752
1828.36327 0.01744
1827.07750 0.01728
1825.79173 0.01722
1824.50597 0.01732
1823.22020 0.01753
1821.93443 0.01772
1820.64866 0.01783
1819.36289 0.01784
1818.07712 0.01772
1816.79135 0.01746
1815.50558 0.01711
1814.21981 0.01683
1812.93405 0.01675
1811.64828 0.01687
1810.36251 0.01704
1809.07674 0.01716
1807.79097 0.01721
1806.50520 0.01725
1805.21943 0.01730
1803.93366 0.01734
1802.64790 0.01735
1801.36213 0.01734
1800.07636 0.01737
1798.79059 0.01742
1797.50482 0.01744
1796.21905 0.01738
1794.93328 0.01732
1793.64751 0.01734
1792.36174 0.01748
1791.07598 0.01764
1789.79021 0.01775
1788.50444 0.01782
1787.21867 0.01789
1785.93290 0.01795
1784.64713 0.01796
1783.36136 0.01793
1782.07559 0.01790
1780.78983 0.01785
1779.50406 0.01778
1778.21829 0.01767
1776.93252 0.01760
1775.64675 0.01761
1774.36098 0.01771
1773.07521 0.01784
1771.78944 0.01793
1770.50367 0.01795
1769.21791 0.01791
1767.93214 0.01783
1766.64637 0.01777
1765.36060 0.01774
1764.07483 0.01777
1762.78906 0.01780
1761.50329 0.01781
1760.21752 0.01779
1758.93176 0.01775
1757.64599 0.01775
1756.36022 0.01783
1755.07445 0.01798
1753.78868 0.01813
1752.50291 0.01819
1751.21714 0.01815
1749.93137 0.01804
1748.64560 0.01796
1747.35984 0.01793
1746.07407 0.01794
1744.78830 0.01797
1743.50253 0.01801
1742.21676 0.01807
1740.93099 0.01812
1739.64522 0.01812
1738.35945 0.01810
1737.07369 0.01810
1735.78792 0.01815
1734.50215 0.01821
1733.21638 0.01824
1731.93061 0.01824
1730.64484 0.01828
1729.35907 0.01840
1728.07330 0.01855
1726.78753 0.01871
1725.50177 0.01884
1724.21600 0.01896
1722.93023 0.01910
1721.64446 0.01926
1720.35869 0.01948
1719.07292 0.01978
1717.78715 0.02017
1716.50138 0.02061
1715.21561 0.02102
1713.92985 0.02134
1712.64408 0.02162
1711.35831 0.02196
1710.07254 0.02245
1708.78677 0.02310
1707.50100 0.02383
1706.21523 0.02457
1704.92946 0.02531
1703.64370 0.02612
1702.35793 0.02705
1701.07216 0.02803
1699.78639 0.02899
1698.50062 0.02988
1697.21485 0.03073
1695.92908 0.03160
1694.64331 0.03252
1693.35754 0.03347
1692.07178 0.03448
1690.78601 0.03555
1689.50024 0.03666
1688.21447 0.03781
1686.92870 0.03900
1685.64293 0.04017
1684.35716 0.04126
1683.07139 0.04225
1681.78563 0.04317
1680.49986 0.04410
1679.21409 0.04509
1677.92832 0.04615
1676.64255 0.04724
1675.35678 0.04829
1674.07101 0.04929
1672.78524 0.05022
1671.49947 0.05108
1670.21371 0.05191
1668.92794 0.05273
1667.64217 0.05361
1666.35640 0.05458
1665.07063 0.05562
1663.78486 0.05665
1662.49909 0.05757
1661.21332 0.05839
1659.92756 0.05915
1658.64179 0.05989
1657.35602 0.06064
1656.07025 0.06142
1654.78448 0.06220
1653.49871 0.06288
1652.21294 0.06338
1650.92717 0.06370
1649.64140 0.06396
1648.35564 0.06419
1647.06987 0.06436
1645.78410 0.06441
1644.49833 0.06440
1643.21256 0.06443
1641.92679 0.06452
1640.64102 0.06457
1639.35525 0.06452
1638.06949 0.06431
1636.78372 0.06395
1635.49795 0.06346
1634.21218 0.06285
1632.92641 0.06214
1631.64064 0.06141
1630.35487 0.06072
1629.06910 0.06010
1627.78333 0.05950
1626.49757 0.05886
1625.21180 0.05814
1623.92603 0.05734
1622.64026 0.05654
1621.35449 0.05582
1620.06872 0.05521
1618.78295 0.05470
1617.49718 0.05418
1616.21142 0.05358
1614.92565 0.05295
1613.63988 0.05237
1612.35411 0.05190
1611.06834 0.05150
1609.78257 0.05111
1608.49680 0.05073
1607.21103 0.05041
1605.92526 0.05019
1604.63950 0.05007
1603.35373 0.04999
1602.06796 0.04995
1600.78219 0.04997
1599.49642 0.05006
1598.21065 0.05022
1596.92488 0.05039
1595.63911 0.05056
1594.35335 0.05073
1593.06758 0.05094
1591.78181 0.05121
1590.49604 0.05151
1589.21027 0.05181
1587.92450 0.05209
1586.63873 0.05238
1585.35296 0.05274
1584.06719 0.05320
1582.78143 0.05376
1581.49566 0.05440
1580.20989 0.05511
1578.92412 0.05585
1577.63835 0.05657
1576.35258 0.05718
1575.06681 0.05764
1573.78104 0.05804
1572.49528 0.05852
1571.20951 0.05913
1569.92374 0.05982
1568.63797 0.06048
1567.35220 0.06104
1566.06643 0.06150
1564.78066 0.06190
1563.49489 0.06230
1562.20912 0.06275
1560.92336 0.06324
1559.63759 0.06373
1558.35182 0.06413
1557.06605 0.06444
1555.78028 0.06467
1554.49451 0.06487
1553.20874 0.06505
1551.92297 0.06519
1550.63721 0.06526
1549.35144 0.06525
1548.06567 0.06516
1546.77990 0.06501
1545.49413 0.06485
1544.20836 0.06471
1542.92259 0.06463
1541.63682 0.06456
1540.35105 0.06438
1539.06529 0.06401
1537.77952 0.06351
1536.49375 0.06301
1535.20798 0.06262
1533.92221 0.06233
1532.63644 0.06209
1531.35067 0.06191
1530.06490 0.06182
1528.77914 0.06186
1527.49337 0.06201
1526.20760 0.06222
1524.92183 0.06245
1523.63606 0.06266
1522.35029 0.06283
1521.06452 0.06302
1519.77875 0.06330
1518.49298 0.06371
1517.20722 0.06422
1515.92145 0.06476
1514.63568 0.06531
1513.34991 0.06587
1512.06414 0.06646
1510.77837 0.06709
1509.49260 0.06776
1508.20683 0.06841
1506.92107 0.06901
1505.63530 0.06953
1504.34953 0.07001
1503.06376 0.07053
1501.77799 0.07110
1500.49222 0.07170
1499.20645 0.07227
1497.92068 0.07277
1496.63491 0.07320
1495.34915 0.07356
1494.06338 0.07390
1492.77761 0.07425
1491.49184 0.07463
1490.20607 0.07501
1488.92030 0.07540
1487.63453 0.07584
1486.34876 0.07638
1485.06299 0.07704
1483.77723 0.07780
1482.49146 0.07862
1481.20569 0.07951
1479.91992 0.08049
1478.63415 0.08156
1477.34838 0.08268
1476.06261 0.08375
1474.77684 0.08471
1473.49108 0.08555
1472.20531 0.08628
1470.91954 0.08694
1469.63377 0.08758
1468.34800 0.08823
1467.06223 0.08889
1465.77646 0.08957
1464.49069 0.09026
1463.20492 0.09103
1461.91916 0.09188
1460.63339 0.09284
1459.34762 0.09386
1458.06185 0.09488
1456.77608 0.09579
1455.49031 0.09657
1454.20454 0.09724
1452.91877 0.09782
1451.63301 0.09834
1450.34724 0.09878
1449.06147 0.09909
1447.77570 0.09922
1446.48993 0.09919
1445.20416 0.09906
1443.91839 0.09890
1442.63262 0.09875
1441.34685 0.09863
1440.06109 0.09858
1438.77532 0.09865
1437.48955 0.09884
1436.20378 0.09913
1434.91801 0.09947
1433.63224 0.09988
1432.34647 0.10041
1431.06070 0.10111
1429.77494 0.10197
1428.48917 0.10293
1427.20340 0.10395
1425.91763 0.10502
1424.63186 0.10614
1423.34609 0.10729
1422.06032 0.10843
1420.77455 0.10951
1419.48878 0.11050
1418.20302 0.11138
1416.91725 0.11212
1415.63148 0.11273
1414.34571 0.11321
1413.05994 0.11356
1411.77417 0.11377
1410.48840 0.11379
1409.20263 0.11360
1407.91687 0.11319
1406.63110 0.11258
1405.34533 0.11178
1404.05956 0.11080
1402.77379 0.10964
1401.48802 0.10830
1400.20225 0.10681
1398.91648 0.10519
1397.63071 0.10347
1396.34495 0.10166
1395.05918 0.09978
1393.77341 0.09785
1392.48764 0.09588
1391.20187 0.09391
1389.91610 0.09196
1388.63033 0.09000
1387.34456 0.08801
1386.05880 0.08602
1384.77303 0.08403
1383.48726 0.08210
1382.20149 0.08023
1380.91572 0.07842
1379.62995 0.07662
1378.34418 0.07477
1377.05841 0.07287
1375.77264 0.07093
1374.48688 0.06896
1373.20111 0.06699
1371.91534 0.06505
1370.62957 0.06315
1369.34380 0.06134
1368.05803 0.05965
1366.77226 0.05808
1365.48649 0.05660
1364.20073 0.05520
1362.91496 0.05389
1361.62919 0.05268
1360.34342 0.05158
1359.05765 0.05054
1357.77188 0.04954
1356.48611 0.04858
1355.20034 0.04773
1353.91457 0.04701
1352.62881 0.04640
1351.34304 0.04585
1350.05727 0.04528
1348.77150 0.04468
1347.48573 0.04406
1346.19996 0.04347
1344.91419 0.04294
1343.62842 0.04249
1342.34266 0.04212
1341.05689 0.04180
1339.77112 0.04149
1338.48535 0.04114
1337.19958 0.04074
1335.91381 0.04030
1334.62804 0.03986
1333.34227 0.03942
1332.05650 0.03897
1330.77074 0.03850
1329.48497 0.03802
1328.19920 0.03756
1326.91343 0.03718
1325.62766 0.03688
1324.34189 0.03659
1323.05612 0.03627
1321.77035 0.03592
1320.48459 0.03557
1319.19882 0.03525
1317.91305 0.03495
1316.62728 0.03465
1315.34151 0.03435
1314.05574 0.03406
1312.76997 0.03377
1311.48420 0.03346
1310.19843 0.03312
1308.91267 0.03280
1307.62690 0.03254
1306.34113 0.03232
1305.05536 0.03210
1303.76959 0.03186
1302.48382 0.03162
1301.19805 0.03142
1299.91228 0.03126
1298.62652 0.03109
1297.34075 0.03088
1296.05498 0.03063
1294.76921 0.03037
1293.48344 0.03013
1292.19767 0.02993
1290.91190 0.02975
1289.62613 0.02958
1288.34036 0.02940
1287.05460 0.02926
1285.76883 0.02917
1284.48306 0.02914
1283.19729 0.02912
1281.91152 0.02904
1280.62575 0.02890
1279.33998 0.02876
1278.05421 0.02865
1276.76845 0.02856
1275.48268 0.02846
1274.19691 0.02835
1272.91114 0.02825
1271.62537 0.02817
1270.33960 0.02808
1269.05383 0.02793
1267.76806 0.02774
1266.48229 0.02758
1265.19653 0.02750
1263.91076 0.02748
1262.62499 0.02747
1261.33922 0.02741
1260.05345 0.02734
1258.76768 0.02728
1257.48191 0.02726
1256.19614 0.02726
1254.91037 0.02726
1253.62461 0.02724
1252.33884 0.02719
1251.05307 0.02713
1249.76730 0.02710
1248.48153 0.02710
1247.19576 0.02711
1245.90999 0.02712
1244.62422 0.02709
1243.33846 0.02702
1242.05269 0.02689
1240.76692 0.02674
1239.48115 0.02658
1238.19538 0.02641
1236.90961 0.02623
1235.62384 0.02604
1234.33807 0.02585
1233.05230 0.02566
1231.76654 0.02545
1230.48077 0.02521
1229.19500 0.02496
1227.90923 0.02474
1226.62346 0.02458
1225.33769 0.02447
1224.05192 0.02437
1222.76615 0.02424
1221.48039 0.02405
1220.19462 0.02384
1218.90885 0.02362
1217.62308 0.02338
1216.33731 0.02312
1215.05154 0.02284
1213.76577 0.02257
1212.48000 0.02236
1211.19423 0.02222
1209.90847 0.02212
1208.62270 0.02202
1207.33693 0.02192
1206.05116 0.02183
1204.76539 0.02178
1203.47962 0.02173
1202.19385 0.02167
1200.90808 0.02156
1199.62232 0.02141
1198.33655 0.02134
1197.05078 0.02129
1195.76501 0.02121
1194.47924 0.02108
1193.19347 0.02091
1191.90770 0.02069
1190.62193 0.02043
1189.33616 0.02014
1188.05040 0.01988
1186.76463 0.01970
1185.47886 0.01961
1184.19309 0.01956
1182.90732 0.01954
1181.62155 0.01951
1180.33578 0.01946
1179.05001 0.01935
1177.76425 0.01920
1176.47848 0.01905
1175.19271 0.01895
1173.90694 0.01891
1172.62117 0.01893
1171.33540 0.01902
1170.04963 0.01916
1168.76386 0.01932
1167.47809 0.01945
1166.19233 0.01952
1164.90656 0.01954
1163.62079 0.01956
1162.33502 0.01962
1161.04925 0.01973
1159.76348 0.01987
1158.47771 0.02003
1157.19194 0.02021
1155.90618 0.02039
1154.62041 0.02052
1153.33464 0.02058
1152.04887 0.02065
1150.76310 0.02084
1149.47733 0.02117
1148.19156 0.02158
1146.90579 0.02199
1145.62002 0.02237
1144.33426 0.02279
1143.04849 0.02328
1141.76272 0.02389
1140.47695 0.02458
1139.19118 0.02530
1137.90541 0.02606
1136.61964 0.02692
1135.33387 0.02796
1134.04811 0.02926
1132.76234 0.03088
1131.47657 0.03278
1130.19080 0.03489
1128.90503 0.03715
1127.61926 0.03952
1126.33349 0.04202
1125.04772 0.04467
1123.76195 0.04749
1122.47619 0.05049
1121.19042 0.05361
1119.90465 0.05677
1118.61888 0.05993
1117.33311 0.06306
1116.04734 0.06618
1114.76157 0.06931
1113.47580 0.07239
1112.19004 0.07539
1110.90427 0.07829
1109.61850 0.08115
1108.33273 0.08399
1107.04696 0.08681
1105.76119 0.08958
1104.47542 0.09225
1103.18965 0.09485
1101.90388 0.09744
1100.61812 0.09999
1099.33235 0.10242
1098.04658 0.10468
1096.76081 0.10683
1095.47504 0.10890
1094.18927 0.11090
1092.90350 0.11280
1091.61773 0.11459
1090.33197 0.11630
1089.04620 0.11797
1087.76043 0.11964
1086.47466 0.12133
1085.18889 0.12301
1083.90312 0.12465
1082.61735 0.12628
1081.33158 0.12802
1080.04581 0.12999
1078.76005 0.13222
1077.47428 0.13467
1076.18851 0.13720
1074.90274 0.13976
1073.61697 0.14236
1072.33120 0.14506
1071.04543 0.14792
1069.75966 0.15092
1068.47390 0.15404
1067.18813 0.15725
1065.90236 0.16055
1064.61659 0.16391
1063.33082 0.16729
1062.04505 0.17066
1060.75928 0.17402
1059.47351 0.17737
1058.18774 0.18070
1056.90198 0.18399
1055.61621 0.18721
1054.33044 0.19034
1053.04467 0.19341
1051.75890 0.19648
1050.47313 0.19966
1049.18736 0.20294
1047.90159 0.20630
1046.61583 0.20968
1045.33006 0.21308
1044.04429 0.21655
1042.75852 0.22008
1041.47275 0.22369
1040.18698 0.22733
1038.90121 0.23097
1037.61544 0.23456
1036.32967 0.23808
1035.04391 0.24152
1033.75814 0.24485
1032.47237 0.24803
1031.18660 0.25096
1029.90083 0.25359
1028.61506 0.25594
1027.32929 0.25808
1026.04352 0.25997
1024.75775 0.26152
1023.47199 0.26262
1022.18622 0.26321
1020.90045 0.26329
1019.61468 0.26288
1018.32891 0.26199
1017.04314 0.26065
1015.75737 0.25889
1014.47160 0.25670
1013.18584 0.25405
1011.90007 0.25089
1010.61430 0.24720
1009.32853 0.24308
1008.04276 0.23862
1006.75699 0.23387
1005.47122 0.22882
1004.18545 0.22344
1002.89968 0.21777
1001.61392 0.21185
1000.32815 0.20570
999.04238 0.19938
997.75661 0.19295
996.47084 0.18652
995.18507 0.18017
993.89930 0.17393
992.61353 0.16778
991.32777 0.16172
990.04200 0.15579
988.75623 0.14998
987.47046 0.14435
986.18469 0.13895
984.89892 0.13383
983.61315 0.12900
982.32738 0.12447
981.04161 0.12025
979.75585 0.11634
978.47008 0.11271
977.18431 0.10935
975.89854 0.10630
974.61277 0.10361
973.32700 0.10133
972.04123 0.09952
970.75546 0.09824
969.46970 0.09752
968.18393 0.09731
966.89816 0.09754
965.61239 0.09812
964.32662 0.09887
963.04085 0.09953
961.75508 0.09987
960.46931 0.09973
959.18354 0.09906
957.89778 0.09785
956.61201 0.09618
955.32624 0.09416
954.04047 0.09193
952.75470 0.08955
951.46893 0.08710
950.18316 0.08474
948.89739 0.08257
947.61163 0.08057
946.32586 0.07864
945.04009 0.07671
943.75432 0.07483
942.46855 0.07302
941.18278 0.07130
939.89701 0.06966
938.61124 0.06811
937.32547 0.06664
936.03971 0.06524
934.75394 0.06391
933.46817 0.06268
932.18240 0.06157
930.89663 0.06052
929.61086 0.05945
928.32509 0.05831
927.03932 0.05718
925.75356 0.05616
924.46779 0.05530
923.18202 0.05457
921.89625 0.05395
920.61048 0.05338
919.32471 0.05280
918.03894 0.05212
916.75317 0.05135
915.46740 0.05056
914.18164 0.04988
912.89587 0.04932
911.61010 0.04880
910.32433 0.04824
909.03856 0.04763
907.75279 0.04704
906.46702 0.04657
905.18125 0.04623
903.89549 0.04592
902.60972 0.04552
901.32395 0.04501
900.03818 0.04448
898.75241 0.04406
897.46664 0.04377
896.18087 0.04354
894.89510 0.04327
893.60933 0.04297
892.32357 0.04268
891.03780 0.04251
889.75203 0.04249
888.46626 0.04269
887.18049 0.04321
885.89472 0.04415
884.60895 0.04564
883.32318 0.04767
882.03742 0.05011
880.75165 0.05265
879.46588 0.05493
878.18011 0.05676
876.89434 0.05824
875.60857 0.05967
874.32280 0.06118
873.03703 0.06260
871.75126 0.06353
870.46550 0.06370
869.17973 0.06308
867.89396 0.06180
866.60819 0.06007
865.32242 0.05806
864.03665 0.05593
862.75088 0.05375
861.46511 0.05161
860.17935 0.04957
858.89358 0.04777
857.60781 0.04629
856.32204 0.04513
855.03627 0.04421
853.75050 0.04347
852.46473 0.04286
851.17896 0.04230
849.89319 0.04175
848.60743 0.04123
847.32166 0.04079
846.03589 0.04045
844.75012 0.04017
843.46435 0.03989
842.17858 0.03958
840.89281 0.03922
839.60704 0.03885
838.32128 0.03851
837.03551 0.03822
835.74974 0.03801
834.46397 0.03786
833.17820 0.03769
831.89243 0.03745
830.60666 0.03715
829.32089 0.03682
828.03512 0.03653
826.74936 0.03631
825.46359 0.03617
824.17782 0.03610
822.89205 0.03609
821.60628 0.03613
820.32051 0.03615
819.03474 0.03611
817.74897 0.03598
816.46321 0.03577
815.17744 0.03555
813.89167 0.03538
812.60590 0.03526
811.32013 0.03517
810.03436 0.03506
808.74859 0.03495
807.46282 0.03486
806.17705 0.03480
804.89129 0.03474
803.60552 0.03468
802.31975 0.03462
801.03398 0.03460
799.74821 0.03463
798.46244 0.03471
797.17667 0.03480
795.89090 0.03484
794.60513 0.03484
793.31937 0.03483
792.03360 0.03485
790.74783 0.03485
789.46206 0.03475
788.17629 0.03455
786.89052 0.03434
785.60475 0.03420
784.31898 0.03414
783.03322 0.03413
781.74745 0.03411
780.46168 0.03411
779.17591 0.03417
777.89014 0.03427
776.60437 0.03434
775.31860 0.03434
774.03283 0.03427
772.74706 0.03417
771.46130 0.03407
770.17553 0.03400
768.88976 0.03398
767.60399 0.03398
766.31822 0.03396
765.03245 0.03389
763.74668 0.03382
762.46091 0.03383
761.17515 0.03394
759.88938 0.03414
758.60361 0.03434
757.31784 0.03447
756.03207 0.03449
754.74630 0.03445
753.46053 0.03439
752.17476 0.03433
750.88899 0.03427
749.60323 0.03423
748.31746 0.03420
747.03169 0.03416
745.74592 0.03407
744.46015 0.03398
743.17438 0.03396
741.88861 0.03402
740.60284 0.03409
739.31708 0.03411
738.03131 0.03409
736.74554 0.03404
735.45977 0.03396
734.17400 0.03379
732.88823 0.03360
731.60246 0.03348
730.31669 0.03353
729.03092 0.03372
727.74516 0.03392
726.45939 0.03402
725.17362 0.03395
723.88785 0.03375
722.60208 0.03357
721.31631 0.03351
720.03054 0.03358
718.74477 0.03374
717.45901 0.03389
716.17324 0.03401
714.88747 0.03404
713.60170 0.03399
712.31593 0.03390
711.03016 0.03383
709.74439 0.03380
708.45862 0.03379
707.17285 0.03378
705.88709 0.03378
704.60132 0.03380
703.31555 0.03384
702.02978 0.03386
700.74401 0.03383
699.45824 0.03378
698.17247 0.03378
696.88670 0.03383
695.60094 0.03389
694.31517 0.03395
693.02940 0.03397
691.74363 0.03392
690.45786 0.03380
689.17209 0.03362
687.88632 0.03345
686.60055 0.03335
685.31478 0.03331
684.02902 0.03328
682.74325 0.03320
681.45748 0.03313
680.17171 0.03310
678.88594 0.03312
677.60017 0.03315
676.31440 0.03316
675.02863 0.03324
673.74287 0.03339
672.45710 0.03356
671.17133 0.03374
669.88556 0.03388
668.59979 0.03403
667.31402 0.03421
666.02825 0.03421
664.74248 0.03406
663.45671 0.03381
662.17095 0.03352
660.88518 0.03324
659.59941 0.03298
658.31364 0.03274
657.02787 0.03254
655.74210 0.03244
654.45633 0.03242
653.17056 0.03242
651.88480 0.03238
650.59903 0.03223
649.31326 0.03198
648.02749 0.03170
646.74172 0.03148
645.45595 0.03138
644.17018 0.03142
642.88441 0.03151
641.59864 0.03160
640.31288 0.03163
639.02711 0.03162
637.74134 0.03157
636.45557 0.03151
635.16980 0.03156
633.88403 0.03175
632.59826 0.03204
631.31249 0.03236
630.02673 0.03288
628.74096 0.03349
627.45519 0.03348
626.16942 0.03427
624.88365 0.03569
623.59788 0.03741
622.31211 0.03965
621.02634 0.04247
619.74057 0.04523
618.45481 0.04718
617.16904 0.04842
615.88327 0.04993
614.59750 0.05262
613.31173 0.05663
612.02596 0.06151
610.74019 0.06698
609.45442 0.07332
608.16866 0.08075
606.88289 0.08854
605.59712 0.09512
604.31135 0.09909
603.02558 0.10021
601.73981 0.09947
600.45404 0.09797
599.16827 0.09608
597.88250 0.09366
596.59674 0.09076
595.31097 0.08777
594.02520 0.08516
592.73943 0.08307
591.45366 0.08137
590.16789 0.08003
588.88212 0.07925
587.59635 0.07929
586.31059 0.08025
585.02482 0.08193
583.73905 0.08404
582.45328 0.08638
581.16751 0.08891
579.88174 0.09156
578.59597 0.09427
577.31020 0.09697
576.02443 0.09961
574.73867 0.10210
573.45290 0.10436
572.16713 0.10645
570.88136 0.10862
569.59559 0.11127
568.30982 0.11464
567.02405 0.11867
565.73828 0.12290
564.45251 0.12666
563.16675 0.12932
561.88098 0.13045
560.59521 0.12983
559.30944 0.12745
558.02367 0.12351
556.73790 0.11843
555.45213 0.11269
554.16636 0.10668
552.88060 0.10069
551.59483 0.09495
550.30906 0.08965
549.02329 0.08498
547.73752 0.08095
546.45175 0.07743
545.16598 0.07426
543.88021 0.07134
542.59444 0.06869
541.30868 0.06630
540.02291 0.06417
538.73714 0.06224
537.45137 0.06046
536.16560 0.05880
534.87983 0.05728
533.59406 0.05589
532.30829 0.05459
531.02253 0.05336
529.73676 0.05219
528.45099 0.05104
527.16522 0.04988
525.87945 0.04873
524.59368 0.04771
523.30791 0.04688
522.02214 0.04617
520.73637 0.04539
519.45061 0.04451
518.16484 0.04359
516.87907 0.04276
515.59330 0.04207
514.30753 0.04146
513.02176 0.04090
511.73599 0.04039
510.45022 0.03996
509.16446 0.03954
507.87869 0.03903
506.59292 0.03841
505.30715 0.03772
504.02138 0.03703
502.73561 0.03640
501.44984 0.03589
500.16407 0.03550
498.87830 0.03522
497.59254 0.03501
496.30677 0.03478
495.02100 0.03447
493.73523 0.03410
492.44946 0.03367
491.16369 0.03321
489.87792 0.03276
488.59215 0.03236
487.30639 0.03211
486.02062 0.03203
484.73485 0.03214
483.44908 0.03236
482.16331 0.03255
480.87754 0.03258
479.59177 0.03247
478.30600 0.03234
477.02023 0.03238
475.73447 0.03261
474.44870 0.03291
473.16293 0.03314
471.87716 0.03326
470.59139 0.03324
469.30562 0.03309
468.01985 0.03283
466.73408 0.03255
465.44832 0.03232
464.16255 0.03209
462.87678 0.03179
461.59101 0.03138
460.30524 0.03088
459.01947 0.03033
457.73370 0.02980
456.44793 0.02934
455.16216 0.02897
453.87640 0.02867
452.59063 0.02840
451.30486 0.02811
450.01909 0.02776
448.73332 0.02737
447.44755 0.02696
446.16178 0.02665
444.87601 0.02644
443.59025 0.02628
442.30448 0.02607
441.01871 0.02581
439.73294 0.02555
438.44717 0.02538
437.16140 0.02527
435.87563 0.02519
434.58986 0.02511
433.30409 0.02503
432.01833 0.02493
430.73256 0.02482
429.44679 0.02467
428.16102 0.02448
426.87525 0.02424
425.58948 0.02398
424.30371 0.02374
423.01794 0.02355
421.73218 0.02341
420.44641 0.02329
419.16064 0.02318
417.87487 0.02306
416.58910 0.02294
415.30333 0.02282
414.01756 0.02270
412.73179 0.02255
411.44602 0.02238
410.16026 0.02223
408.87449 0.02214
407.58872 0.02214
406.30295 0.02224
405.01718 0.02238
403.73141 0.02251
402.44564 0.02257
401.15987 0.02258
399.87411 0.02258
