3997.45528 0.02292
3996.16951 0.02303
3994.88374 0.02293
3993.59798 0.02264
3992.31221 0.02238
3991.02644 0.02216
3989.74067 0.02168
3988.45490 0.02071
3987.16913 0.01956
3985.88336 0.01881
3984.59759 0.01871
3983.31183 0.01892
3982.02606 0.01896
3980.74029 0.01878
3979.45452 0.01871
3978.16875 0.01893
3976.88298 0.01926
3975.59721 0.01956
3974.31144 0.01995
3973.02567 0.02047
3971.73991 0.02088
3970.45414 0.02087
3969.16837 0.02054
3967.88260 0.02043
3966.59683 0.02105
3965.31106 0.02237
3964.02529 0.02370
3962.73952 0.02415
3961.45376 0.02338
3960.16799 0.02187
3958.88222 0.02050
3957.59645 0.01995
3956.31068 0.02015
3955.02491 0.02043
3953.73914 0.02023
3952.45337 0.01979
3951.16760 0.01979
3949.88184 0.02040
3948.59607 0.02105
3947.31030 0.02124
3946.02453 0.02110
3944.73876 0.02107
3943.45299 0.02125
3942.16722 0.02153
3940.88145 0.02178
3939.59569 0.02196
3938.30992 0.02203
3937.02415 0.02204
3935.73838 0.02203
3934.45261 0.02202
3933.16684 0.02196
3931.88107 0.02186
3930.59530 0.02172
3929.30953 0.02151
3928.02377 0.02123
3926.73800 0.02109
3925.45223 0.02140
3924.16646 0.02217
3922.88069 0.02286
3921.59492 0.02285
3920.30915 0.02195
3919.02338 0.02046
3917.73762 0.01891
3916.45185 0.01784
3915.16608 0.01761
3913.88031 0.01809
3912.59454 0.01870
3911.30877 0.01889
3910.02300 0.01865
3908.73723 0.01829
3907.45146 0.01800
3906.16570 0.01765
3904.87993 0.01724
3903.59416 0.01707
3902.30839 0.01749
3901.02262 0.01855
3899.73685 0.02000
3898.45108 0.02142
3897.16531 0.02245
3895.87955 0.02290
3894.59378 0.02288
3893.30801 0.02270
3892.02224 0.02262
3890.73647 0.02262
3889.45070 0.02236
3888.16493 0.02148
3886.87916 0.02009
3885.59339 0.01875
3884.30763 0.01793
3883.02186 0.01767
3881.73609 0.01770
3880.45032 0.01783
3879.16455 0.01800
3877.87878 0.01815
3876.59301 0.01820
3875.30724 0.01819
3874.02148 0.01838
3872.73571 0.01902
3871.44994 0.01993
3870.16417 0.02047
3868.87840 0.02002
3867.59263 0.01852
3866.30686 0.01678
3865.02109 0.01578
3863.73532 0.01583
3862.44956 0.01655
3861.16379 0.01751
3859.87802 0.01854
3858.59225 0.01949
3857.30648 0.02018
3856.02071 0.02056
3854.73494 0.02080
3853.44917 0.02093
3852.16341 0.02071
3850.87764 0.02003
3849.59187 0.01928
3848.30610 0.01895
3847.02033 0.01919
3845.73456 0.01976
3844.44879 0.02038
3843.16302 0.02088
3841.87725 0.02110
3840.59149 0.02092
3839.30572 0.02042
3838.01995 0.01985
3836.73418 0.01938
3835.44841 0.01905
3834.16264 0.01884
3832.87687 0.01881
3831.59110 0.01886
3830.30534 0.01879
3829.01957 0.01849
3827.73380 0.01798
3826.44803 0.01739
3825.16226 0.01695
3823.87649 0.01698
3822.59072 0.01770
3821.30495 0.01900
3820.01918 0.02029
3818.73342 0.02092
3817.44765 0.02069
3816.16188 0.02006
3814.87611 0.01960
3813.59034 0.01954
3812.30457 0.01992
3811.01880 0.02065
3809.73303 0.02145
3808.44726 0.02178
3807.16150 0.02135
3805.87573 0.02045
3804.58996 0.01971
3803.30419 0.01969
3802.01842 0.02050
3800.73265 0.02170
3799.44688 0.02259
3798.16111 0.02273
3796.87535 0.02235
3795.58958 0.02192
3794.30381 0.02155
3793.01804 0.02106
3791.73227 0.02033
3790.44650 0.01962
3789.16073 0.01930
3787.87496 0.01955
3786.58919 0.02015
3785.30343 0.02056
3784.01766 0.02038
3782.73189 0.01953
3781.44612 0.01839
3780.16035 0.01757
3778.87458 0.01748
3777.58881 0.01805
3776.30304 0.01883
3775.01728 0.01937
3773.73151 0.01954
3772.44574 0.01952
3771.15997 0.01961
3769.87420 0.01997
3768.58843 0.02038
3767.30266 0.02042
3766.01689 0.01985
3764.73112 0.01891
3763.44536 0.01801
3762.15959 0.01744
3760.87382 0.01723
3759.58805 0.01729
3758.30228 0.01757
3757.01651 0.01803
3755.73074 0.01849
3754.44497 0.01869
3753.15921 0.01849
3751.87344 0.01805
3750.58767 0.01774
3749.30190 0.01795
3748.01613 0.01875
3746.73036 0.01949
3745.44459 0.01938
3744.15882 0.01832
3742.87305 0.01703
3741.58729 0.01637
3740.30152 0.01672
3739.01575 0.01779
3737.72998 0.01897
3736.44421 0.01993
3735.15844 0.02061
3733.87267 0.02096
3732.58690 0.02091
3731.30114 0.02046
3730.01537 0.01964
3728.72960 0.01846
3727.44383 0.01712
3726.15806 0.01622
3724.87229 0.01640
3723.58652 0.01771
3722.30075 0.01940
3721.01498 0.02047
3719.72922 0.02052
3718.44345 0.01997
3717.15768 0.01944
3715.87191 0.01915
3714.58614 0.01897
3713.30037 0.01882
3712.01460 0.01872
3710.72883 0.01859
3709.44307 0.01833
3708.15730 0.01803
3706.87153 0.01788
3705.58576 0.01781
3704.29999 0.01754
3703.01422 0.01692
3701.72845 0.01616
3700.44268 0.01561
3699.15691 0.01552
3697.87115 0.01584
3696.58538 0.01632
3695.29961 0.01673
3694.01384 0.01698
3692.72807 0.01727
3691.44230 0.01776
3690.15653 0.01820
3688.87076 0.01811
3687.58500 0.01747
3686.29923 0.01690
3685.01346 0.01692
3683.72769 0.01738
3682.44192 0.01766
3681.15615 0.01740
3679.87038 0.01689
3678.58461 0.01666
3677.29884 0.01682
3676.01308 0.01717
3674.72731 0.01772
3673.44154 0.01867
3672.15577 0.02009
3670.87000 0.02175
3669.58423 0.02322
3668.29846 0.02411
3667.01269 0.02428
3665.72693 0.02375
3664.44116 0.02264
3663.15539 0.02130
3661.86962 0.02035
3660.58385 0.02007
3659.29808 0.02016
3658.01231 0.02009
3656.72654 0.01986
3655.44077 0.01992
3654.15501 0.02046
3652.86924 0.02102
3651.58347 0.02098
3650.29770 0.02029
3649.01193 0.01950
3647.72616 0.01912
3646.44039 0.01908
3645.15462 0.01892
3643.86886 0.01857
3642.58309 0.01856
3641.29732 0.01929
3640.01155 0.02041
3638.72578 0.02111
3637.44001 0.02099
3636.15424 0.02036
3634.86847 0.01978
3633.58270 0.01960
3632.29694 0.01987
3631.01117 0.02049
3629.72540 0.02135
3628.43963 0.02230
3627.15386 0.02301
3625.86809 0.02317
3624.58232 0.02279
3623.29655 0.02221
3622.01079 0.02174
3620.72502 0.02144
3619.43925 0.02115
3618.15348 0.02068
3616.86771 0.02009
3615.58194 0.01970
3614.29617 0.01995
3613.01040 0.02083
3611.72463 0.02176
3610.43887 0.02211
3609.15310 0.02194
3607.86733 0.02190
3606.58156 0.02241
3605.29579 0.02324
3604.01002 0.02393
3602.72425 0.02421
3601.43848 0.02411
3600.15272 0.02390
3598.86695 0.02390
3597.58118 0.02421
3596.29541 0.02458
3595.00964 0.02464
3593.72387 0.02438
3592.43810 0.02407
3591.15233 0.02395
3589.86656 0.02411
3588.58080 0.02448
3587.29503 0.02489
3586.00926 0.02514
3584.72349 0.02520
3583.43772 0.02511
3582.15195 0.02487
3580.86618 0.02450
3579.58041 0.02416
3578.29464 0.02417
3577.00888 0.02477
3575.72311 0.02580
3574.43734 0.02679
3573.15157 0.02729
3571.86580 0.02712
3570.58003 0.02657
3569.29426 0.02617
3568.00849 0.02626
3566.72273 0.02684
3565.43696 0.02757
3564.15119 0.02812
3562.86542 0.02829
3561.57965 0.02810
3560.29388 0.02771
3559.00811 0.02735
3557.72234 0.02722
3556.43657 0.02739
3555.15081 0.02773
3553.86504 0.02802
3552.57927 0.02817
3551.29350 0.02831
3550.00773 0.02850
3548.72196 0.02850
3547.43619 0.02805
3546.15042 0.02732
3544.86466 0.02669
3543.57889 0.02637
3542.29312 0.02627
3541.00735 0.02636
3539.72158 0.02681
3538.43581 0.02766
3537.15004 0.02858
3535.86427 0.02900
3534.57850 0.02873
3533.29274 0.02812
3532.00697 0.02774
3530.72120 0.02772
3529.43543 0.02779
3528.14966 0.02767
3526.86389 0.02753
3525.57812 0.02772
3524.29235 0.02833
3523.00659 0.02908
3521.72082 0.02959
3520.43505 0.02976
3519.14928 0.02966
3517.86351 0.02929
3516.57774 0.02873
3515.29197 0.02822
3514.00620 0.02808
3512.72043 0.02829
3511.43467 0.02856
3510.14890 0.02868
3508.86313 0.02876
3507.57736 0.02901
3506.29159 0.02948
3505.00582 0.03010
3503.72005 0.03070
3502.43428 0.03112
3501.14852 0.03121
3499.86275 0.03101
3498.57698 0.03072
3497.29121 0.03054
3496.00544 0.03052
3494.71967 0.03062
3493.43390 0.03076
3492.14813 0.03085
3490.86236 0.03087
3489.57660 0.03089
3488.29083 0.03114
3487.00506 0.03178
3485.71929 0.03273
3484.43352 0.03366
3483.14775 0.03424
3481.86198 0.03442
3480.57621 0.03436
3479.29045 0.03421
3478.00468 0.03399
3476.71891 0.03361
3475.43314 0.03308
3474.14737 0.03255
3472.86160 0.03232
3471.57583 0.03256
3470.29006 0.03319
3469.00429 0.03398
3467.71853 0.03461
3466.43276 0.03484
3465.14699 0.03464
3463.86122 0.03417
3462.57545 0.03370
3461.28968 0.03339
3460.00391 0.03324
3458.71814 0.03321
3457.43238 0.03325
3456.14661 0.03329
3454.86084 0.03334
3453.57507 0.03346
3452.28930 0.03355
3451.00353 0.03346
3449.71776 0.03319
3448.43199 0.03303
3447.14622 0.03318
3445.86046 0.03346
3444.57469 0.03346
3443.28892 0.03307
3442.00315 0.03260
3440.71738 0.03243
3439.43161 0.03271
3438.14584 0.03323
3436.86007 0.03373
3435.57431 0.03402
3434.28854 0.03409
3433.00277 0.03404
3431.71700 0.03404
3430.43123 0.03420
3429.14546 0.03453
3427.85969 0.03474
3426.57392 0.03451
3425.28815 0.03380
3424.00239 0.03294
3422.71662 0.03234
3421.43085 0.03223
3420.14508 0.03258
3418.85931 0.03326
3417.57354 0.03402
3416.28777 0.03458
3415.00200 0.03472
3413.71624 0.03452
3412.43047 0.03433
3411.14470 0.03446
3409.85893 0.03491
3408.57316 0.03537
3407.28739 0.03558
3406.00162 0.03557
3404.71585 0.03554
3403.43008 0.03569
3402.14432 0.03606
3400.85855 0.03666
3399.57278 0.03739
3398.28701 0.03790
3397.00124 0.03801
3395.71547 0.03764
3394.42970 0.03692
3393.14393 0.03615
3391.85817 0.03554
3390.57240 0.03513
3389.28663 0.03492
3388.00086 0.03498
3386.71509 0.03530
3385.42932 0.03568
3384.14355 0.03588
3382.85778 0.03589
3381.57201 0.03591
3380.28625 0.03603
3379.00048 0.03612
3377.71471 0.03595
3376.42894 0.03535
3375.14317 0.03441
3373.85740 0.03347
3372.57163 0.03303
3371.28586 0.03340
3370.00010 0.03437
3368.71433 0.03537
3367.42856 0.03586
3366.14279 0.03570
3364.85702 0.03516
3363.57125 0.03471
3362.28548 0.03462
3360.99971 0.03485
3359.71394 0.03516
3358.42818 0.03537
3357.14241 0.03556
3355.85664 0.03588
3354.57087 0.03632
3353.28510 0.03656
3351.99933 0.03625
3350.71356 0.03538
3349.42779 0.03436
3348.14202 0.03367
3346.85626 0.03346
3345.57049 0.03350
3344.28472 0.03356
3342.99895 0.03364
3341.71318 0.03384
3340.42741 0.03413
3339.14164 0.03435
3337.85587 0.03436
3336.57011 0.03421
3335.28434 0.03412
3333.99857 0.03422
3332.71280 0.03436
3331.42703 0.03428
3330.14126 0.03395
3328.85549 0.03364
3327.56972 0.03358
3326.28395 0.03373
3324.99819 0.03383
3323.71242 0.03373
3322.42665 0.03357
3321.14088 0.03359
3319.85511 0.03387
3318.56934 0.03427
3317.28357 0.03460
3315.99780 0.03481
3314.71204 0.03504
3313.42627 0.03538
3312.14050 0.03570
3310.85473 0.03581
3309.56896 0.03571
3308.28319 0.03556
3306.99742 0.03544
3305.71165 0.03534
3304.42588 0.03517
3303.14012 0.03493
3301.85435 0.03467
3300.56858 0.03443
3299.28281 0.03422
3297.99704 0.03403
3296.71127 0.03388
3295.42550 0.03372
3294.13973 0.03351
3292.85397 0.03330
3291.56820 0.03321
3290.28243 0.03322
3288.99666 0.03314
3287.71089 0.03287
3286.42512 0.03256
3285.13935 0.03243
3283.85358 0.03248
3282.56781 0.03264
3281.28205 0.03293
3279.99628 0.03335
3278.71051 0.03370
3277.42474 0.03374
3276.13897 0.03356
3274.85320 0.03350
3273.56743 0.03374
3272.28166 0.03412
3270.99590 0.03446
3269.71013 0.03475
3268.42436 0.03488
3267.13859 0.03469
3265.85282 0.03412
3264.56705 0.03342
3263.28128 0.03289
3261.99551 0.03268
3260.70974 0.03276
3259.42398 0.03304
3258.13821 0.03340
3256.85244 0.03365
3255.56667 0.03360
3254.28090 0.03320
3252.99513 0.03260
3251.70936 0.03215
3250.42359 0.03211
3249.13783 0.03243
3247.85206 0.03276
3246.56629 0.03277
3245.28052 0.03242
3243.99475 0.03198
3242.70898 0.03178
3241.42321 0.03191
3240.13744 0.03230
3238.85167 0.03278
3237.56591 0.03322
3236.28014 0.03349
3234.99437 0.03351
3233.70860 0.03333
3232.42283 0.03308
3231.13706 0.03291
3229.85129 0.03291
3228.56552 0.03301
3227.27976 0.03312
3225.99399 0.03324
3224.70822 0.03342
3223.42245 0.03362
3222.13668 0.03361
3220.85091 0.03323
3219.56514 0.03262
3218.27937 0.03209
3216.99360 0.03182
3215.70784 0.03187
3214.42207 0.03221
3213.13630 0.03269
3211.85053 0.03308
3210.56476 0.03315
3209.27899 0.03293
3207.99322 0.03268
3206.70745 0.03253
3205.42169 0.03236
3204.13592 0.03197
3202.85015 0.03140
3201.56438 0.03098
3200.27861 0.03102
3198.99284 0.03146
3197.70707 0.03194
3196.42130 0.03211
3195.13553 0.03193
3193.84977 0.03162
3192.56400 0.03144
3191.27823 0.03136
3189.99246 0.03116
3188.70669 0.03073
3187.42092 0.03025
3186.13515 0.03007
3184.84938 0.03032
3183.56362 0.03083
3182.27785 0.03126
3180.99208 0.03131
3179.70631 0.03090
3178.42054 0.03019
3177.13477 0.02955
3175.84900 0.02927
3174.56323 0.02941
3173.27746 0.02974
3171.99170 0.03003
3170.70593 0.03016
3169.42016 0.03020
3168.13439 0.03020
3166.84862 0.03010
3165.56285 0.02977
3164.27708 0.02922
3162.99131 0.02864
3161.70555 0.02835
3160.41978 0.02848
3159.13401 0.02888
3157.84824 0.02928
3156.56247 0.02956
3155.27670 0.02978
3153.99093 0.02999
3152.70516 0.03007
3151.41939 0.02998
3150.13363 0.02984
3148.84786 0.02987
3147.56209 0.03012
3146.27632 0.03042
3144.99055 0.03062
3143.70478 0.03072
3142.41901 0.03075
3141.13324 0.03067
3139.84748 0.03049
3138.56171 0.03024
3137.27594 0.03001
3135.99017 0.02982
3134.70440 0.02962
3133.41863 0.02928
3132.13286 0.02879
3130.84709 0.02829
3129.56132 0.02796
3128.27556 0.02790
3126.98979 0.02804
3125.70402 0.02836
3124.41825 0.02890
3123.13248 0.02954
3121.84671 0.02990
3120.56094 0.02966
3119.27517 0.02884
3117.98940 0.02785
3116.70364 0.02715
3115.41787 0.02693
3114.13210 0.02711
3112.84633 0.02751
3111.56056 0.02793
3110.27479 0.02818
3108.98902 0.02811
3107.70325 0.02779
3106.41749 0.02753
3105.13172 0.02752
3103.84595 0.02766
3102.56018 0.02772
3101.27441 0.02759
3099.98864 0.02744
3098.70287 0.02750
3097.41710 0.02780
3096.13133 0.02813
3094.84557 0.02821
3093.55980 0.02793
3092.27403 0.02738
3090.98826 0.02676
3089.70249 0.02624
3088.41672 0.02595
3087.13095 0.02595
3085.84518 0.02618
3084.55942 0.02638
3083.27365 0.02625
3081.98788 0.02576
3080.70211 0.02522
3079.41634 0.02498
3078.13057 0.02513
3076.84480 0.02551
3075.55903 0.02596
3074.27326 0.02642
3072.98750 0.02680
3071.70173 0.02699
3070.41596 0.02693
3069.13019 0.02672
3067.84442 0.02651
3066.55865 0.02633
3065.27288 0.02614
3063.98711 0.02587
3062.70135 0.02560
3061.41558 0.02553
3060.12981 0.02577
3058.84404 0.02621
3057.55827 0.02647
3056.27250 0.02629
3054.98673 0.02578
3053.70096 0.02532
3052.41519 0.02516
3051.12943 0.02529
3049.84366 0.02554
3048.55789 0.02582
3047.27212 0.02607
3045.98635 0.02618
3044.70058 0.02603
3043.41481 0.02566
3042.12904 0.02528
3040.84328 0.02509
3039.55751 0.02504
3038.27174 0.02490
3036.98597 0.02458
3035.70020 0.02426
3034.41443 0.02418
3033.12866 0.02442
3031.84289 0.02478
3030.55712 0.02505
3029.27136 0.02518
3027.98559 0.02523
3026.69982 0.02523
3025.41405 0.02514
3024.12828 0.02490
3022.84251 0.02452
3021.55674 0.02413
3020.27097 0.02390
3018.98521 0.02394
3017.69944 0.02422
3016.41367 0.02456
3015.12790 0.02472
3013.84213 0.02455
3012.55636 0.02411
3011.27059 0.02357
3009.98482 0.02306
3008.69905 0.02264
3007.41329 0.02239
3006.12752 0.02241
3004.84175 0.02274
3003.55598 0.02326
3002.27021 0.02372
3000.98444 0.02394
2999.69867 0.02389
2998.41290 0.02359
2997.12714 0.02323
2995.84137 0.02295
2994.55560 0.02286
2993.26983 0.02296
2991.98406 0.02316
2990.69829 0.02344
2989.41252 0.02380
2988.12675 0.02421
2986.84098 0.02456
2985.55522 0.02471
2984.26945 0.02464
2982.98368 0.02441
2981.69791 0.02409
2980.41214 0.02379
2979.12637 0.02361
2977.84060 0.02360
2976.55483 0.02369
2975.26907 0.02373
2973.98330 0.02367
2972.69753 0.02354
2971.41176 0.02341
2970.12599 0.02324
2968.84022 0.02297
2967.55445 0.02268
2966.26868 0.02259
2964.98291 0.02284
2963.69715 0.02337
2962.41138 0.02395
2961.12561 0.02437
2959.83984 0.02457
2958.55407 0.02463
2957.26830 0.02461
2955.98253 0.02454
2954.69676 0.02445
2953.41100 0.02432
2952.12523 0.02400
2950.83946 0.02343
2949.55369 0.02282
2948.26792 0.02257
2946.98215 0.02282
2945.69638 0.02329
2944.41061 0.02360
2943.12484 0.02361
2941.83908 0.02347
2940.55331 0.02342
2939.26754 0.02355
2937.98177 0.02373
2936.69600 0.02371
2935.41023 0.02349
2934.12446 0.02334
2932.83869 0.02344
2931.55293 0.02369
2930.26716 0.02377
2928.98139 0.02343
2927.69562 0.02277
2926.40985 0.02213
2925.12408 0.02179
2923.83831 0.02176
2922.55254 0.02181
2921.26677 0.02170
2919.98101 0.02145
2918.69524 0.02125
2917.40947 0.02129
2916.12370 0.02149
2914.83793 0.02163
2913.55216 0.02161
2912.26639 0.02155
2910.98062 0.02163
2909.69486 0.02184
2908.40909 0.02197
2907.12332 0.02191
2905.83755 0.02170
2904.55178 0.02150
2903.26601 0.02138
2901.98024 0.02130
2900.69447 0.02126
2899.40870 0.02125
2898.12294 0.02134
2896.83717 0.02154
2895.55140 0.02175
2894.26563 0.02186
2892.97986 0.02183
2891.69409 0.02176
2890.40832 0.02173
2889.12255 0.02173
2887.83678 0.02173
2886.55102 0.02179
2885.26525 0.02193
2883.97948 0.02207
2882.69371 0.02208
2881.40794 0.02189
2880.12217 0.02152
2878.83640 0.02105
2877.55063 0.02065
2876.26487 0.02040
2874.97910 0.02035
2873.69333 0.02048
2872.40756 0.02076
2871.12179 0.02109
2869.83602 0.02125
2868.55025 0.02106
2867.26448 0.02060
2865.97871 0.02016
2864.69295 0.01995
2863.40718 0.01990
2862.12141 0.01980
2860.83564 0.01956
2859.54987 0.01927
2858.26410 0.01909
2856.97833 0.01906
2855.69256 0.01917
2854.40680 0.01933
2853.12103 0.01943
2851.83526 0.01938
2850.54949 0.01919
2849.26372 0.01895
2847.97795 0.01872
2846.69218 0.01855
2845.40641 0.01851
2844.12064 0.01858
2842.83488 0.01864
2841.54911 0.01858
2840.26334 0.01839
2838.97757 0.01825
2837.69180 0.01828
2836.40603 0.01845
2835.12026 0.01862
2833.83449 0.01871
2832.54873 0.01873
2831.26296 0.01873
2829.97719 0.01871
2828.69142 0.01867
2827.40565 0.01856
2826.11988 0.01828
2824.83411 0.01779
2823.54834 0.01725
2822.26257 0.01698
2820.97681 0.01714
2819.69104 0.01760
2818.40527 0.01810
2817.11950 0.01841
2815.83373 0.01841
2814.54796 0.01813
2813.26219 0.01774
2811.97642 0.01737
2810.69066 0.01707
2809.40489 0.01683
2808.11912 0.01664
2806.83335 0.01653
2805.54758 0.01655
2804.26181 0.01668
2802.97604 0.01686
2801.69027 0.01699
2800.40450 0.01699
2799.11874 0.01687
2797.83297 0.01670
2796.54720 0.01666
2795.26143 0.01686
2793.97566 0.01726
2792.68989 0.01759
2791.40412 0.01760
2790.11835 0.01731
2788.83259 0.01689
2787.54682 0.01659
2786.26105 0.01651
2784.97528 0.01658
2783.68951 0.01668
2782.40374 0.01673
2781.11797 0.01675
2779.83220 0.01681
2778.54643 0.01688
2777.26067 0.01694
2775.97490 0.01697
2774.68913 0.01695
2773.40336 0.01681
2772.11759 0.01660
2770.83182 0.01646
2769.54605 0.01654
2768.26028 0.01678
2766.97452 0.01698
2765.68875 0.01693
2764.40298 0.01667
2763.11721 0.01632
2761.83144 0.01607
2760.54567 0.01604
2759.25990 0.01625
2757.97413 0.01651
2756.68836 0.01660
2755.40260 0.01649
2754.11683 0.01634
2752.83106 0.01632
2751.54529 0.01641
2750.25952 0.01652
2748.97375 0.01664
2747.68798 0.01678
2746.40221 0.01686
2745.11645 0.01675
2743.83068 0.01645
2742.54491 0.01609
2741.25914 0.01584
2739.97337 0.01572
2738.68760 0.01568
2737.40183 0.01567
2736.11606 0.01566
2734.83029 0.01565
2733.54453 0.01566
2732.25876 0.01573
2730.97299 0.01581
2729.68722 0.01585
2728.40145 0.01583
2727.11568 0.01580
2725.82991 0.01580
2724.54414 0.01576
2723.25838 0.01571
2721.97261 0.01569
2720.68684 0.01571
2719.40107 0.01568
2718.11530 0.01557
2716.82953 0.01545
2715.54376 0.01541
2714.25799 0.01539
2712.97222 0.01529
2711.68646 0.01513
2710.40069 0.01502
2709.11492 0.01507
2707.82915 0.01523
2706.54338 0.01543
2705.25761 0.01556
2703.97184 0.01558
2702.68607 0.01546
2701.40031 0.01525
2700.11454 0.01502
2698.82877 0.01481
2697.54300 0.01465
2696.25723 0.01449
2694.97146 0.01432
2693.68569 0.01422
2692.39992 0.01426
2691.11415 0.01443
2689.82839 0.01467
2688.54262 0.01492
2687.25685 0.01511
2685.97108 0.01514
2684.68531 0.01499
2683.39954 0.01474
2682.11377 0.01449
2680.82800 0.01430
2679.54224 0.01415
2678.25647 0.01407
2676.97070 0.01414
2675.68493 0.01437
2674.39916 0.01464
2673.11339 0.01477
2671.82762 0.01466
2670.54185 0.01443
2669.25608 0.01430
2667.97032 0.01439
2666.68455 0.01466
2665.39878 0.01497
2664.11301 0.01519
2662.82724 0.01531
2661.54147 0.01535
2660.25570 0.01530
2658.96993 0.01503
2657.68417 0.01456
2656.39840 0.01410
2655.11263 0.01391
2653.82686 0.01407
2652.54109 0.01449
2651.25532 0.01504
2649.96955 0.01553
2648.68378 0.01575
2647.39801 0.01559
2646.11225 0.01520
2644.82648 0.01484
2643.54071 0.01468
2642.25494 0.01467
2640.96917 0.01470
2639.68340 0.01470
2638.39763 0.01461
2637.11186 0.01437
2635.82609 0.01397
2634.54033 0.01356
2633.25456 0.01330
2631.96879 0.01329
2630.68302 0.01342
2629.39725 0.01352
2628.11148 0.01346
2626.82571 0.01328
2625.53994 0.01311
2624.25418 0.01302
2622.96841 0.01300
2621.68264 0.01299
2620.39687 0.01294
2619.11110 0.01281
2617.82533 0.01261
2616.53956 0.01240
2615.25379 0.01228
2613.96802 0.01232
2612.68226 0.01249
2611.39649 0.01270
2610.11072 0.01290
2608.82495 0.01303
2607.53918 0.01304
2606.25341 0.01284
2604.96764 0.01243
2603.68187 0.01202
2602.39611 0.01191
2601.11034 0.01224
2599.82457 0.01280
2598.53880 0.01320
2597.25303 0.01323
2595.96726 0.01299
2594.68149 0.01272
2593.39572 0.01253
2592.10995 0.01229
2590.82419 0.01187
2589.53842 0.01137
2588.25265 0.01108
2586.96688 0.01120
2585.68111 0.01160
2584.39534 0.01194
2583.10957 0.01202
2581.82380 0.01195
2580.53804 0.01192
2579.25227 0.01196
2577.96650 0.01201
2576.68073 0.01202
2575.39496 0.01198
2574.10919 0.01185
2572.82342 0.01168
2571.53765 0.01154
2570.25188 0.01140
2568.96612 0.01123
2567.68035 0.01114
2566.39458 0.01134
2565.10881 0.01184
2563.82304 0.01232
2562.53727 0.01252
2561.25150 0.01243
2559.96573 0.01215
2558.67997 0.01167
2557.39420 0.01108
2556.10843 0.01074
2554.82266 0.01096
2553.53689 0.01159
2552.25112 0.01199
2550.96535 0.01175
2549.67958 0.01108
2548.39381 0.01058
2547.10805 0.01062
2545.82228 0.01110
2544.53651 0.01163
2543.25074 0.01178
2541.96497 0.01133
2540.67920 0.01042
2539.39343 0.00952
2538.10766 0.00912
2536.82190 0.00934
2535.53613 0.00997
2534.25036 0.01059
2532.96459 0.01091
2531.67882 0.01089
2530.39305 0.01070
2529.10728 0.01053
2527.82151 0.01040
2526.53574 0.01029
2525.24998 0.01019
2523.96421 0.01023
2522.67844 0.01050
2521.39267 0.01092
2520.10690 0.01122
2518.82113 0.01121
2517.53536 0.01100
2516.24959 0.01082
2514.96383 0.01082
2513.67806 0.01093
2512.39229 0.01109
2511.10652 0.01127
2509.82075 0.01146
2508.53498 0.01165
2507.24921 0.01179
2505.96344 0.01193
2504.67767 0.01206
2503.39191 0.01199
2502.10614 0.01149
2500.82037 0.01066
2499.53460 0.01005
2498.24883 0.01010
2496.96306 0.01064
2495.67729 0.01110
2494.39152 0.01108
2493.10576 0.01073
2491.81999 0.01050
2490.53422 0.01067
2489.24845 0.01105
2487.96268 0.01128
2486.67691 0.01122
2485.39114 0.01105
2484.10537 0.01096
2482.81960 0.01089
2481.53384 0.01057
2480.24807 0.00994
2478.96230 0.00930
2477.67653 0.00910
2476.39076 0.00948
2475.10499 0.01006
2473.81922 0.01033
2472.53345 0.01019
2471.24769 0.00993
2469.96192 0.00988
2468.67615 0.01012
2467.39038 0.01047
2466.10461 0.01068
2464.81884 0.01064
2463.53307 0.01047
2462.24730 0.01043
2460.96153 0.01065
2459.67577 0.01102
2458.39000 0.01129
2457.10423 0.01131
2455.81846 0.01110
2454.53269 0.01086
2453.24692 0.01076
2451.96115 0.01076
2450.67538 0.01077
2449.38962 0.01077
2448.10385 0.01081
2446.81808 0.01089
2445.53231 0.01083
2444.24654 0.01053
2442.96077 0.01013
2441.67500 0.00996
2440.38923 0.01016
2439.10346 0.01046
2437.81770 0.01049
2436.53193 0.01020
2435.24616 0.00996
2433.96039 0.01013
2432.67462 0.01062
2431.38885 0.01100
2430.10308 0.01096
2428.81731 0.01059
2427.53155 0.01018
2426.24578 0.00990
2424.96001 0.00970
2423.67424 0.00945
2422.38847 0.00915
2421.10270 0.00892
2419.81693 0.00885
2418.53116 0.00893
2417.24539 0.00904
2415.95963 0.00905
2414.67386 0.00894
2413.38809 0.00879
2412.10232 0.00867
2410.81655 0.00861
2409.53078 0.00858
2408.24501 0.00858
2406.95924 0.00865
2405.67347 0.00877
2404.38771 0.00884
2403.10194 0.00880
2401.81617 0.00872
2400.53040 0.00874
2399.24463 0.00889
2397.95886 0.00911
2396.67309 0.00930
2395.38732 0.00939
2394.10156 0.00935
2392.81579 0.00921
2391.53002 0.00907
2390.24425 0.00900
2388.95848 0.00902
2387.67271 0.00910
2386.38694 0.00926
2385.10117 0.00950
2383.81540 0.00977
2382.52964 0.00995
2381.24387 0.00994
2379.95810 0.00983
2378.67233 0.00970
2377.38656 0.00968
2376.10079 0.00978
2374.81502 0.00979
2373.52925 0.00944
2372.24349 0.00896
2370.95772 0.00879
2369.67195 0.00898
2368.38618 0.00935
2367.10041 0.00963
2365.81464 0.00987
2364.52887 0.01002
2363.24310 0.01003
2361.95733 0.00983
2360.67157 0.00932
2359.38580 0.00875
2358.10003 0.00846
2356.81426 0.00863
2355.52849 0.00923
2354.24272 0.01003
2352.95695 0.01062
2351.67118 0.01059
2350.38542 0.01025
2349.09965 0.01007
2347.81388 0.01002
2346.52811 0.00980
2345.24234 0.00956
2343.95657 0.00960
2342.67080 0.00994
2341.38503 0.00961
2340.09926 0.00889
2338.81350 0.00908
2337.52773 0.00998
2336.24196 0.01012
2334.95619 0.00981
2333.67042 0.01004
2332.38465 0.01062
2331.09888 0.01009
2329.81311 0.00976
2328.52735 0.01007
2327.24158 0.01014
2325.95581 0.01033
2324.67004 0.01087
2323.38427 0.01142
2322.09850 0.01136
2320.81273 0.01124
2319.52696 0.01101
2318.24119 0.01071
2316.95543 0.01047
2315.66966 0.01025
2314.38389 0.01022
2313.09812 0.01028
2311.81235 0.01019
2310.52658 0.01005
2309.24081 0.00990
2307.95504 0.00967
2306.66928 0.00947
2305.38351 0.00926
2304.09774 0.00909
2302.81197 0.00898
2301.52620 0.00892
2300.24043 0.00900
2298.95466 0.00921
2297.66889 0.00947
2296.38312 0.00966
2295.09736 0.00974
2293.81159 0.00979
2292.52582 0.00987
2291.24005 0.00995
2289.95428 0.00986
2288.66851 0.00954
2287.38274 0.00912
2286.09697 0.00889
2284.81121 0.00908
2283.52544 0.00961
2282.23967 0.01014
2280.95390 0.01037
2279.66813 0.01021
2278.38236 0.00985
2277.09659 0.00948
2275.81082 0.00908
2274.52505 0.00847
2273.23929 0.00763
2271.95352 0.00682
2270.66775 0.00636
2269.38198 0.00629
2268.09621 0.00631
2266.81044 0.00618
2265.52467 0.00593
2264.23890 0.00586
2262.95314 0.00616
2261.66737 0.00684
2260.38160 0.00775
2259.09583 0.00863
2257.81006 0.00911
2256.52429 0.00893
2255.23852 0.00815
2253.95275 0.00721
2252.66698 0.00664
2251.38122 0.00664
2250.09545 0.00701
2248.80968 0.00734
2247.52391 0.00739
2246.23814 0.00720
2244.95237 0.00705
2243.66660 0.00724
2242.38083 0.00772
2241.09507 0.00818
2239.80930 0.00826
2238.52353 0.00791
2237.23776 0.00726
2235.95199 0.00647
2234.66622 0.00572
2233.38045 0.00522
2232.09468 0.00520
2230.80891 0.00566
2229.52315 0.00646
2228.23738 0.00734
2226.95161 0.00809
2225.66584 0.00843
2224.38007 0.00808
2223.09430 0.00698
2221.80853 0.00550
2220.52276 0.00426
2219.23700 0.00369
2217.95123 0.00372
2216.66546 0.00394
2215.37969 0.00393
2214.09392 0.00364
2212.80815 0.00331
2211.52238 0.00328
2210.23661 0.00376
2208.95084 0.00485
2207.66508 0.00639
2206.37931 0.00791
2205.09354 0.00881
2203.80777 0.00891
2202.52200 0.00854
2201.23623 0.00816
2199.95046 0.00791
2198.66469 0.00765
2197.37893 0.00732
2196.09316 0.00705
2194.80739 0.00677
2193.52162 0.00600
2192.23585 0.00438
2190.95008 0.00249
2189.66431 0.00165
2188.37854 0.00268
2187.09277 0.00499
2185.80701 0.00714
2184.52124 0.00805
2183.23547 0.00761
2181.94970 0.00638
2180.66393 0.00508
2179.37816 0.00425
2178.09239 0.00392
2176.80662 0.00352
2175.52085 0.00243
2174.23509 0.00080
2172.94932 -0.00044
2171.66355 -0.00057
2170.37778 0.00024
2169.09201 0.00127
2167.80624 0.00208
2166.52047 0.00264
2165.23470 0.00317
2163.94894 0.00383
2162.66317 0.00450
2161.37740 0.00479
2160.09163 0.00450
2158.80586 0.00412
2157.52009 0.00421
2156.23432 0.00453
2154.94855 0.00420
2153.66278 0.00276
2152.37702 0.00076
2151.09125 -0.00066
2149.80548 -0.00063
2148.51971 0.00064
2147.23394 0.00193
2145.94817 0.00218
2144.66240 0.00153
2143.37663 0.00097
2142.09087 0.00108
2140.80510 0.00167
2139.51933 0.00237
2138.23356 0.00317
2136.94779 0.00403
2135.66202 0.00462
2134.37625 0.00459
2133.09048 0.00406
2131.80471 0.00359
2130.51895 0.00363
2129.23318 0.00418
2127.94741 0.00486
2126.66164 0.00523
2125.37587 0.00503
2124.09010 0.00443
2122.80433 0.00389
2121.51856 0.00375
2120.23280 0.00393
2118.94703 0.00419
2117.66126 0.00444
2116.37549 0.00481
2115.08972 0.00527
2113.80395 0.00559
2112.51818 0.00564
2111.23241 0.00547
2109.94664 0.00511
2108.66088 0.00456
2107.37511 0.00394
2106.08934 0.00351
2104.80357 0.00342
2103.51780 0.00357
2102.23203 0.00374
2100.94626 0.00397
2099.66049 0.00609
2098.37473 0.00742
2097.08896 0.00761
2095.80319 0.00694
2094.51742 0.00560
2093.23165 0.00411
2091.94588 0.00319
2090.66011 0.00315
2089.37434 0.00381
2088.08857 0.00464
2086.80281 0.00525
2085.51704 0.00555
2084.23127 0.00568
2082.94550 0.00576
2081.65973 0.00579
2080.37396 0.00566
2079.08819 0.00536
2077.80242 0.00510
2076.51666 0.00512
2075.23089 0.00549
2073.94512 0.00594
2072.65935 0.00611
2071.37358 0.00579
2070.08781 0.00516
2068.80204 0.00471
2067.51627 0.00478
2066.23050 0.00526
2064.94474 0.00565
2063.65897 0.00556
2062.37320 0.00498
2061.08743 0.00417
2059.80166 0.00341
2058.51589 0.00293
2057.23012 0.00287
2055.94435 0.00332
2054.65859 0.00423
2053.37282 0.00539
2052.08705 0.00632
2050.80128 0.00662
2049.51551 0.00625
2048.22974 0.00555
2046.94397 0.00494
2045.65820 0.00457
2044.37243 0.00446
2043.08667 0.00464
2041.80090 0.00499
2040.51513 0.00533
2039.22936 0.00556
2037.94359 0.00580
2036.65782 0.00601
2035.37205 0.00598
2034.08628 0.00560
2032.80052 0.00512
2031.51475 0.00485
2030.22898 0.00479
2028.94321 0.00477
2027.65744 0.00473
2026.37167 0.00468
2025.08590 0.00459
2023.80013 0.00435
2022.51436 0.00381
2021.22860 0.00286
2019.94283 0.00162
2018.65706 0.00054
2017.37129 0.00018
2016.08552 0.00084
2014.79975 0.00242
2013.51398 0.00448
2012.22821 0.00647
2010.94245 0.00779
2009.65668 0.00810
2008.37091 0.00742
2007.08514 0.00616
2005.79937 0.00492
2004.51360 0.00412
2003.22783 0.00377
2001.94206 0.00358
2000.65629 0.00337
1999.37053 0.00331
1998.08476 0.00360
1996.79899 0.00415
1995.51322 0.00456
1994.22745 0.00449
1992.94168 0.00396
1991.65591 0.00329
1990.37014 0.00287
1989.08438 0.00283
1987.79861 0.00302
1986.51284 0.00327
1985.22707 0.00365
1983.94130 0.00429
1982.65553 0.00521
1981.36976 0.00637
1980.08399 0.00786
1978.79822 0.00963
1977.51246 0.01115
1976.22669 0.01168
1974.94092 0.01102
1973.65515 0.00963
1972.36938 0.00819
1971.08361 0.00703
1969.79784 0.00623
1968.51207 0.00577
1967.22631 0.00562
1965.94054 0.00565
1964.65477 0.00562
1963.36900 0.00533
1962.08323 0.00479
1960.79746 0.00435
1959.51169 0.00439
1958.22592 0.00480
1956.94015 0.00507
1955.65439 0.00485
1954.36862 0.00437
1953.08285 0.00421
1951.79708 0.00462
1950.51131 0.00537
1949.22554 0.00598
1947.93977 0.00621
1946.65400 0.00622
1945.36823 0.00637
1944.08247 0.00685
1942.79670 0.00744
1941.51093 0.00777
1940.22516 0.00762
1938.93939 0.00709
1937.65362 0.00644
1936.36785 0.00582
1935.08208 0.00533
1933.79632 0.00508
1932.51055 0.00524
1931.22478 0.00579
1929.93901 0.00646
1928.65324 0.00698
1927.36747 0.00726
1926.08170 0.00731
1924.79593 0.00716
1923.51016 0.00684
1922.22440 0.00643
1920.93863 0.00603
1919.65286 0.00566
1918.36709 0.00541
1917.08132 0.00540
1915.79555 0.00568
1914.50978 0.00606
1913.22401 0.00625
1911.93825 0.00610
1910.65248 0.00571
1909.36671 0.00532
1908.08094 0.00510
1906.79517 0.00507
1905.50940 0.00522
1904.22363 0.00549
1902.93786 0.00585
1901.65209 0.00621
1900.36633 0.00642
1899.08056 0.00637
1897.79479 0.00612
1896.50902 0.00574
1895.22325 0.00536
1893.93748 0.00512
1892.65171 0.00522
1891.36594 0.00565
1890.08018 0.00609
1888.79441 0.00617
1887.50864 0.00585
1886.22287 0.00550
1884.93710 0.00543
1883.65133 0.00571
1882.36556 0.00614
1881.07979 0.00650
1879.79402 0.00666
1878.50826 0.00662
1877.22249 0.00644
1875.93672 0.00620
1874.65095 0.00599
1873.36518 0.00592
1872.07941 0.00603
1870.79364 0.00623
1869.50787 0.00639
1868.22211 0.00641
1866.93634 0.00629
1865.65057 0.00605
1864.36480 0.00580
1863.07903 0.00568
1861.79326 0.00578
1860.50749 0.00608
1859.22172 0.00641
1857.93595 0.00664
1856.65019 0.00670
1855.36442 0.00659
1854.07865 0.00638
1852.79288 0.00617
1851.50711 0.00610
1850.22134 0.00622
1848.93557 0.00647
1847.64980 0.00668
1846.36404 0.00667
1845.07827 0.00643
1843.79250 0.00612
1842.50673 0.00591
1841.22096 0.00581
1839.93519 0.00573
1838.64942 0.00556
1837.36365 0.00533
1836.07788 0.00519
1834.79212 0.00527
1833.50635 0.00557
1832.22058 0.00597
1830.93481 0.00634
1829.64904 0.00665
1828.36327 0.00691
1827.07750 0.00717
1825.79173 0.00746
1824.50597 0.00775
1823.22020 0.00799
1821.93443 0.00808
1820.64866 0.00802
1819.36289 0.00779
1818.07712 0.00738
1816.79135 0.00681
1815.50558 0.00618
1814.21981 0.00565
1812.93405 0.00531
1811.64828 0.00516
1810.36251 0.00512
1809.07674 0.00516
1807.79097 0.00524
1806.50520 0.00535
1805.21943 0.00547
1803.93366 0.00561
1802.64790 0.00574
1801.36213 0.00587
1800.07636 0.00600
1798.79059 0.00610
1797.50482 0.00615
1796.21905 0.00619
1794.93328 0.00635
1793.64751 0.00669
1792.36174 0.00712
1791.07598 0.00745
1789.79021 0.00753
1788.50444 0.00739
1787.21867 0.00719
1785.93290 0.00708
1784.64713 0.00712
1783.36136 0.00728
1782.07559 0.00744
1780.78983 0.00748
1779.50406 0.00737
1778.21829 0.00720
1776.93252 0.00711
1775.64675 0.00715
1774.36098 0.00729
1773.07521 0.00744
1771.78944 0.00754
1770.50367 0.00755
1769.21791 0.00750
1767.93214 0.00744
1766.64637 0.00744
1765.36060 0.00750
1764.07483 0.00763
1762.78906 0.00781
1761.50329 0.00799
1760.21752 0.00811
1758.93176 0.00809
1757.64599 0.00796
1756.36022 0.00782
1755.07445 0.00775
1753.78868 0.00776
1752.50291 0.00778
1751.21714 0.00780
1749.93137 0.00781
1748.64560 0.00782
1747.35984 0.00785
1746.07407 0.00792
1744.78830 0.00800
1743.50253 0.00808
1742.21676 0.00810
1740.93099 0.00808
1739.64522 0.00808
1738.35945 0.00818
1737.07369 0.00840
1735.78792 0.00863
1734.50215 0.00878
1733.21638 0.00883
1731.93061 0.00878
1730.64484 0.00864
1729.35907 0.00850
1728.07330 0.00843
1726.78753 0.00845
1725.50177 0.00852
1724.21600 0.00858
1722.93023 0.00867
1721.64446 0.00888
1720.35869 0.00920
1719.07292 0.00956
1717.78715 0.00988
1716.50138 0.01009
1715.21561 0.01013
1713.92985 0.01005
1712.64408 0.00992
1711.35831 0.00987
1710.07254 0.00995
1708.78677 0.01015
1707.50100 0.01039
1706.21523 0.01065
1704.92946 0.01098
1703.64370 0.01142
1702.35793 0.01191
1701.07216 0.01232
1699.78639 0.01261
1698.50062 0.01273
1697.21485 0.01267
1695.92908 0.01251
1694.64331 0.01236
1693.35754 0.01223
1692.07178 0.01214
1690.78601 0.01216
1689.50024 0.01237
1688.21447 0.01278
1686.92870 0.01324
1685.64293 0.01362
1684.35716 0.01385
1683.07139 0.01392
1681.78563 0.01387
1680.49986 0.01381
1679.21409 0.01391
1677.92832 0.01418
1676.64255 0.01451
1675.35678 0.01482
1674.07101 0.01505
1672.78524 0.01520
1671.49947 0.01529
1670.21371 0.01532
1668.92794 0.01535
1667.64217 0.01543
1666.35640 0.01560
1665.07063 0.01585
1663.78486 0.01615
1662.49909 0.01642
1661.21332 0.01661
1659.92756 0.01673
1658.64179 0.01689
1657.35602 0.01723
1656.07025 0.01779
1654.78448 0.01841
1653.49871 0.01886
1652.21294 0.01906
1650.92717 0.01904
1649.64140 0.01894
1648.35564 0.01887
1647.06987 0.01888
1645.78410 0.01887
1644.49833 0.01883
1643.21256 0.01881
1641.92679 0.01888
1640.64102 0.01908
1639.35525 0.01935
1638.06949 0.01967
1636.78372 0.01998
1635.49795 0.02025
1634.21218 0.02038
1632.92641 0.02034
1631.64064 0.02023
1630.35487 0.02020
1629.06910 0.02036
1627.78333 0.02071
1626.49757 0.02113
1625.21180 0.02147
1623.92603 0.02163
1622.64026 0.02165
1621.35449 0.02170
1620.06872 0.02193
1618.78295 0.02232
1617.49718 0.02271
1616.21142 0.02296
1614.92565 0.02303
1613.63988 0.02300
1612.35411 0.02303
1611.06834 0.02319
1609.78257 0.02342
1608.49680 0.02363
1607.21103 0.02382
1605.92526 0.02400
1604.63950 0.02418
1603.35373 0.02435
1602.06796 0.02449
1600.78219 0.02464
1599.49642 0.02484
1598.21065 0.02507
1596.92488 0.02530
1595.63911 0.02547
1594.35335 0.02559
1593.06758 0.02570
1591.78181 0.02582
1590.49604 0.02593
1589.21027 0.02597
1587.92450 0.02594
1586.63873 0.02589
1585.35296 0.02589
1584.06719 0.02599
1582.78143 0.02617
1581.49566 0.02642
1580.20989 0.02672
1578.92412 0.02701
1577.63835 0.02720
1576.35258 0.02722
1575.06681 0.02709
1573.78104 0.02690
1572.49528 0.02675
1571.20951 0.02671
1569.92374 0.02672
1568.63797 0.02670
1567.35220 0.02662
1566.06643 0.02651
1564.78066 0.02652
1563.49489 0.02671
1562.20912 0.02704
1560.92336 0.02738
1559.63759 0.02757
1558.35182 0.02755
1557.06605 0.02728
1555.78028 0.02685
1554.49451 0.02642
1553.20874 0.02611
1551.92297 0.02593
1550.63721 0.02578
1549.35144 0.02566
1548.06567 0.02556
1546.77990 0.02548
1545.49413 0.02547
1544.20836 0.02557
1542.92259 0.02577
1541.63682 0.02596
1540.35105 0.02600
1539.06529 0.02580
1537.77952 0.02543
1536.49375 0.02505
1535.20798 0.02479
1533.92221 0.02470
1532.63644 0.02474
1531.35067 0.02487
1530.06490 0.02506
1528.77914 0.02535
1527.49337 0.02573
1526.20760 0.02617
1524.92183 0.02665
1523.63606 0.02713
1522.35029 0.02759
1521.06452 0.02807
1519.77875 0.02859
1518.49298 0.02913
1517.20722 0.02967
1515.92145 0.03020
1514.63568 0.03075
1513.34991 0.03136
1512.06414 0.03211
1510.77837 0.03299
1509.49260 0.03394
1508.20683 0.03482
1506.92107 0.03553
1505.63530 0.03605
1504.34953 0.03644
1503.06376 0.03679
1501.77799 0.03726
1500.49222 0.03791
1499.20645 0.03866
1497.92068 0.03935
1496.63491 0.03989
1495.34915 0.04026
1494.06338 0.04054
1492.77761 0.04082
1491.49184 0.04118
1490.20607 0.04163
1488.92030 0.04214
1487.63453 0.04265
1486.34876 0.04312
1485.06299 0.04358
1483.77723 0.04408
1482.49146 0.04466
1481.20569 0.04532
1479.91992 0.04604
1478.63415 0.04674
1477.34838 0.04740
1476.06261 0.04799
1474.77684 0.04847
1473.49108 0.04878
1472.20531 0.04890
1470.91954 0.04889
1469.63377 0.04883
1468.34800 0.04880
1467.06223 0.04881
1465.77646 0.04884
1464.49069 0.04886
1463.20492 0.04893
1461.91916 0.04916
1460.63339 0.04959
1459.34762 0.05014
1458.06185 0.05066
1456.77608 0.05104
1455.49031 0.05129
1454.20454 0.05144
1452.91877 0.05159
1451.63301 0.05178
1450.34724 0.05199
1449.06147 0.05218
1447.77570 0.05234
1446.48993 0.05248
1445.20416 0.05260
1443.91839 0.05267
1442.63262 0.05268
1441.34685 0.05264
1440.06109 0.05261
1438.77532 0.05264
1437.48955 0.05274
1436.20378 0.05290
1434.91801 0.05313
1433.63224 0.05343
1432.34647 0.05386
1431.06070 0.05441
1429.77494 0.05505
1428.48917 0.05572
1427.20340 0.05642
1425.91763 0.05713
1424.63186 0.05787
1423.34609 0.05865
1422.06032 0.05945
1420.77455 0.06020
1419.48878 0.06081
1418.20302 0.06123
1416.91725 0.06147
1415.63148 0.06160
1414.34571 0.06168
1413.05994 0.06171
1411.77417 0.06167
1410.48840 0.06152
1409.20263 0.06124
1407.91687 0.06083
1406.63110 0.06030
1405.34533 0.05965
1404.05956 0.05890
1402.77379 0.05805
1401.48802 0.05712
1400.20225 0.05612
1398.91648 0.05508
1397.63071 0.05398
1396.34495 0.05282
1395.05918 0.05159
1393.77341 0.05035
1392.48764 0.04914
1391.20187 0.04795
1389.91610 0.04680
1388.63033 0.04568
1387.34456 0.04459
1386.05880 0.04350
1384.77303 0.04235
1383.48726 0.04114
1382.20149 0.03992
1380.91572 0.03874
1379.62995 0.03762
1378.34418 0.03653
1377.05841 0.03541
1375.77264 0.03425
1374.48688 0.03308
1373.20111 0.03193
1371.91534 0.03085
1370.62957 0.02985
1369.34380 0.02893
1368.05803 0.02805
1366.77226 0.02721
1365.48649 0.02640
1364.20073 0.02562
1362.91496 0.02488
1361.62919 0.02417
1360.34342 0.02348
1359.05765 0.02280
1357.77188 0.02211
1356.48611 0.02144
1355.20034 0.02085
1353.91457 0.02036
1352.62881 0.01998
1351.34304 0.01962
1350.05727 0.01924
1348.77150 0.01880
1347.48573 0.01832
1346.19996 0.01787
1344.91419 0.01746
1343.62842 0.01713
1342.34266 0.01684
1341.05689 0.01658
1339.77112 0.01632
1338.48535 0.01605
1337.19958 0.01580
1335.91381 0.01559
1334.62804 0.01539
1333.34227 0.01519
1332.05650 0.01496
1330.77074 0.01470
1329.48497 0.01444
1328.19920 0.01423
1326.91343 0.01409
1325.62766 0.01402
1324.34189 0.01397
1323.05612 0.01389
1321.77035 0.01374
1320.48459 0.01353
1319.19882 0.01331
1317.91305 0.01312
1316.62728 0.01298
1315.34151 0.01289
1314.05574 0.01283
1312.76997 0.01275
1311.48420 0.01263
1310.19843 0.01248
1308.91267 0.01234
1307.62690 0.01223
1306.34113 0.01215
1305.05536 0.01206
1303.76959 0.01198
1302.48382 0.01190
1301.19805 0.01183
1299.91228 0.01176
1298.62652 0.01169
1297.34075 0.01162
1296.05498 0.01153
1294.76921 0.01142
1293.48344 0.01130
1292.19767 0.01119
1290.91190 0.01110
1289.62613 0.01104
1288.34036 0.01097
1287.05460 0.01090
1285.76883 0.01083
1284.48306 0.01078
1283.19729 0.01072
1281.91152 0.01064
1280.62575 0.01053
1279.33998 0.01043
1278.05421 0.01036
1276.76845 0.01032
1275.48268 0.01028
1274.19691 0.01022
1272.91114 0.01017
1271.62537 0.01018
1270.33960 0.01020
1269.05383 0.01021
1267.76806 0.01017
1266.48229 0.01008
1265.19653 0.00997
1263.91076 0.00988
1262.62499 0.00981
1261.33922 0.00977
1260.05345 0.00975
1258.76768 0.00976
1257.48191 0.00979
1256.19614 0.00985
1254.91037 0.00988
1253.62461 0.00986
1252.33884 0.00981
1251.05307 0.00975
1249.76730 0.00969
1248.48153 0.00965
1247.19576 0.00961
1245.90999 0.00958
1244.62422 0.00956
1243.33846 0.00954
1242.05269 0.00954
1240.76692 0.00956
1239.48115 0.00960
1238.19538 0.00959
1236.90961 0.00954
1235.62384 0.00947
1234.33807 0.00941
1233.05230 0.00938
1231.76654 0.00937
1230.48077 0.00939
1229.19500 0.00940
1227.90923 0.00940
1226.62346 0.00941
1225.33769 0.00942
1224.05192 0.00946
1222.76615 0.00951
1221.48039 0.00957
1220.19462 0.00963
1218.90885 0.00968
1217.62308 0.00969
1216.33731 0.00967
1215.05154 0.00963
1213.76577 0.00959
1212.48000 0.00958
1211.19423 0.00961
1209.90847 0.00966
1208.62270 0.00971
1207.33693 0.00978
1206.05116 0.00986
1204.76539 0.00996
1203.47962 0.01007
1202.19385 0.01016
1200.90808 0.01015
1199.62232 0.01001
1198.33655 0.01016
1197.05078 0.01031
1195.76501 0.01040
1194.47924 0.01043
1193.19347 0.01046
1191.90770 0.01051
1190.62193 0.01055
1189.33616 0.01052
1188.05040 0.01044
1186.76463 0.01039
1185.47886 0.01041
1184.19309 0.01050
1182.90732 0.01059
1181.62155 0.01064
1180.33578 0.01063
1179.05001 0.01058
1177.76425 0.01056
1176.47848 0.01058
1175.19271 0.01063
1173.90694 0.01071
1172.62117 0.01083
1171.33540 0.01103
1170.04963 0.01127
1168.76386 0.01147
1167.47809 0.01156
1166.19233 0.01159
1164.90656 0.01161
1163.62079 0.01168
1162.33502 0.01179
1161.04925 0.01191
1159.76348 0.01207
1158.47771 0.01230
1157.19194 0.01262
1155.90618 0.01298
1154.62041 0.01328
1153.33464 0.01351
1152.04887 0.01371
1150.76310 0.01393
1149.47733 0.01422
1148.19156 0.01457
1146.90579 0.01496
1145.62002 0.01536
1144.33426 0.01574
1143.04849 0.01612
1141.76272 0.01658
1140.47695 0.01716
1139.19118 0.01782
1137.90541 0.01851
1136.61964 0.01919
1135.33387 0.01988
1134.04811 0.02069
1132.76234 0.02172
1131.47657 0.02299
1130.19080 0.02444
1128.90503 0.02598
1127.61926 0.02755
1126.33349 0.02916
1125.04772 0.03082
1123.76195 0.03254
1122.47619 0.03435
1121.19042 0.03627
1119.90465 0.03826
1118.61888 0.04024
1117.33311 0.04219
1116.04734 0.04411
1114.76157 0.04599
1113.47580 0.04781
1112.19004 0.04958
1110.90427 0.05134
1109.61850 0.05314
1108.33273 0.05497
1107.04696 0.05681
1105.76119 0.05863
1104.47542 0.06038
1103.18965 0.06205
1101.90388 0.06364
1100.61812 0.06520
1099.33235 0.06680
1098.04658 0.06840
1096.76081 0.06993
1095.47504 0.07133
1094.18927 0.07259
1092.90350 0.07374
1091.61773 0.07479
1090.33197 0.07577
1089.04620 0.07671
1087.76043 0.07768
1086.47466 0.07872
1085.18889 0.07978
1083.90312 0.08084
1082.61735 0.08189
1081.33158 0.08300
1080.04581 0.08427
1078.76005 0.08572
1077.47428 0.08732
1076.18851 0.08896
1074.90274 0.09055
1073.61697 0.09212
1072.33120 0.09376
1071.04543 0.09550
1069.75966 0.09730
1068.47390 0.09910
1067.18813 0.10089
1065.90236 0.10271
1064.61659 0.10458
1063.33082 0.10649
1062.04505 0.10841
1060.75928 0.11030
1059.47351 0.11213
1058.18774 0.11390
1056.90198 0.11562
1055.61621 0.11731
1054.33044 0.11893
1053.04467 0.12047
1051.75890 0.12191
1050.47313 0.12336
1049.18736 0.12495
1047.90159 0.12671
1046.61583 0.12855
1045.33006 0.13033
1044.04429 0.13203
1042.75852 0.13366
1041.47275 0.13528
1040.18698 0.13690
1038.90121 0.13851
1037.61544 0.14011
1036.32967 0.14168
1035.04391 0.14318
1033.75814 0.14456
1032.47237 0.14578
1031.18660 0.14684
1029.90083 0.14772
1028.61506 0.14841
1027.32929 0.14888
1026.04352 0.14917
1024.75775 0.14930
1023.47199 0.14931
1022.18622 0.14915
1020.90045 0.14876
1019.61468 0.14806
1018.32891 0.14705
1017.04314 0.14577
1015.75737 0.14429
1014.47160 0.14262
1013.18584 0.14074
1011.90007 0.13860
1010.61430 0.13620
1009.32853 0.13358
1008.04276 0.13077
1006.75699 0.12777
1005.47122 0.12458
1004.18545 0.12119
1002.89968 0.11763
1001.61392 0.11395
1000.32815 0.11021
999.04238 0.10645
997.75661 0.10266
996.47084 0.09888
995.18507 0.09510
993.89930 0.09136
992.61353 0.08765
991.32777 0.08403
990.04200 0.08055
988.75623 0.07726
987.47046 0.07413
986.18469 0.07112
984.89892 0.06818
983.61315 0.06532
982.32738 0.06260
981.04161 0.06007
979.75585 0.05776
978.47008 0.05568
977.18431 0.05381
975.89854 0.05215
974.61277 0.05073
973.32700 0.04961
972.04123 0.04884
970.75546 0.04841
969.46970 0.04826
968.18393 0.04832
966.89816 0.04858
965.61239 0.04903
964.32662 0.04961
963.04085 0.05017
961.75508 0.05053
960.46931 0.05059
959.18354 0.05029
957.89778 0.04962
956.61201 0.04862
955.32624 0.04738
954.04047 0.04594
952.75470 0.04440
951.46893 0.04286
950.18316 0.04144
948.89739 0.04016
947.61163 0.03897
946.32586 0.03776
945.04009 0.03649
943.75432 0.03521
942.46855 0.03405
941.18278 0.03305
939.89701 0.03214
938.61124 0.03127
937.32547 0.03040
936.03971 0.02956
934.75394 0.02880
933.46817 0.02819
932.18240 0.02770
930.89663 0.02726
929.61086 0.02674
928.32509 0.02612
927.03932 0.02547
925.75356 0.02490
924.46779 0.02442
923.18202 0.02399
921.89625 0.02362
920.61048 0.02332
919.32471 0.02308
918.03894 0.02288
916.75317 0.02270
915.46740 0.02252
914.18164 0.02230
912.89587 0.02200
911.61010 0.02166
910.32433 0.02136
909.03856 0.02119
907.75279 0.02114
906.46702 0.02116
905.18125 0.02117
903.89549 0.02108
902.60972 0.02083
901.32395 0.02044
900.03818 0.02005
898.75241 0.01982
897.46664 0.01978
896.18087 0.01985
894.89510 0.01994
893.60933 0.02004
892.32357 0.02016
891.03780 0.02032
889.75203 0.02054
888.46626 0.02084
887.18049 0.02130
885.89472 0.02202
884.60895 0.02312
883.32318 0.02458
882.03742 0.02627
880.75165 0.02795
879.46588 0.02942
878.18011 0.03061
876.89434 0.03163
875.60857 0.03266
874.32280 0.03372
873.03703 0.03464
871.75126 0.03514
870.46550 0.03505
869.17973 0.03442
867.89396 0.03335
866.60819 0.03196
865.32242 0.03031
864.03665 0.02856
862.75088 0.02691
861.46511 0.02549
860.17935 0.02431
858.89358 0.02334
857.60781 0.02256
856.32204 0.02197
855.03627 0.02154
853.75050 0.02119
852.46473 0.02090
851.17896 0.02067
849.89319 0.02047
848.60743 0.02029
847.32166 0.02011
846.03589 0.01995
844.75012 0.01982
843.46435 0.01970
842.17858 0.01958
840.89281 0.01945
839.60704 0.01933
838.32128 0.01926
837.03551 0.01922
835.74974 0.01921
834.46397 0.01919
833.17820 0.01917
831.89243 0.01912
830.60666 0.01899
829.32089 0.01880
828.03512 0.01865
826.74936 0.01862
825.46359 0.01868
824.17782 0.01873
822.89205 0.01868
821.60628 0.01857
820.32051 0.01847
819.03474 0.01846
817.74897 0.01851
816.46321 0.01857
815.17744 0.01856
813.89167 0.01847
812.60590 0.01834
811.32013 0.01822
810.03436 0.01816
808.74859 0.01818
807.46282 0.01826
806.17705 0.01839
804.89129 0.01851
803.60552 0.01859
802.31975 0.01860
801.03398 0.01853
799.74821 0.01841
798.46244 0.01832
797.17667 0.01829
795.89090 0.01830
794.60513 0.01832
793.31937 0.01834
792.03360 0.01841
790.74783 0.01847
789.46206 0.01844
788.17629 0.01831
786.89052 0.01815
785.60475 0.01809
784.31898 0.01813
783.03322 0.01822
781.74745 0.01827
780.46168 0.01831
779.17591 0.01838
777.89014 0.01852
776.60437 0.01868
775.31860 0.01877
774.03283 0.01873
772.74706 0.01861
771.46130 0.01852
770.17553 0.01849
768.88976 0.01847
767.60399 0.01842
766.31822 0.01833
765.03245 0.01824
763.74668 0.01817
762.46091 0.01812
761.17515 0.01811
759.88938 0.01820
758.60361 0.01838
757.31784 0.01855
756.03207 0.01859
754.74630 0.01851
753.46053 0.01842
752.17476 0.01838
750.88899 0.01840
749.60323 0.01843
748.31746 0.01842
747.03169 0.01835
745.74592 0.01821
744.46015 0.01809
743.17438 0.01808
741.88861 0.01821
740.60284 0.01846
739.31708 0.01873
738.03131 0.01892
736.74554 0.01889
735.45977 0.01862
734.17400 0.01823
732.88823 0.01794
731.60246 0.01786
730.31669 0.01797
729.03092 0.01815
727.74516 0.01832
726.45939 0.01846
725.17362 0.01857
723.88785 0.01863
722.60208 0.01865
721.31631 0.01863
720.03054 0.01861
718.74477 0.01858
717.45901 0.01853
716.17324 0.01850
714.88747 0.01850
713.60170 0.01853
712.31593 0.01860
711.03016 0.01867
709.74439 0.01871
708.45862 0.01869
707.17285 0.01863
705.88709 0.01859
704.60132 0.01861
703.31555 0.01866
702.02978 0.01866
700.74401 0.01861
699.45824 0.01857
698.17247 0.01859
696.88670 0.01867
695.60094 0.01875
694.31517 0.01879
693.02940 0.01878
691.74363 0.01876
690.45786 0.01875
689.17209 0.01878
687.88632 0.01883
686.60055 0.01886
685.31478 0.01887
684.02902 0.01883
682.74325 0.01876
681.45748 0.01869
680.17171 0.01863
678.88594 0.01860
677.60017 0.01858
676.31440 0.01859
675.02863 0.01868
673.74287 0.01887
672.45710 0.01911
671.17133 0.01931
669.88556 0.01944
668.59979 0.01952
667.31402 0.01958
666.02825 0.01955
664.74248 0.01942
663.45671 0.01924
662.17095 0.01906
660.88518 0.01895
659.59941 0.01890
658.31364 0.01887
657.02787 0.01885
655.74210 0.01885
654.45633 0.01890
653.17056 0.01898
651.88480 0.01908
650.59903 0.01913
649.31326 0.01911
648.02749 0.01906
646.74172 0.01904
645.45595 0.01909
644.17018 0.01922
642.88441 0.01942
641.59864 0.01966
640.31288 0.01990
639.02711 0.02008
637.74134 0.02019
636.45557 0.02030
635.16980 0.02050
633.88403 0.02081
632.59826 0.02112
631.31249 0.02153
630.02673 0.02294
628.74096 0.02494
627.45519 0.02388
626.16942 0.02665
624.88365 0.03242
623.59788 0.03856
622.31211 0.04360
621.02634 0.04640
619.74057 0.04655
618.45481 0.04465
617.16904 0.04204
615.88327 0.04020
614.59750 0.04035
613.31173 0.04304
612.02596 0.04765
610.74019 0.05238
609.45442 0.05571
608.16866 0.05791
606.88289 0.06036
605.59712 0.06346
604.31135 0.06617
603.02558 0.06726
601.73981 0.06655
600.45404 0.06472
599.16827 0.06250
597.88250 0.06031
596.59674 0.05824
595.31097 0.05626
594.02520 0.05450
592.73943 0.05315
591.45366 0.05235
590.16789 0.05199
588.88212 0.05192
587.59635 0.05213
586.31059 0.05271
585.02482 0.05368
583.73905 0.05495
582.45328 0.05632
581.16751 0.05770
579.88174 0.05908
578.59597 0.06050
577.31020 0.06198
576.02443 0.06353
574.73867 0.06509
573.45290 0.06664
572.16713 0.06825
570.88136 0.07001
569.59559 0.07196
568.30982 0.07401
567.02405 0.07600
565.73828 0.07777
564.45251 0.07913
563.16675 0.07985
561.88098 0.07971
560.59521 0.07855
559.30944 0.07637
558.02367 0.07335
556.73790 0.06981
555.45213 0.06609
554.16636 0.06240
552.88060 0.05886
551.59483 0.05548
550.30906 0.05235
549.02329 0.04950
547.73752 0.04698
546.45175 0.04475
545.16598 0.04275
543.88021 0.04092
542.59444 0.03919
541.30868 0.03754
540.02291 0.03599
538.73714 0.03461
537.45137 0.03350
536.16560 0.03263
534.87983 0.03186
533.59406 0.03105
532.30829 0.03019
531.02253 0.02939
529.73676 0.02869
528.45099 0.02805
527.16522 0.02739
525.87945 0.02678
524.59368 0.02631
523.30791 0.02598
522.02214 0.02567
520.73637 0.02528
519.45061 0.02480
518.16484 0.02433
516.87907 0.02390
515.59330 0.02348
514.30753 0.02303
513.02176 0.02254
511.73599 0.02211
510.45022 0.02180
509.16446 0.02158
507.87869 0.02138
506.59292 0.02118
505.30715 0.02096
504.02138 0.02073
502.73561 0.02045
501.44984 0.02016
500.16407 0.01991
498.87830 0.01975
497.59254 0.01966
496.30677 0.01959
495.02100 0.01950
493.73523 0.01937
492.44946 0.01918
491.16369 0.01892
489.87792 0.01859
488.59215 0.01826
487.30639 0.01801
486.02062 0.01789
484.73485 0.01793
483.44908 0.01812
482.16331 0.01837
480.87754 0.01856
479.59177 0.01859
478.30600 0.01850
477.02023 0.01842
475.73447 0.01845
474.44870 0.01859
473.16293 0.01875
471.87716 0.01884
470.59139 0.01881
469.30562 0.01869
468.01985 0.01854
466.73408 0.01845
465.44832 0.01845
464.16255 0.01844
462.87678 0.01836
461.59101 0.01819
460.30524 0.01798
459.01947 0.01778
457.73370 0.01756
456.44793 0.01735
455.16216 0.01717
453.87640 0.01707
452.59063 0.01703
451.30486 0.01698
450.01909 0.01686
448.73332 0.01664
447.44755 0.01641
446.16178 0.01621
444.87601 0.01608
443.59025 0.01598
442.30448 0.01585
441.01871 0.01569
439.73294 0.01556
438.44717 0.01546
437.16140 0.01542
435.87563 0.01542
434.58986 0.01543
433.30409 0.01543
432.01833 0.01537
430.73256 0.01527
429.44679 0.01516
428.16102 0.01508
426.87525 0.01504
425.58948 0.01502
424.30371 0.01499
423.01794 0.01490
421.73218 0.01480
420.44641 0.01472
419.16064 0.01467
417.87487 0.01465
416.58910 0.01460
415.30333 0.01455
414.01756 0.01456
412.73179 0.01460
411.44602 0.01465
410.16026 0.01464
408.87449 0.01459
407.58872 0.01458
406.30295 0.01463
405.01718 0.01476
403.73141 0.01489
402.44564 0.01498
401.15987 0.01501
399.87411 0.01502
