3997.45528 0.03542
3996.16951 0.03717
3994.88374 0.03804
3993.59798 0.03756
3992.31221 0.03608
3991.02644 0.03433
3989.74067 0.03295
3988.45490 0.03233
3987.16913 0.03263
3985.88336 0.03355
3984.59759 0.03438
3983.31183 0.03444
3982.02606 0.03375
3980.74029 0.03293
3979.45452 0.03258
3978.16875 0.03278
3976.88298 0.03323
3975.59721 0.03378
3974.31144 0.03437
3973.02567 0.03475
3971.73991 0.03445
3970.45414 0.03330
3969.16837 0.03185
3967.88260 0.03114
3966.59683 0.03184
3965.31106 0.03372
3964.02529 0.03577
3962.73952 0.03695
3961.45376 0.03699
3960.16799 0.03655
3958.88222 0.03650
3957.59645 0.03710
3956.31068 0.03783
3955.02491 0.03789
3953.73914 0.03697
3952.45337 0.03562
3951.16760 0.03476
3949.88184 0.03482
3948.59607 0.03546
3947.31030 0.03604
3946.02453 0.03623
3944.73876 0.03607
3943.45299 0.03581
3942.16722 0.03571
3940.88145 0.03593
3939.59569 0.03627
3938.30992 0.03641
3937.02415 0.03623
3935.73838 0.03594
3934.45261 0.03576
3933.16684 0.03570
3931.88107 0.03564
3930.59530 0.03549
3929.30953 0.03528
3928.02377 0.03509
3926.73800 0.03509
3925.45223 0.03545
3924.16646 0.03607
3922.88069 0.03640
3921.59492 0.03600
3920.30915 0.03497
3919.02338 0.03391
3917.73762 0.03327
3916.45185 0.03296
3915.16608 0.03265
3913.88031 0.03222
3912.59454 0.03193
3911.30877 0.03213
3910.02300 0.03277
3908.73723 0.03336
3907.45146 0.03338
3906.16570 0.03285
3904.87993 0.03230
3903.59416 0.03228
3902.30839 0.03278
3901.02262 0.03340
3899.73685 0.03386
3898.45108 0.03417
3897.16531 0.03443
3895.87955 0.03465
3894.59378 0.03486
3893.30801 0.03513
3892.02224 0.03543
3890.73647 0.03556
3889.45070 0.03518
3888.16493 0.03414
3886.87916 0.03287
3885.59339 0.03222
3884.30763 0.03262
3883.02186 0.03363
3881.73609 0.03435
3880.45032 0.03430
3879.16455 0.03370
3877.87878 0.03299
3876.59301 0.03232
3875.30724 0.03165
3874.02148 0.03116
3872.73571 0.03118
3871.44994 0.03182
3870.16417 0.03252
3868.87840 0.03243
3867.59263 0.03118
3866.30686 0.02945
3865.02109 0.02840
3863.73532 0.02844
3862.44956 0.02906
3861.16379 0.02959
3859.87802 0.02993
3858.59225 0.03036
3857.30648 0.03109
3856.02071 0.03213
3854.73494 0.03327
3853.44917 0.03423
3852.16341 0.03482
3850.87764 0.03505
3849.59187 0.03516
3848.30610 0.03525
3847.02033 0.03522
3845.73456 0.03514
3844.44879 0.03526
3843.16302 0.03565
3841.87725 0.03591
3840.59149 0.03550
3839.30572 0.03433
3838.01995 0.03286
3836.73418 0.03160
3835.44841 0.03084
3834.16264 0.03081
3832.87687 0.03165
3831.59110 0.03308
3830.30534 0.03433
3829.01957 0.03476
3827.73380 0.03430
3826.44803 0.03336
3825.16226 0.03232
3823.87649 0.03145
3822.59072 0.03103
3821.30495 0.03115
3820.01918 0.03154
3818.73342 0.03170
3817.44765 0.03152
3816.16188 0.03138
3814.87611 0.03154
3813.59034 0.03183
3812.30457 0.03202
3811.01880 0.03214
3809.73303 0.03225
3808.44726 0.03223
3807.16150 0.03194
3805.87573 0.03139
3804.58996 0.03089
3803.30419 0.03096
3802.01842 0.03194
3800.73265 0.03353
3799.44688 0.03499
3798.16111 0.03573
3796.87535 0.03568
3795.58958 0.03480
3794.30381 0.03302
3793.01804 0.03067
3791.73227 0.02866
3790.44650 0.02784
3789.16073 0.02832
3787.87496 0.02962
3786.58919 0.03115
3785.30343 0.03243
3784.01766 0.03300
3782.73189 0.03255
3781.44612 0.03129
3780.16035 0.03006
3778.87458 0.02963
3777.58881 0.03004
3776.30304 0.03066
3775.01728 0.03088
3773.73151 0.03065
3772.44574 0.03045
3771.15997 0.03087
3769.87420 0.03204
3768.58843 0.03343
3767.30266 0.03410
3766.01689 0.03353
3764.73112 0.03204
3763.44536 0.03061
3762.15959 0.03003
3760.87382 0.03037
3759.58805 0.03109
3758.30228 0.03164
3757.01651 0.03185
3755.73074 0.03178
3754.44497 0.03146
3753.15921 0.03105
3751.87344 0.03089
3750.58767 0.03095
3749.30190 0.03081
3748.01613 0.03010
3746.73036 0.02889
3745.44459 0.02772
3744.15882 0.02708
3742.87305 0.02707
3741.58729 0.02756
3740.30152 0.02869
3739.01575 0.03056
3737.72998 0.03287
3736.44421 0.03497
3735.15844 0.03626
3733.87267 0.03646
3732.58690 0.03576
3731.30114 0.03459
3730.01537 0.03319
3728.72960 0.03157
3727.44383 0.02990
3726.15806 0.02872
3724.87229 0.02851
3723.58652 0.02926
3722.30075 0.03047
3721.01498 0.03156
3719.72922 0.03216
3718.44345 0.03219
3717.15768 0.03168
3715.87191 0.03080
3714.58614 0.02993
3713.30037 0.02960
3712.01460 0.02984
3710.72883 0.02998
3709.44307 0.02947
3708.15730 0.02866
3706.87153 0.02843
3705.58576 0.02908
3704.29999 0.02992
3703.01422 0.03012
3701.72845 0.02947
3700.44268 0.02841
3699.15691 0.02754
3697.87115 0.02720
3696.58538 0.02738
3695.29961 0.02779
3694.01384 0.02804
3692.72807 0.02807
3691.44230 0.02817
3690.15653 0.02867
3688.87076 0.02956
3687.58500 0.03047
3686.29923 0.03095
3685.01346 0.03082
3683.72769 0.03021
3682.44192 0.02937
3681.15615 0.02859
3679.87038 0.02818
3678.58461 0.02827
3677.29884 0.02870
3676.01308 0.02926
3674.72731 0.02975
3673.44154 0.02999
3672.15577 0.03006
3670.87000 0.03038
3669.58423 0.03114
3668.29846 0.03196
3667.01269 0.03230
3665.72693 0.03195
3664.44116 0.03096
3663.15539 0.02946
3661.86962 0.02792
3660.58385 0.02707
3659.29808 0.02725
3658.01231 0.02817
3656.72654 0.02922
3655.44077 0.02989
3654.15501 0.02998
3652.86924 0.02955
3651.58347 0.02900
3650.29770 0.02875
3649.01193 0.02892
3647.72616 0.02926
3646.44039 0.02940
3645.15462 0.02924
3643.86886 0.02912
3642.58309 0.02954
3641.29732 0.03060
3640.01155 0.03180
3638.72578 0.03254
3637.44001 0.03267
3636.15424 0.03247
3634.86847 0.03225
3633.58270 0.03217
3632.29694 0.03222
3631.01117 0.03233
3629.72540 0.03257
3628.43963 0.03303
3627.15386 0.03357
3625.86809 0.03386
3624.58232 0.03370
3623.29655 0.03314
3622.01079 0.03239
3620.72502 0.03174
3619.43925 0.03152
3618.15348 0.03175
3616.86771 0.03200
3615.58194 0.03191
3614.29617 0.03170
3613.01040 0.03178
3611.72463 0.03212
3610.43887 0.03236
3609.15310 0.03250
3607.86733 0.03297
3606.58156 0.03393
3605.29579 0.03494
3604.01002 0.03534
3602.72425 0.03486
3601.43848 0.03375
3600.15272 0.03268
3598.86695 0.03227
3597.58118 0.03265
3596.29541 0.03332
3595.00964 0.03372
3593.72387 0.03373
3592.43810 0.03369
3591.15233 0.03386
3589.86656 0.03414
3588.58080 0.03437
3587.29503 0.03449
3586.00926 0.03461
3584.72349 0.03475
3583.43772 0.03475
3582.15195 0.03449
3580.86618 0.03409
3579.58041 0.03399
3578.29464 0.03456
3577.00888 0.03565
3575.72311 0.03670
3574.43734 0.03707
3573.15157 0.03660
3571.86580 0.03570
3570.58003 0.03497
3569.29426 0.03477
3568.00849 0.03508
3566.72273 0.03568
3565.43696 0.03638
3564.15119 0.03697
3562.86542 0.03717
3561.57965 0.03700
3560.29388 0.03690
3559.00811 0.03736
3557.72234 0.03830
3556.43657 0.03906
3555.15081 0.03909
3553.86504 0.03861
3552.57927 0.03831
3551.29350 0.03859
3550.00773 0.03912
3548.72196 0.03927
3547.43619 0.03895
3546.15042 0.03864
3544.86466 0.03875
3543.57889 0.03913
3542.29312 0.03940
3541.00735 0.03955
3539.72158 0.03980
3538.43581 0.04022
3537.15004 0.04046
3535.86427 0.04026
3534.57850 0.03967
3533.29274 0.03907
3532.00697 0.03873
3530.72120 0.03871
3529.43543 0.03887
3528.14966 0.03905
3526.86389 0.03919
3525.57812 0.03940
3524.29235 0.03980
3523.00659 0.04035
3521.72082 0.04081
3520.43505 0.04098
3519.14928 0.04083
3517.86351 0.04046
3516.57774 0.04002
3515.29197 0.03978
3514.00620 0.03999
3512.72043 0.04059
3511.43467 0.04120
3510.14890 0.04144
3508.86313 0.04130
3507.57736 0.04107
3506.29159 0.04095
3505.00582 0.04106
3503.72005 0.04140
3502.43428 0.04182
3501.14852 0.04212
3499.86275 0.04226
3498.57698 0.04233
3497.29121 0.04239
3496.00544 0.04233
3494.71967 0.04216
3493.43390 0.04205
3492.14813 0.04212
3490.86236 0.04231
3489.57660 0.04249
3488.29083 0.04260
3487.00506 0.04270
3485.71929 0.04295
3484.43352 0.04348
3483.14775 0.04428
3481.86198 0.04514
3480.57621 0.04582
3479.29045 0.04628
3478.00468 0.04647
3476.71891 0.04633
3475.43314 0.04590
3474.14737 0.04545
3472.86160 0.04531
3471.57583 0.04549
3470.29006 0.04576
3469.00429 0.04595
3467.71853 0.04604
3466.43276 0.04602
3465.14699 0.04585
3463.86122 0.04564
3462.57545 0.04565
3461.28968 0.04590
3460.00391 0.04608
3458.71814 0.04589
3457.43238 0.04539
3456.14661 0.04504
3454.86084 0.04526
3453.57507 0.04598
3452.28930 0.04656
3451.00353 0.04645
3449.71776 0.04575
3448.43199 0.04514
3447.14622 0.04509
3445.86046 0.04534
3444.57469 0.04536
3443.28892 0.04504
3442.00315 0.04475
3440.71738 0.04488
3439.43161 0.04535
3438.14584 0.04582
3436.86007 0.04610
3435.57431 0.04628
3434.28854 0.04655
3433.00277 0.04698
3431.71700 0.04745
3430.43123 0.04787
3429.14546 0.04814
3427.85969 0.04813
3426.57392 0.04782
3425.28815 0.04740
3424.00239 0.04712
3422.71662 0.04705
3421.43085 0.04704
3420.14508 0.04706
3418.85931 0.04727
3417.57354 0.04779
3416.28777 0.04846
3415.00200 0.04898
3413.71624 0.04928
3412.43047 0.04947
3411.14470 0.04957
3409.85893 0.04946
3408.57316 0.04913
3407.28739 0.04879
3406.00162 0.04868
3404.71585 0.04887
3403.43008 0.04921
3402.14432 0.04960
3400.85855 0.05014
3399.57278 0.05089
3398.28701 0.05167
3397.00124 0.05208
3395.71547 0.05192
3394.42970 0.05139
3393.14393 0.05097
3391.85817 0.05094
3390.57240 0.05110
3389.28663 0.05106
3388.00086 0.05067
3386.71509 0.05008
3385.42932 0.04956
3384.14355 0.04926
3382.85778 0.04928
3381.57201 0.04967
3380.28625 0.05027
3379.00048 0.05070
3377.71471 0.05063
3376.42894 0.05011
3375.14317 0.04944
3373.85740 0.04901
3372.57163 0.04906
3371.28586 0.04961
3370.00010 0.05038
3368.71433 0.05100
3367.42856 0.05120
3366.14279 0.05103
3364.85702 0.05071
3363.57125 0.05049
3362.28548 0.05051
3360.99971 0.05071
3359.71394 0.05091
3358.42818 0.05101
3357.14241 0.05108
3355.85664 0.05131
3354.57087 0.05175
3353.28510 0.05221
3351.99933 0.05233
3350.71356 0.05194
3349.42779 0.05122
3348.14202 0.05049
3346.85626 0.05001
3345.57049 0.04986
3344.28472 0.04999
3342.99895 0.05029
3341.71318 0.05062
3340.42741 0.05091
3339.14164 0.05111
3337.85587 0.05123
3336.57011 0.05132
3335.28434 0.05153
3333.99857 0.05186
3332.71280 0.05211
3331.42703 0.05206
3330.14126 0.05179
3328.85549 0.05159
3327.56972 0.05168
3326.28395 0.05198
3324.99819 0.05230
3323.71242 0.05249
3322.42665 0.05254
3321.14088 0.05256
3319.85511 0.05257
3318.56934 0.05244
3317.28357 0.05208
3315.99780 0.05159
3314.71204 0.05130
3313.42627 0.05152
3312.14050 0.05229
3310.85473 0.05327
3309.56896 0.05399
3308.28319 0.05422
3306.99742 0.05413
3305.71165 0.05399
3304.42588 0.05393
3303.14012 0.05386
3301.85435 0.05369
3300.56858 0.05343
3299.28281 0.05324
3297.99704 0.05323
3296.71127 0.05334
3295.42550 0.05337
3294.13973 0.05319
3292.85397 0.05293
3291.56820 0.05290
3290.28243 0.05323
3288.99666 0.05365
3287.71089 0.05376
3286.42512 0.05344
3285.13935 0.05291
3283.85358 0.05242
3282.56781 0.05202
3281.28205 0.05172
3279.99628 0.05162
3278.71051 0.05169
3277.42474 0.05175
3276.13897 0.05171
3274.85320 0.05170
3273.56743 0.05184
3272.28166 0.05211
3270.99590 0.05245
3269.71013 0.05278
3268.42436 0.05304
3267.13859 0.05317
3265.85282 0.05325
3264.56705 0.05333
3263.28128 0.05340
3261.99551 0.05338
3260.70974 0.05340
3259.42398 0.05369
3258.13821 0.05422
3256.85244 0.05461
3255.56667 0.05441
3254.28090 0.05352
3252.99513 0.05237
3251.70936 0.05151
3250.42359 0.05121
3249.13783 0.05125
3247.85206 0.05123
3246.56629 0.05098
3245.28052 0.05067
3243.99475 0.05059
3242.70898 0.05076
3241.42321 0.05097
3240.13744 0.05102
3238.85167 0.05092
3237.56591 0.05079
3236.28014 0.05071
3234.99437 0.05063
3233.70860 0.05054
3232.42283 0.05050
3231.13706 0.05057
3229.85129 0.05075
3228.56552 0.05097
3227.27976 0.05111
3225.99399 0.05115
3224.70822 0.05112
3223.42245 0.05105
3222.13668 0.05095
3220.85091 0.05084
3219.56514 0.05079
3218.27937 0.05077
3216.99360 0.05066
3215.70784 0.05039
3214.42207 0.05000
3213.13630 0.04956
3211.85053 0.04906
3210.56476 0.04857
3209.27899 0.04820
3207.99322 0.04805
3206.70745 0.04808
3205.42169 0.04813
3204.13592 0.04807
3202.85015 0.04785
3201.56438 0.04756
3200.27861 0.04737
3198.99284 0.04742
3197.70707 0.04768
3196.42130 0.04805
3195.13553 0.04844
3193.84977 0.04880
3192.56400 0.04905
3191.27823 0.04910
3189.99246 0.04885
3188.70669 0.04835
3187.42092 0.04779
3186.13515 0.04737
3184.84938 0.04726
3183.56362 0.04743
3182.27785 0.04777
3180.99208 0.04806
3179.70631 0.04805
3178.42054 0.04765
3177.13477 0.04701
3175.84900 0.04644
3174.56323 0.04614
3173.27746 0.04607
3171.99170 0.04607
3170.70593 0.04607
3169.42016 0.04606
3168.13439 0.04606
3166.84862 0.04610
3165.56285 0.04617
3164.27708 0.04621
3162.99131 0.04608
3161.70555 0.04577
3160.41978 0.04547
3159.13401 0.04542
3157.84824 0.04565
3156.56247 0.04596
3155.27670 0.04609
3153.99093 0.04592
3152.70516 0.04547
3151.41939 0.04484
3150.13363 0.04419
3148.84786 0.04378
3147.56209 0.04381
3146.27632 0.04424
3144.99055 0.04484
3143.70478 0.04539
3142.41901 0.04577
3141.13324 0.04595
3139.84748 0.04591
3138.56171 0.04567
3137.27594 0.04532
3135.99017 0.04493
3134.70440 0.04451
3133.41863 0.04403
3132.13286 0.04353
3130.84709 0.04319
3129.56132 0.04319
3128.27556 0.04355
3126.98979 0.04402
3125.70402 0.04436
3124.41825 0.04451
3123.13248 0.04458
3121.84671 0.04457
3120.56094 0.04434
3119.27517 0.04387
3117.98940 0.04333
3116.70364 0.04296
3115.41787 0.04278
3114.13210 0.04271
3112.84633 0.04264
3111.56056 0.04256
3110.27479 0.04247
3108.98902 0.04238
3107.70325 0.04233
3106.41749 0.04241
3105.13172 0.04264
3103.84595 0.04289
3102.56018 0.04301
3101.27441 0.04298
3099.98864 0.04294
3098.70287 0.04303
3097.41710 0.04325
3096.13133 0.04346
3094.84557 0.04353
3093.55980 0.04344
3092.27403 0.04331
3090.98826 0.04326
3089.70249 0.04333
3088.41672 0.04346
3087.13095 0.04355
3085.84518 0.04350
3084.55942 0.04326
3083.27365 0.04291
3081.98788 0.04261
3080.70211 0.04244
3079.41634 0.04232
3078.13057 0.04212
3076.84480 0.04190
3075.55903 0.04194
3074.27326 0.04243
3072.98750 0.04320
3071.70173 0.04381
3070.41596 0.04393
3069.13019 0.04364
3067.84442 0.04325
3066.55865 0.04297
3065.27288 0.04276
3063.98711 0.04249
3062.70135 0.04218
3061.41558 0.04210
3060.12981 0.04243
3058.84404 0.04303
3057.55827 0.04345
3056.27250 0.04339
3054.98673 0.04297
3053.70096 0.04252
3052.41519 0.04222
3051.12943 0.04202
3049.84366 0.04181
3048.55789 0.04157
3047.27212 0.04135
3045.98635 0.04114
3044.70058 0.04097
3043.41481 0.04084
3042.12904 0.04077
3040.84328 0.04074
3039.55751 0.04073
3038.27174 0.04066
3036.98597 0.04049
3035.70020 0.04027
3034.41443 0.04015
3033.12866 0.04028
3031.84289 0.04064
3030.55712 0.04106
3029.27136 0.04133
3027.98559 0.04131
3026.69982 0.04100
3025.41405 0.04047
3024.12828 0.03994
3022.84251 0.03959
3021.55674 0.03945
3020.27097 0.03946
3018.98521 0.03952
3017.69944 0.03958
3016.41367 0.03959
3015.12790 0.03955
3013.84213 0.03952
3012.55636 0.03960
3011.27059 0.03975
3009.98482 0.03977
3008.69905 0.03961
3007.41329 0.03939
3006.12752 0.03924
3004.84175 0.03915
3003.55598 0.03906
3002.27021 0.03898
3000.98444 0.03901
2999.69867 0.03911
2998.41290 0.03913
2997.12714 0.03898
2995.84137 0.03883
2994.55560 0.03886
2993.26983 0.03905
2991.98406 0.03916
2990.69829 0.03907
2989.41252 0.03897
2988.12675 0.03912
2986.84098 0.03955
2985.55522 0.04006
2984.26945 0.04039
2982.98368 0.04045
2981.69791 0.04033
2980.41214 0.04022
2979.12637 0.04028
2977.84060 0.04055
2976.55483 0.04094
2975.26907 0.04130
2973.98330 0.04145
2972.69753 0.04124
2971.41176 0.04066
2970.12599 0.03991
2968.84022 0.03936
2967.55445 0.03926
2966.26868 0.03958
2964.98291 0.04011
2963.69715 0.04067
2962.41138 0.04118
2961.12561 0.04160
2959.83984 0.04188
2958.55407 0.04204
2957.26830 0.04212
2955.98253 0.04221
2954.69676 0.04228
2953.41100 0.04219
2952.12523 0.04176
2950.83946 0.04103
2949.55369 0.04031
2948.26792 0.04005
2946.98215 0.04042
2945.69638 0.04118
2944.41061 0.04189
2943.12484 0.04220
2941.83908 0.04212
2940.55331 0.04188
2939.26754 0.04172
2937.98177 0.04166
2936.69600 0.04159
2935.41023 0.04152
2934.12446 0.04158
2932.83869 0.04179
2931.55293 0.04198
2930.26716 0.04187
2928.98139 0.04143
2927.69562 0.04086
2926.40985 0.04050
2925.12408 0.04048
2923.83831 0.04070
2922.55254 0.04089
2921.26677 0.04081
2919.98101 0.04047
2918.69524 0.04012
2917.40947 0.03996
2916.12370 0.03991
2914.83793 0.03977
2913.55216 0.03948
2912.26639 0.03918
2910.98062 0.03904
2909.69486 0.03903
2908.40909 0.03900
2907.12332 0.03889
2905.83755 0.03876
2904.55178 0.03872
2903.26601 0.03876
2901.98024 0.03875
2900.69447 0.03859
2899.40870 0.03831
2898.12294 0.03811
2896.83717 0.03813
2895.55140 0.03837
2894.26563 0.03862
2892.97986 0.03868
2891.69409 0.03854
2890.40832 0.03831
2889.12255 0.03817
2887.83678 0.03820
2886.55102 0.03836
2885.26525 0.03853
2883.97948 0.03858
2882.69371 0.03850
2881.40794 0.03838
2880.12217 0.03829
2878.83640 0.03820
2877.55063 0.03809
2876.26487 0.03796
2874.97910 0.03784
2873.69333 0.03786
2872.40756 0.03808
2871.12179 0.03840
2869.83602 0.03857
2868.55025 0.03844
2867.26448 0.03806
2865.97871 0.03763
2864.69295 0.03724
2863.40718 0.03690
2862.12141 0.03657
2860.83564 0.03628
2859.54987 0.03610
2858.26410 0.03612
2856.97833 0.03626
2855.69256 0.03633
2854.40680 0.03617
2853.12103 0.03578
2851.83526 0.03530
2850.54949 0.03488
2849.26372 0.03459
2847.97795 0.03443
2846.69218 0.03434
2845.40641 0.03434
2844.12064 0.03452
2842.83488 0.03481
2841.54911 0.03504
2840.26334 0.03512
2838.97757 0.03507
2837.69180 0.03501
2836.40603 0.03496
2835.12026 0.03492
2833.83449 0.03487
2832.54873 0.03482
2831.26296 0.03480
2829.97719 0.03482
2828.69142 0.03485
2827.40565 0.03479
2826.11988 0.03451
2824.83411 0.03402
2823.54834 0.03354
2822.26257 0.03332
2820.97681 0.03340
2819.69104 0.03361
2818.40527 0.03371
2817.11950 0.03361
2815.83373 0.03338
2814.54796 0.03316
2813.26219 0.03300
2811.97642 0.03282
2810.69066 0.03253
2809.40489 0.03227
2808.11912 0.03227
2806.83335 0.03253
2805.54758 0.03282
2804.26181 0.03289
2802.97604 0.03277
2801.69027 0.03265
2800.40450 0.03263
2799.11874 0.03261
2797.83297 0.03250
2796.54720 0.03238
2795.26143 0.03239
2793.97566 0.03257
2792.68989 0.03276
2791.40412 0.03270
2790.11835 0.03230
2788.83259 0.03174
2787.54682 0.03131
2786.26105 0.03121
2784.97528 0.03138
2783.68951 0.03162
2782.40374 0.03173
2781.11797 0.03166
2779.83220 0.03144
2778.54643 0.03120
2777.26067 0.03114
2775.97490 0.03135
2774.68913 0.03167
2773.40336 0.03183
2772.11759 0.03169
2770.83182 0.03147
2769.54605 0.03138
2768.26028 0.03141
2766.97452 0.03137
2765.68875 0.03118
2764.40298 0.03094
2763.11721 0.03077
2761.83144 0.03065
2760.54567 0.03049
2759.25990 0.03030
2757.97413 0.03018
2756.68836 0.03018
2755.40260 0.03027
2754.11683 0.03039
2752.83106 0.03048
2751.54529 0.03053
2750.25952 0.03061
2748.97375 0.03078
2747.68798 0.03103
2746.40221 0.03124
2745.11645 0.03126
2743.83068 0.03106
2742.54491 0.03078
2741.25914 0.03052
2739.97337 0.03034
2738.68760 0.03017
2737.40183 0.02998
2736.11606 0.02981
2734.83029 0.02975
2733.54453 0.02981
2732.25876 0.02994
2730.97299 0.03002
2729.68722 0.02993
2728.40145 0.02967
2727.11568 0.02939
2725.82991 0.02928
2724.54414 0.02940
2723.25838 0.02963
2721.97261 0.02978
2720.68684 0.02981
2719.40107 0.02978
2718.11530 0.02974
2716.82953 0.02967
2715.54376 0.02951
2714.25799 0.02925
2712.97222 0.02896
2711.68646 0.02875
2710.40069 0.02866
2709.11492 0.02867
2707.82915 0.02874
2706.54338 0.02889
2705.25761 0.02913
2703.97184 0.02938
2702.68607 0.02955
2701.40031 0.02956
2700.11454 0.02939
2698.82877 0.02908
2697.54300 0.02871
2696.25723 0.02841
2694.97146 0.02822
2693.68569 0.02814
2692.39992 0.02809
2691.11415 0.02804
2689.82839 0.02796
2688.54262 0.02788
2687.25685 0.02781
2685.97108 0.02778
2684.68531 0.02775
2683.39954 0.02764
2682.11377 0.02750
2680.82800 0.02739
2679.54224 0.02738
2678.25647 0.02746
2676.97070 0.02761
2675.68493 0.02784
2674.39916 0.02807
2673.11339 0.02822
2671.82762 0.02825
2670.54185 0.02820
2669.25608 0.02817
2667.97032 0.02820
2666.68455 0.02825
2665.39878 0.02823
2664.11301 0.02806
2662.82724 0.02782
2661.54147 0.02762
2660.25570 0.02745
2658.96993 0.02726
2657.68417 0.02700
2656.39840 0.02675
2655.11263 0.02657
2653.82686 0.02645
2652.54109 0.02638
2651.25532 0.02636
2649.96955 0.02640
2648.68378 0.02644
2647.39801 0.02643
2646.11225 0.02634
2644.82648 0.02625
2643.54071 0.02619
2642.25494 0.02619
2640.96917 0.02622
2639.68340 0.02624
2638.39763 0.02609
2637.11186 0.02564
2635.82609 0.02491
2634.54033 0.02420
2633.25456 0.02382
2631.96879 0.02387
2630.68302 0.02420
2629.39725 0.02455
2628.11148 0.02468
2626.82571 0.02453
2625.53994 0.02424
2624.25418 0.02400
2622.96841 0.02391
2621.68264 0.02397
2620.39687 0.02412
2619.11110 0.02421
2617.82533 0.02413
2616.53956 0.02390
2615.25379 0.02373
2613.96802 0.02375
2612.68226 0.02385
2611.39649 0.02385
2610.11072 0.02374
2608.82495 0.02369
2607.53918 0.02378
2606.25341 0.02386
2604.96764 0.02373
2603.68187 0.02337
2602.39611 0.02299
2601.11034 0.02280
2599.82457 0.02287
2598.53880 0.02313
2597.25303 0.02343
2595.96726 0.02366
2594.68149 0.02377
2593.39572 0.02381
2592.10995 0.02382
2590.82419 0.02376
2589.53842 0.02352
2588.25265 0.02314
2586.96688 0.02277
2585.68111 0.02250
2584.39534 0.02230
2583.10957 0.02209
2581.82380 0.02191
2580.53804 0.02184
2579.25227 0.02185
2577.96650 0.02185
2576.68073 0.02179
2575.39496 0.02171
2574.10919 0.02172
2572.82342 0.02187
2571.53765 0.02203
2570.25188 0.02194
2568.96612 0.02150
2567.68035 0.02104
2566.39458 0.02101
2565.10881 0.02156
2563.82304 0.02237
2562.53727 0.02297
2561.25150 0.02308
2559.96573 0.02269
2558.67997 0.02193
2557.39420 0.02111
2556.10843 0.02062
2554.82266 0.02071
2553.53689 0.02132
2552.25112 0.02201
2550.96535 0.02237
2549.67958 0.02228
2548.39381 0.02201
2547.10805 0.02192
2545.82228 0.02216
2544.53651 0.02252
2543.25074 0.02259
2541.96497 0.02214
2540.67920 0.02132
2539.39343 0.02049
2538.10766 0.01992
2536.82190 0.01977
2535.53613 0.02007
2534.25036 0.02068
2532.96459 0.02131
2531.67882 0.02168
2530.39305 0.02169
2529.10728 0.02146
2527.82151 0.02117
2526.53574 0.02097
2525.24998 0.02098
2523.96421 0.02130
2522.67844 0.02183
2521.39267 0.02225
2520.10690 0.02219
2518.82113 0.02166
2517.53536 0.02104
2516.24959 0.02073
2514.96383 0.02078
2513.67806 0.02098
2512.39229 0.02111
2511.10652 0.02116
2509.82075 0.02122
2508.53498 0.02133
2507.24921 0.02149
2505.96344 0.02159
2504.67767 0.02153
2503.39191 0.02120
2502.10614 0.02070
2500.82037 0.02030
2499.53460 0.02028
2498.24883 0.02066
2496.96306 0.02115
2495.67729 0.02140
2494.39152 0.02133
2493.10576 0.02116
2491.81999 0.02116
2490.53422 0.02138
2489.24845 0.02169
2487.96268 0.02188
2486.67691 0.02181
2485.39114 0.02154
2484.10537 0.02121
2482.81960 0.02095
2481.53384 0.02073
2480.24807 0.02051
2478.96230 0.02032
2477.67653 0.02031
2476.39076 0.02047
2475.10499 0.02061
2473.81922 0.02053
2472.53345 0.02024
2471.24769 0.01993
2469.96192 0.01981
2468.67615 0.01997
2467.39038 0.02031
2466.10461 0.02062
2464.81884 0.02068
2463.53307 0.02051
2462.24730 0.02035
2460.96153 0.02046
2459.67577 0.02085
2458.39000 0.02128
2457.10423 0.02149
2455.81846 0.02145
2454.53269 0.02139
2453.24692 0.02149
2451.96115 0.02164
2450.67538 0.02169
2449.38962 0.02170
2448.10385 0.02178
2446.81808 0.02189
2445.53231 0.02175
2444.24654 0.02125
2442.96077 0.02066
2441.67500 0.02032
2440.38923 0.02023
2439.10346 0.02012
2437.81770 0.01986
2436.53193 0.01966
2435.24616 0.01977
2433.96039 0.02018
2432.67462 0.02065
2431.38885 0.02095
2430.10308 0.02101
2428.81731 0.02091
2427.53155 0.02078
2426.24578 0.02070
2424.96001 0.02064
2423.67424 0.02055
2422.38847 0.02043
2421.10270 0.02024
2419.81693 0.01999
2418.53116 0.01970
2417.24539 0.01943
2415.95963 0.01924
2414.67386 0.01914
2413.38809 0.01909
2412.10232 0.01904
2410.81655 0.01898
2409.53078 0.01902
2408.24501 0.01929
2406.95924 0.01974
2405.67347 0.02008
2404.38771 0.02006
2403.10194 0.01974
2401.81617 0.01939
2400.53040 0.01923
2399.24463 0.01919
2397.95886 0.01913
2396.67309 0.01900
2395.38732 0.01891
2394.10156 0.01897
2392.81579 0.01915
2391.53002 0.01933
2390.24425 0.01940
2388.95848 0.01936
2387.67271 0.01930
2386.38694 0.01934
2385.10117 0.01956
2383.81540 0.01993
2382.52964 0.02036
2381.24387 0.02074
2379.95810 0.02097
2378.67233 0.02112
2377.38656 0.02118
2376.10079 0.02105
2374.81502 0.02077
2373.52925 0.02063
2372.24349 0.02053
2370.95772 0.02026
2369.67195 0.01996
2368.38618 0.01987
2367.10041 0.02014
2365.81464 0.02066
2364.52887 0.02116
2363.24310 0.02144
2361.95733 0.02141
2360.67157 0.02111
2359.38580 0.02063
2358.10003 0.02017
2356.81426 0.01988
2355.52849 0.01972
2354.24272 0.01963
2352.95695 0.01960
2351.67118 0.01980
2350.38542 0.01997
2349.09965 0.01989
2347.81388 0.01978
2346.52811 0.01980
2345.24234 0.01986
2343.95657 0.01988
2342.67080 0.01968
2341.38503 0.01982
2340.09926 0.01997
2338.81350 0.01967
2337.52773 0.01931
2336.24196 0.01956
2334.95619 0.01993
2333.67042 0.02004
2332.38465 0.01979
2331.09888 0.01992
2329.81311 0.01963
2328.52735 0.01921
2327.24158 0.01908
2325.95581 0.01894
2324.67004 0.01886
2323.38427 0.01869
2322.09850 0.01878
2320.81273 0.01886
2319.52696 0.01882
2318.24119 0.01873
2316.95543 0.01872
2315.66966 0.01867
2314.38389 0.01845
2313.09812 0.01819
2311.81235 0.01796
2310.52658 0.01774
2309.24081 0.01757
2307.95504 0.01753
2306.66928 0.01761
2305.38351 0.01778
2304.09774 0.01796
2302.81197 0.01808
2301.52620 0.01811
2300.24043 0.01806
2298.95466 0.01794
2297.66889 0.01775
2296.38312 0.01746
2295.09736 0.01704
2293.81159 0.01658
2292.52582 0.01620
2291.24005 0.01591
2289.95428 0.01560
2288.66851 0.01515
2287.38274 0.01460
2286.09697 0.01423
2284.81121 0.01428
2283.52544 0.01480
2282.23967 0.01559
2280.95390 0.01632
2279.66813 0.01665
2278.38236 0.01647
2277.09659 0.01594
2275.81082 0.01534
2274.52505 0.01486
2273.23929 0.01455
2271.95352 0.01435
2270.66775 0.01425
2269.38198 0.01428
2268.09621 0.01446
2266.81044 0.01470
2265.52467 0.01482
2264.23890 0.01471
2262.95314 0.01457
2261.66737 0.01481
2260.38160 0.01563
2259.09583 0.01670
2257.81006 0.01740
2256.52429 0.01734
2255.23852 0.01658
2253.95275 0.01552
2252.66698 0.01450
2251.38122 0.01364
2250.09545 0.01294
2248.80968 0.01238
2247.52391 0.01198
2246.23814 0.01186
2244.95237 0.01196
2243.66660 0.01217
2242.38083 0.01241
2241.09507 0.01274
2239.80930 0.01315
2238.52353 0.01337
2237.23776 0.01323
2235.95199 0.01297
2234.66622 0.01316
2233.38045 0.01399
2232.09468 0.01489
2230.80891 0.01507
2229.52315 0.01436
2228.23738 0.01329
2226.95161 0.01240
2225.66584 0.01178
2224.38007 0.01122
2223.09430 0.01065
2221.80853 0.01020
2220.52276 0.00987
2219.23700 0.00946
2217.95123 0.00891
2216.66546 0.00855
2215.37969 0.00884
2214.09392 0.00968
2212.80815 0.01031
2211.52238 0.01006
2210.23661 0.00921
2208.95084 0.00880
2207.66508 0.00965
2206.37931 0.01166
2205.09354 0.01380
2203.80777 0.01486
2202.52200 0.01435
2201.23623 0.01279
2199.95046 0.01114
2198.66469 0.01006
2197.37893 0.00963
2196.09316 0.00968
2194.80739 0.00997
2193.52162 0.01008
2192.23585 0.00959
2190.95008 0.00871
2189.66431 0.00834
2188.37854 0.00917
2187.09277 0.01081
2185.80701 0.01208
2184.52124 0.01208
2183.23547 0.01087
2181.94970 0.00918
2180.66393 0.00782
2179.37816 0.00728
2178.09239 0.00761
2176.80662 0.00842
2175.52085 0.00914
2174.23509 0.00947
2172.94932 0.00954
2171.66355 0.00970
2170.37778 0.01017
2169.09201 0.01091
2167.80624 0.01153
2166.52047 0.01143
2165.23470 0.01042
2163.94894 0.00905
2162.66317 0.00813
2161.37740 0.00791
2160.09163 0.00809
2158.80586 0.00843
2157.52009 0.00881
2156.23432 0.00897
2154.94855 0.00867
2153.66278 0.00802
2152.37702 0.00742
2151.09125 0.00727
2149.80548 0.00767
2148.51971 0.00835
2147.23394 0.00891
2145.94817 0.00914
2144.66240 0.00922
2143.37663 0.00936
2142.09087 0.00949
2140.80510 0.00941
2139.51933 0.00912
2138.23356 0.00879
2136.94779 0.00862
2135.66202 0.00869
2134.37625 0.00899
2133.09048 0.00939
2131.80471 0.00984
2130.51895 0.01040
2129.23318 0.01119
2127.94741 0.01213
2126.66164 0.01285
2125.37587 0.01286
2124.09010 0.01205
2122.80433 0.01089
2121.51856 0.01017
2120.23280 0.01028
2118.94703 0.01093
2117.66126 0.01146
2116.37549 0.01146
2115.08972 0.01104
2113.80395 0.01069
2112.51818 0.01074
2111.23241 0.01102
2109.94664 0.01097
2108.66088 0.01030
2107.37511 0.00942
2106.08934 0.00904
2104.80357 0.00936
2103.51780 0.00990
2102.23203 0.01008
2100.94626 0.00982
2099.66049 0.00957
2098.37473 0.00948
2097.08896 0.00951
2095.80319 0.00948
2094.51742 0.00931
2093.23165 0.00918
2091.94588 0.00928
2090.66011 0.00971
2089.37434 0.01032
2088.08857 0.01090
2086.80281 0.01131
2085.51704 0.01146
2084.23127 0.01137
2082.94550 0.01109
2081.65973 0.01065
2080.37396 0.01001
2079.08819 0.00913
2077.80242 0.00811
2076.51666 0.00721
2075.23089 0.00666
2073.94512 0.00646
2072.65935 0.00639
2071.37358 0.00625
2070.08781 0.00607
2068.80204 0.00603
2067.51627 0.00629
2066.23050 0.00672
2064.94474 0.00701
2063.65897 0.00691
2062.37320 0.00646
2061.08743 0.00602
2059.80166 0.00599
2058.51589 0.00654
2057.23012 0.00747
2055.94435 0.00826
2054.65859 0.00845
2053.37282 0.00792
2052.08705 0.00690
2050.80128 0.00590
2049.51551 0.00529
2048.22974 0.00514
2046.94397 0.00507
2045.65820 0.00476
2044.37243 0.00425
2043.08667 0.00388
2041.80090 0.00377
2040.51513 0.00371
2039.22936 0.00352
2037.94359 0.00331
2036.65782 0.00329
2035.37205 0.00347
2034.08628 0.00370
2032.80052 0.00389
2031.51475 0.00402
2030.22898 0.00407
2028.94321 0.00414
2027.65744 0.00434
2026.37167 0.00463
2025.08590 0.00480
2023.80013 0.00459
2022.51436 0.00392
2021.22860 0.00302
2019.94283 0.00216
2018.65706 0.00149
2017.37129 0.00098
2016.08552 0.00064
2014.79975 0.00070
2013.51398 0.00140
2012.22821 0.00265
2010.94245 0.00408
2009.65668 0.00532
2008.37091 0.00621
2007.08514 0.00668
2005.79937 0.00668
2004.51360 0.00644
2003.22783 0.00641
2001.94206 0.00682
2000.65629 0.00744
1999.37053 0.00788
1998.08476 0.00798
1996.79899 0.00801
1995.51322 0.00818
1994.22745 0.00839
1992.94168 0.00842
1991.65591 0.00831
1990.37014 0.00833
1989.08438 0.00844
1987.79861 0.00819
1986.51284 0.00730
1985.22707 0.00608
1983.94130 0.00511
1982.65553 0.00459
1981.36976 0.00435
1980.08399 0.00433
1978.79822 0.00466
1977.51246 0.00527
1976.22669 0.00576
1974.94092 0.00591
1973.65515 0.00596
1972.36938 0.00626
1971.08361 0.00677
1969.79784 0.00713
1968.51207 0.00729
1967.22631 0.00768
1965.94054 0.00864
1964.65477 0.00978
1963.36900 0.01029
1962.08323 0.00983
1960.79746 0.00908
1959.51169 0.00897
1958.22592 0.00972
1956.94015 0.01068
1955.65439 0.01113
1954.36862 0.01096
1953.08285 0.01053
1951.79708 0.01011
1950.51131 0.00972
1949.22554 0.00934
1947.93977 0.00912
1946.65400 0.00921
1945.36823 0.00962
1944.08247 0.01023
1942.79670 0.01081
1941.51093 0.01113
1940.22516 0.01111
1938.93939 0.01091
1937.65362 0.01068
1936.36785 0.01036
1935.08208 0.00988
1933.79632 0.00935
1932.51055 0.00904
1931.22478 0.00918
1929.93901 0.00974
1928.65324 0.01050
1927.36747 0.01116
1926.08170 0.01152
1924.79593 0.01159
1923.51016 0.01147
1922.22440 0.01128
1920.93863 0.01104
1919.65286 0.01078
1918.36709 0.01057
1917.08132 0.01056
1915.79555 0.01075
1914.50978 0.01096
1913.22401 0.01096
1911.93825 0.01070
1910.65248 0.01034
1909.36671 0.01008
1908.08094 0.00996
1906.79517 0.00992
1905.50940 0.00990
1904.22363 0.00993
1902.93786 0.01002
1901.65209 0.01006
1900.36633 0.00997
1899.08056 0.00975
1897.79479 0.00957
1896.50902 0.00951
1895.22325 0.00963
1893.93748 0.00994
1892.65171 0.01048
1891.36594 0.01106
1890.08018 0.01138
1888.79441 0.01126
1887.50864 0.01089
1886.22287 0.01062
1884.93710 0.01067
1883.65133 0.01095
1882.36556 0.01115
1881.07979 0.01105
1879.79402 0.01074
1878.50826 0.01047
1877.22249 0.01046
1875.93672 0.01068
1874.65095 0.01096
1873.36518 0.01118
1872.07941 0.01129
1870.79364 0.01129
1869.50787 0.01117
1868.22211 0.01099
1866.93634 0.01081
1865.65057 0.01067
1864.36480 0.01052
1863.07903 0.01037
1861.79326 0.01028
1860.50749 0.01034
1859.22172 0.01055
1857.93595 0.01083
1856.65019 0.01104
1855.36442 0.01106
1854.07865 0.01086
1852.79288 0.01055
1851.50711 0.01030
1850.22134 0.01028
1848.93557 0.01051
1847.64980 0.01085
1846.36404 0.01112
1845.07827 0.01122
1843.79250 0.01112
1842.50673 0.01091
1841.22096 0.01067
1839.93519 0.01049
1838.64942 0.01046
1837.36365 0.01058
1836.07788 0.01079
1834.79212 0.01103
1833.50635 0.01127
1832.22058 0.01146
1830.93481 0.01154
1829.64904 0.01146
1828.36327 0.01129
1827.07750 0.01113
1825.79173 0.01108
1824.50597 0.01112
1823.22020 0.01116
1821.93443 0.01115
1820.64866 0.01117
1819.36289 0.01131
1818.07712 0.01151
1816.79135 0.01162
1815.50558 0.01156
1814.21981 0.01144
1812.93405 0.01134
1811.64828 0.01132
1810.36251 0.01131
1809.07674 0.01127
1807.79097 0.01121
1806.50520 0.01116
1805.21943 0.01112
1803.93366 0.01105
1802.64790 0.01093
1801.36213 0.01080
1800.07636 0.01074
1798.79059 0.01075
1797.50482 0.01075
1796.21905 0.01070
1794.93328 0.01071
1793.64751 0.01085
1792.36174 0.01113
1791.07598 0.01141
1789.79021 0.01156
1788.50444 0.01155
1787.21867 0.01148
1785.93290 0.01144
1784.64713 0.01144
1783.36136 0.01143
1782.07559 0.01135
1780.78983 0.01122
1779.50406 0.01111
1778.21829 0.01110
1776.93252 0.01118
1775.64675 0.01128
1774.36098 0.01131
1773.07521 0.01126
1771.78944 0.01121
1770.50367 0.01122
1769.21791 0.01129
1767.93214 0.01137
1766.64637 0.01143
1765.36060 0.01143
1764.07483 0.01138
1762.78906 0.01134
1761.50329 0.01135
1760.21752 0.01135
1758.93176 0.01132
1757.64599 0.01128
1756.36022 0.01130
1755.07445 0.01137
1753.78868 0.01141
1752.50291 0.01138
1751.21714 0.01131
1749.93137 0.01125
1748.64560 0.01117
1747.35984 0.01108
1746.07407 0.01101
1744.78830 0.01098
1743.50253 0.01100
1742.21676 0.01102
1740.93099 0.01101
1739.64522 0.01100
1738.35945 0.01103
1737.07369 0.01110
1735.78792 0.01119
1734.50215 0.01130
1733.21638 0.01142
1731.93061 0.01148
1730.64484 0.01144
1729.35907 0.01138
1728.07330 0.01139
1726.78753 0.01144
1725.50177 0.01143
1724.21600 0.01137
1722.93023 0.01135
1721.64446 0.01142
1720.35869 0.01156
1719.07292 0.01174
1717.78715 0.01197
1716.50138 0.01225
1715.21561 0.01253
1713.92985 0.01275
1712.64408 0.01295
1711.35831 0.01319
1710.07254 0.01353
1708.78677 0.01394
1707.50100 0.01438
1706.21523 0.01483
1704.92946 0.01534
1703.64370 0.01594
1702.35793 0.01660
1701.07216 0.01736
1699.78639 0.01825
1698.50062 0.01916
1697.21485 0.01995
1695.92908 0.02063
1694.64331 0.02129
1693.35754 0.02191
1692.07178 0.02248
1690.78601 0.02309
1689.50024 0.02383
1688.21447 0.02466
1686.92870 0.02551
1685.64293 0.02634
1684.35716 0.02720
1683.07139 0.02805
1681.78563 0.02879
1680.49986 0.02942
1679.21409 0.03008
1677.92832 0.03083
1676.64255 0.03162
1675.35678 0.03240
1674.07101 0.03315
1672.78524 0.03385
1671.49947 0.03449
1670.21371 0.03510
1668.92794 0.03570
1667.64217 0.03633
1666.35640 0.03700
1665.07063 0.03769
1663.78486 0.03839
1662.49909 0.03907
1661.21332 0.03971
1659.92756 0.04027
1658.64179 0.04079
1657.35602 0.04128
1656.07025 0.04177
1654.78448 0.04226
1653.49871 0.04282
1652.21294 0.04340
1650.92717 0.04385
1649.64140 0.04406
1648.35564 0.04408
1647.06987 0.04412
1645.78410 0.04424
1644.49833 0.04439
1643.21256 0.04449
1641.92679 0.04454
1640.64102 0.04456
1639.35525 0.04455
1638.06949 0.04448
1636.78372 0.04437
1635.49795 0.04423
1634.21218 0.04401
1632.92641 0.04363
1631.64064 0.04309
1630.35487 0.04251
1629.06910 0.04197
1627.78333 0.04152
1626.49757 0.04109
1625.21180 0.04058
1623.92603 0.03996
1622.64026 0.03926
1621.35449 0.03857
1620.06872 0.03795
1618.78295 0.03743
1617.49718 0.03701
1616.21142 0.03667
1614.92565 0.03631
1613.63988 0.03589
1612.35411 0.03545
1611.06834 0.03506
1609.78257 0.03471
1608.49680 0.03437
1607.21103 0.03405
1605.92526 0.03381
1604.63950 0.03367
1603.35373 0.03357
1602.06796 0.03346
1600.78219 0.03333
1599.49642 0.03324
1598.21065 0.03322
1596.92488 0.03325
1595.63911 0.03328
1594.35335 0.03328
1593.06758 0.03329
1591.78181 0.03333
1590.49604 0.03343
1589.21027 0.03355
1587.92450 0.03366
1586.63873 0.03374
1585.35296 0.03383
1584.06719 0.03395
1582.78143 0.03413
1581.49566 0.03439
1580.20989 0.03474
1578.92412 0.03511
1577.63835 0.03546
1576.35258 0.03579
1575.06681 0.03610
1573.78104 0.03634
1572.49528 0.03651
1571.20951 0.03671
1569.92374 0.03703
1568.63797 0.03743
1567.35220 0.03777
1566.06643 0.03799
1564.78066 0.03818
1563.49489 0.03842
1562.20912 0.03873
1560.92336 0.03907
1559.63759 0.03944
1558.35182 0.03982
1557.06605 0.04013
1555.78028 0.04028
1554.49451 0.04034
1553.20874 0.04043
1551.92297 0.04055
1550.63721 0.04063
1549.35144 0.04066
1548.06567 0.04067
1546.77990 0.04068
1545.49413 0.04071
1544.20836 0.04079
1542.92259 0.04090
1541.63682 0.04102
1540.35105 0.04111
1539.06529 0.04114
1537.77952 0.04104
1536.49375 0.04080
1535.20798 0.04050
1533.92221 0.04029
1532.63644 0.04021
1531.35067 0.04020
1530.06490 0.04020
1528.77914 0.04026
1527.49337 0.04041
1526.20760 0.04062
1524.92183 0.04081
1523.63606 0.04091
1522.35029 0.04093
1521.06452 0.04097
1519.77875 0.04110
1518.49298 0.04127
1517.20722 0.04146
1515.92145 0.04166
1514.63568 0.04186
1513.34991 0.04208
1512.06414 0.04234
1510.77837 0.04267
1509.49260 0.04303
1508.20683 0.04339
1506.92107 0.04374
1505.63530 0.04406
1504.34953 0.04431
1503.06376 0.04451
1501.77799 0.04473
1500.49222 0.04503
1499.20645 0.04535
1497.92068 0.04557
1496.63491 0.04567
1495.34915 0.04570
1494.06338 0.04572
1492.77761 0.04576
1491.49184 0.04589
1490.20607 0.04613
1488.92030 0.04646
1487.63453 0.04682
1486.34876 0.04721
1485.06299 0.04765
1483.77723 0.04818
1482.49146 0.04877
1481.20569 0.04940
1479.91992 0.05007
1478.63415 0.05076
1477.34838 0.05147
1476.06261 0.05217
1474.77684 0.05279
1473.49108 0.05330
1472.20531 0.05374
1470.91954 0.05417
1469.63377 0.05460
1468.34800 0.05500
1467.06223 0.05534
1465.77646 0.05562
1464.49069 0.05588
1463.20492 0.05616
1461.91916 0.05651
1460.63339 0.05693
1459.34762 0.05745
1458.06185 0.05807
1456.77608 0.05876
1455.49031 0.05940
1454.20454 0.05990
1452.91877 0.06024
1451.63301 0.06054
1450.34724 0.06087
1449.06147 0.06118
1447.77570 0.06142
1446.48993 0.06154
1445.20416 0.06152
1443.91839 0.06138
1442.63262 0.06114
1441.34685 0.06086
1440.06109 0.06060
1438.77532 0.06039
1437.48955 0.06027
1436.20378 0.06025
1434.91801 0.06032
1433.63224 0.06047
1432.34647 0.06069
1431.06070 0.06099
1429.77494 0.06138
1428.48917 0.06185
1427.20340 0.06241
1425.91763 0.06307
1424.63186 0.06379
1423.34609 0.06454
1422.06032 0.06527
1420.77455 0.06596
1419.48878 0.06663
1418.20302 0.06729
1416.91725 0.06788
1415.63148 0.06835
1414.34571 0.06873
1413.05994 0.06904
1411.77417 0.06927
1410.48840 0.06938
1409.20263 0.06932
1407.91687 0.06910
1406.63110 0.06877
1405.34533 0.06835
1404.05956 0.06786
1402.77379 0.06727
1401.48802 0.06654
1400.20225 0.06569
1398.91648 0.06474
1397.63071 0.06372
1396.34495 0.06264
1395.05918 0.06155
1393.77341 0.06048
1392.48764 0.05946
1391.20187 0.05844
1389.91610 0.05737
1388.63033 0.05623
1387.34456 0.05505
1386.05880 0.05386
1384.77303 0.05269
1383.48726 0.05152
1382.20149 0.05038
1380.91572 0.04926
1379.62995 0.04816
1378.34418 0.04706
1377.05841 0.04594
1375.77264 0.04478
1374.48688 0.04359
1373.20111 0.04240
1371.91534 0.04123
1370.62957 0.04008
1369.34380 0.03900
1368.05803 0.03800
1366.77226 0.03707
1365.48649 0.03621
1364.20073 0.03538
1362.91496 0.03459
1361.62919 0.03384
1360.34342 0.03315
1359.05765 0.03250
1357.77188 0.03192
1356.48611 0.03138
1355.20034 0.03088
1353.91457 0.03043
1352.62881 0.03006
1351.34304 0.02977
1350.05727 0.02953
1348.77150 0.02929
1347.48573 0.02903
1346.19996 0.02874
1344.91419 0.02843
1343.62842 0.02814
1342.34266 0.02788
1341.05689 0.02764
1339.77112 0.02742
1338.48535 0.02719
1337.19958 0.02695
1335.91381 0.02669
1334.62804 0.02641
1333.34227 0.02612
1332.05650 0.02581
1330.77074 0.02547
1329.48497 0.02511
1328.19920 0.02479
1326.91343 0.02453
1325.62766 0.02435
1324.34189 0.02418
1323.05612 0.02397
1321.77035 0.02369
1320.48459 0.02338
1319.19882 0.02310
1317.91305 0.02287
1316.62728 0.02266
1315.34151 0.02248
1314.05574 0.02232
1312.76997 0.02216
1311.48420 0.02198
1310.19843 0.02176
1308.91267 0.02149
1307.62690 0.02123
1306.34113 0.02098
1305.05536 0.02076
1303.76959 0.02058
1302.48382 0.02047
1301.19805 0.02041
1299.91228 0.02037
1298.62652 0.02030
1297.34075 0.02014
1296.05498 0.01991
1294.76921 0.01966
1293.48344 0.01944
1292.19767 0.01927
1290.91190 0.01914
1289.62613 0.01906
1288.34036 0.01903
1287.05460 0.01902
1285.76883 0.01900
1284.48306 0.01898
1283.19729 0.01895
1281.91152 0.01890
1280.62575 0.01885
1279.33998 0.01880
1278.05421 0.01876
1276.76845 0.01873
1275.48268 0.01868
1274.19691 0.01863
1272.91114 0.01857
1271.62537 0.01850
1270.33960 0.01839
1269.05383 0.01823
1267.76806 0.01805
1266.48229 0.01791
1265.19653 0.01785
1263.91076 0.01788
1262.62499 0.01796
1261.33922 0.01803
1260.05345 0.01805
1258.76768 0.01804
1257.48191 0.01801
1256.19614 0.01796
1254.91037 0.01791
1253.62461 0.01788
1252.33884 0.01789
1251.05307 0.01792
1249.76730 0.01796
1248.48153 0.01797
1247.19576 0.01798
1245.90999 0.01799
1244.62422 0.01799
1243.33846 0.01797
1242.05269 0.01794
1240.76692 0.01789
1239.48115 0.01782
1238.19538 0.01776
1236.90961 0.01768
1235.62384 0.01760
1234.33807 0.01748
1233.05230 0.01734
1231.76654 0.01718
1230.48077 0.01700
1229.19500 0.01682
1227.90923 0.01666
1226.62346 0.01653
1225.33769 0.01642
1224.05192 0.01630
1222.76615 0.01615
1221.48039 0.01598
1220.19462 0.01582
1218.90885 0.01566
1217.62308 0.01551
1216.33731 0.01536
1215.05154 0.01518
1213.76577 0.01499
1212.48000 0.01482
1211.19423 0.01467
1209.90847 0.01457
1208.62270 0.01451
1207.33693 0.01448
1206.05116 0.01448
1204.76539 0.01448
1203.47962 0.01447
1202.19385 0.01443
1200.90808 0.01438
1199.62232 0.01435
1198.33655 0.01436
1197.05078 0.01436
1195.76501 0.01432
1194.47924 0.01424
1193.19347 0.01415
1191.90770 0.01407
1190.62193 0.01393
1189.33616 0.01374
1188.05040 0.01356
1186.76463 0.01345
1185.47886 0.01338
1184.19309 0.01330
1182.90732 0.01318
1181.62155 0.01309
1180.33578 0.01306
1179.05001 0.01304
1177.76425 0.01299
1176.47848 0.01290
1175.19271 0.01281
1173.90694 0.01277
1172.62117 0.01280
1171.33540 0.01292
1170.04963 0.01310
1168.76386 0.01328
1167.47809 0.01339
1166.19233 0.01344
1164.90656 0.01347
1163.62079 0.01352
1162.33502 0.01360
1161.04925 0.01366
1159.76348 0.01371
1158.47771 0.01380
1157.19194 0.01395
1155.90618 0.01413
1154.62041 0.01428
1153.33464 0.01435
1152.04887 0.01438
1150.76310 0.01440
1149.47733 0.01446
1148.19156 0.01461
1146.90579 0.01489
1145.62002 0.01526
1144.33426 0.01565
1143.04849 0.01603
1141.76272 0.01643
1140.47695 0.01688
1139.19118 0.01737
1137.90541 0.01788
1136.61964 0.01842
1135.33387 0.01905
1134.04811 0.01982
1132.76234 0.02075
1131.47657 0.02184
1130.19080 0.02306
1128.90503 0.02438
1127.61926 0.02572
1126.33349 0.02705
1125.04772 0.02843
1123.76195 0.02990
1122.47619 0.03153
1121.19042 0.03329
1119.90465 0.03516
1118.61888 0.03711
1117.33311 0.03912
1116.04734 0.04117
1114.76157 0.04319
1113.47580 0.04513
1112.19004 0.04700
1110.90427 0.04885
1109.61850 0.05075
1108.33273 0.05268
1107.04696 0.05460
1105.76119 0.05648
1104.47542 0.05828
1103.18965 0.06002
1101.90388 0.06172
1100.61812 0.06344
1099.33235 0.06515
1098.04658 0.06680
1096.76081 0.06837
1095.47504 0.06987
1094.18927 0.07130
1092.90350 0.07261
1091.61773 0.07376
1090.33197 0.07476
1089.04620 0.07571
1087.76043 0.07674
1086.47466 0.07790
1085.18889 0.07917
1083.90312 0.08048
1082.61735 0.08178
1081.33158 0.08304
1080.04581 0.08433
1078.76005 0.08574
1077.47428 0.08728
1076.18851 0.08889
1074.90274 0.09049
1073.61697 0.09204
1072.33120 0.09360
1071.04543 0.09525
1069.75966 0.09700
1068.47390 0.09881
1067.18813 0.10067
1065.90236 0.10257
1064.61659 0.10454
1063.33082 0.10654
1062.04505 0.10851
1060.75928 0.11041
1059.47351 0.11223
1058.18774 0.11401
1056.90198 0.11578
1055.61621 0.11755
1054.33044 0.11929
1053.04467 0.12097
1051.75890 0.12259
1050.47313 0.12422
1049.18736 0.12588
1047.90159 0.12759
1046.61583 0.12930
1045.33006 0.13100
1044.04429 0.13268
1042.75852 0.13436
1041.47275 0.13605
1040.18698 0.13776
1038.90121 0.13950
1037.61544 0.14126
1036.32967 0.14303
1035.04391 0.14480
1033.75814 0.14649
1032.47237 0.14807
1031.18660 0.14951
1029.90083 0.15084
1028.61506 0.15211
1027.32929 0.15332
1026.04352 0.15444
1024.75775 0.15543
1023.47199 0.15626
1022.18622 0.15687
1020.90045 0.15722
1019.61468 0.15735
1018.32891 0.15733
1017.04314 0.15719
1015.75737 0.15691
1014.47160 0.15642
1013.18584 0.15568
1011.90007 0.15470
1010.61430 0.15349
1009.32853 0.15204
1008.04276 0.15037
1006.75699 0.14852
1005.47122 0.14651
1004.18545 0.14434
1002.89968 0.14197
1001.61392 0.13940
1000.32815 0.13662
999.04238 0.13367
997.75661 0.13060
996.47084 0.12747
995.18507 0.12430
993.89930 0.12107
992.61353 0.11780
991.32777 0.11454
990.04200 0.11130
988.75623 0.10811
987.47046 0.10494
986.18469 0.10178
984.89892 0.09870
983.61315 0.09574
982.32738 0.09296
981.04161 0.09037
979.75585 0.08792
978.47008 0.08558
977.18431 0.08330
975.89854 0.08113
974.61277 0.07912
973.32700 0.07731
972.04123 0.07575
970.75546 0.07449
969.46970 0.07356
968.18393 0.07301
966.89816 0.07282
965.61239 0.07295
964.32662 0.07329
963.04085 0.07369
961.75508 0.07403
960.46931 0.07424
959.18354 0.07418
957.89778 0.07377
956.61201 0.07299
955.32624 0.07190
954.04047 0.07058
952.75470 0.06909
951.46893 0.06753
950.18316 0.06601
948.89739 0.06463
947.61163 0.06337
946.32586 0.06213
945.04009 0.06084
943.75432 0.05954
942.46855 0.05829
941.18278 0.05710
939.89701 0.05592
938.61124 0.05471
937.32547 0.05352
936.03971 0.05239
934.75394 0.05139
933.46817 0.05054
932.18240 0.04979
930.89663 0.04904
929.61086 0.04820
928.32509 0.04728
927.03932 0.04631
925.75356 0.04536
924.46779 0.04448
923.18202 0.04374
921.89625 0.04315
920.61048 0.04268
919.32471 0.04223
918.03894 0.04175
916.75317 0.04125
915.46740 0.04074
914.18164 0.04023
912.89587 0.03971
911.61010 0.03919
910.32433 0.03868
909.03856 0.03818
907.75279 0.03770
906.46702 0.03726
905.18125 0.03691
903.89549 0.03657
902.60972 0.03620
901.32395 0.03582
900.03818 0.03550
898.75241 0.03528
897.46664 0.03506
896.18087 0.03476
894.89510 0.03434
893.60933 0.03386
892.32357 0.03342
891.03780 0.03311
889.75203 0.03296
888.46626 0.03298
887.18049 0.03320
885.89472 0.03370
884.60895 0.03459
883.32318 0.03592
882.03742 0.03757
880.75165 0.03933
879.46588 0.04095
878.18011 0.04225
876.89434 0.04324
875.60857 0.04406
874.32280 0.04486
873.03703 0.04561
871.75126 0.04615
870.46550 0.04632
869.17973 0.04605
867.89396 0.04531
866.60819 0.04418
865.32242 0.04281
864.03665 0.04141
862.75088 0.04010
861.46511 0.03888
860.17935 0.03771
858.89358 0.03659
857.60781 0.03558
856.32204 0.03473
855.03627 0.03408
853.75050 0.03357
852.46473 0.03310
851.17896 0.03259
849.89319 0.03210
848.60743 0.03169
847.32166 0.03140
846.03589 0.03116
844.75012 0.03092
843.46435 0.03066
842.17858 0.03040
840.89281 0.03016
839.60704 0.02992
838.32128 0.02967
837.03551 0.02940
835.74974 0.02912
834.46397 0.02883
833.17820 0.02853
831.89243 0.02822
830.60666 0.02786
829.32089 0.02750
828.03512 0.02726
826.74936 0.02721
825.46359 0.02727
824.17782 0.02730
822.89205 0.02720
821.60628 0.02706
820.32051 0.02697
819.03474 0.02694
817.74897 0.02692
816.46321 0.02689
815.17744 0.02688
813.89167 0.02683
812.60590 0.02671
811.32013 0.02652
810.03436 0.02634
808.74859 0.02622
807.46282 0.02619
806.17705 0.02620
804.89129 0.02621
803.60552 0.02619
802.31975 0.02613
801.03398 0.02602
799.74821 0.02589
798.46244 0.02579
797.17667 0.02576
795.89090 0.02577
794.60513 0.02577
793.31937 0.02576
792.03360 0.02580
790.74783 0.02585
789.46206 0.02581
788.17629 0.02562
786.89052 0.02540
785.60475 0.02526
784.31898 0.02521
783.03322 0.02520
781.74745 0.02517
780.46168 0.02513
779.17591 0.02518
777.89014 0.02535
776.60437 0.02558
775.31860 0.02576
774.03283 0.02580
772.74706 0.02573
771.46130 0.02560
770.17553 0.02543
768.88976 0.02526
767.60399 0.02513
766.31822 0.02509
765.03245 0.02513
763.74668 0.02522
762.46091 0.02531
761.17515 0.02540
759.88938 0.02548
758.60361 0.02554
757.31784 0.02552
756.03207 0.02540
754.74630 0.02526
753.46053 0.02518
752.17476 0.02522
750.88899 0.02528
749.60323 0.02527
748.31746 0.02509
747.03169 0.02480
745.74592 0.02454
744.46015 0.02450
743.17438 0.02472
741.88861 0.02503
740.60284 0.02528
739.31708 0.02538
738.03131 0.02535
736.74554 0.02521
735.45977 0.02500
734.17400 0.02476
732.88823 0.02455
731.60246 0.02440
730.31669 0.02434
729.03092 0.02436
727.74516 0.02445
726.45939 0.02455
725.17362 0.02460
723.88785 0.02464
722.60208 0.02474
721.31631 0.02490
720.03054 0.02505
718.74477 0.02512
717.45901 0.02510
716.17324 0.02503
714.88747 0.02494
713.60170 0.02485
712.31593 0.02475
711.03016 0.02468
709.74439 0.02467
708.45862 0.02470
707.17285 0.02477
705.88709 0.02484
704.60132 0.02488
703.31555 0.02489
702.02978 0.02483
700.74401 0.02471
699.45824 0.02459
698.17247 0.02451
696.88670 0.02451
695.60094 0.02456
694.31517 0.02460
693.02940 0.02458
691.74363 0.02447
690.45786 0.02434
689.17209 0.02427
687.88632 0.02429
686.60055 0.02435
685.31478 0.02437
684.02902 0.02432
682.74325 0.02421
681.45748 0.02407
680.17171 0.02396
678.88594 0.02389
677.60017 0.02387
676.31440 0.02390
675.02863 0.02399
673.74287 0.02413
672.45710 0.02428
671.17133 0.02442
669.88556 0.02452
668.59979 0.02460
667.31402 0.02462
666.02825 0.02456
664.74248 0.02442
663.45671 0.02420
662.17095 0.02397
660.88518 0.02379
659.59941 0.02369
658.31364 0.02364
657.02787 0.02362
655.74210 0.02361
654.45633 0.02361
653.17056 0.02359
651.88480 0.02349
650.59903 0.02333
649.31326 0.02316
648.02749 0.02303
646.74172 0.02298
645.45595 0.02302
644.17018 0.02310
642.88441 0.02318
641.59864 0.02325
640.31288 0.02332
639.02711 0.02336
637.74134 0.02335
636.45557 0.02330
635.16980 0.02326
633.88403 0.02325
632.59826 0.02324
631.31249 0.02319
630.02673 0.02307
628.74096 0.02289
627.45519 0.02257
626.16942 0.02236
624.88365 0.02238
623.59788 0.02287
622.31211 0.02411
621.02634 0.02586
619.74057 0.02728
618.45481 0.02789
617.16904 0.02842
615.88327 0.03016
614.59750 0.03353
613.31173 0.03765
612.02596 0.04120
610.74019 0.04375
609.45442 0.04619
608.16866 0.04979
606.88289 0.05489
605.59712 0.06055
604.31135 0.06524
603.02558 0.06785
601.73981 0.06831
600.45404 0.06736
599.16827 0.06574
597.88250 0.06381
596.59674 0.06172
595.31097 0.05972
594.02520 0.05808
592.73943 0.05692
591.45366 0.05616
590.16789 0.05569
588.88212 0.05549
587.59635 0.05565
586.31059 0.05623
585.02482 0.05719
583.73905 0.05843
582.45328 0.05982
581.16751 0.06123
579.88174 0.06262
578.59597 0.06405
577.31020 0.06563
576.02443 0.06735
574.73867 0.06905
573.45290 0.07054
572.16713 0.07183
570.88136 0.07312
569.59559 0.07472
568.30982 0.07680
567.02405 0.07930
565.73828 0.08194
564.45251 0.08442
563.16675 0.08644
561.88098 0.08770
560.59521 0.08791
559.30944 0.08689
558.02367 0.08479
556.73790 0.08198
555.45213 0.07881
554.16636 0.07548
552.88060 0.07211
551.59483 0.06883
550.30906 0.06581
549.02329 0.06313
547.73752 0.06074
546.45175 0.05852
545.16598 0.05636
543.88021 0.05421
542.59444 0.05212
541.30868 0.05017
540.02291 0.04843
538.73714 0.04694
537.45137 0.04565
536.16560 0.04452
534.87983 0.04351
533.59406 0.04256
532.30829 0.04161
531.02253 0.04065
529.73676 0.03973
528.45099 0.03885
527.16522 0.03802
525.87945 0.03725
524.59368 0.03659
523.30791 0.03600
522.02214 0.03544
520.73637 0.03483
519.45061 0.03419
518.16484 0.03354
516.87907 0.03291
515.59330 0.03228
514.30753 0.03169
513.02176 0.03118
511.73599 0.03080
510.45022 0.03053
509.16446 0.03028
507.87869 0.02993
506.59292 0.02948
505.30715 0.02900
504.02138 0.02852
502.73561 0.02804
501.44984 0.02757
500.16407 0.02718
498.87830 0.02687
497.59254 0.02659
496.30677 0.02633
495.02100 0.02612
493.73523 0.02601
492.44946 0.02595
491.16369 0.02579
489.87792 0.02545
488.59215 0.02499
487.30639 0.02455
486.02062 0.02430
484.73485 0.02427
483.44908 0.02444
482.16331 0.02470
480.87754 0.02491
479.59177 0.02496
478.30600 0.02488
477.02023 0.02477
475.73447 0.02470
474.44870 0.02471
473.16293 0.02475
471.87716 0.02479
470.59139 0.02478
469.30562 0.02469
468.01985 0.02453
466.73408 0.02435
465.44832 0.02421
464.16255 0.02409
462.87678 0.02392
461.59101 0.02370
460.30524 0.02341
459.01947 0.02310
457.73370 0.02277
456.44793 0.02245
455.16216 0.02214
453.87640 0.02185
452.59063 0.02160
451.30486 0.02140
450.01909 0.02119
448.73332 0.02092
447.44755 0.02060
446.16178 0.02030
444.87601 0.02007
443.59025 0.01991
442.30448 0.01979
441.01871 0.01966
439.73294 0.01950
438.44717 0.01933
437.16140 0.01920
435.87563 0.01913
434.58986 0.01912
433.30409 0.01910
432.01833 0.01905
430.73256 0.01893
429.44679 0.01875
428.16102 0.01855
426.87525 0.01838
425.58948 0.01828
424.30371 0.01823
423.01794 0.01818
421.73218 0.01809
420.44641 0.01795
419.16064 0.01780
417.87487 0.01763
416.58910 0.01743
415.30333 0.01725
414.01756 0.01711
412.73179 0.01701
411.44602 0.01691
410.16026 0.01680
408.87449 0.01673
407.58872 0.01672
406.30295 0.01679
405.01718 0.01687
403.73141 0.01690
402.44564 0.01684
401.15987 0.01674
399.87411 0.01665
