3997.45528	0.05705
3996.16951	0.05728
3994.88374	0.05678
3993.59798	0.05532
3992.31221	0.05341
3991.02644	0.05191
3989.74067	0.05139
3988.45490	0.05176
3987.16913	0.05242
3985.88336	0.05281
3984.59759	0.05287
3983.31183	0.05303
3982.02606	0.05377
3980.74029	0.05507
3979.45452	0.05630
3978.16875	0.05666
3976.88298	0.05587
3975.59721	0.05437
3974.31144	0.05294
3973.02567	0.05211
3971.73991	0.05192
3970.45414	0.05201
3969.16837	0.05198
3967.88260	0.05169
3966.59683	0.05144
3965.31106	0.05161
3964.02529	0.05228
3962.73952	0.05312
3961.45376	0.05374
3960.16799	0.05387
3958.88222	0.05342
3957.59645	0.05257
3956.31068	0.05176
3955.02491	0.05143
3953.73914	0.05170
3952.45337	0.05239
3951.16760	0.05322
3949.88184	0.05401
3948.59607	0.05474
3947.31030	0.05538
3946.02453	0.05586
3944.73876	0.05601
3943.45299	0.05581
3942.16722	0.05553
3940.88145	0.05543
3939.59569	0.05542
3938.30992	0.05512
3937.02415	0.05436
3935.73838	0.05340
3934.45261	0.05267
3933.16684	0.05222
3931.88107	0.05178
3930.59530	0.05125
3929.30953	0.05083
3928.02377	0.05086
3926.73800	0.05147
3925.45223	0.05247
3924.16646	0.05353
3922.88069	0.05431
3921.59492	0.05466
3920.30915	0.05449
3919.02338	0.05384
3917.73762	0.05288
3916.45185	0.05200
3915.16608	0.05156
3913.88031	0.05166
3912.59454	0.05209
3911.30877	0.05267
3910.02300	0.05324
3908.73723	0.05365
3907.45146	0.05373
3906.16570	0.05343
3904.87993	0.05290
3903.59416	0.05230
3902.30839	0.05168
3901.02262	0.05119
3899.73685	0.05112
3898.45108	0.05170
3897.16531	0.05268
3895.87955	0.05336
3894.59378	0.05326
3893.30801	0.05256
3892.02224	0.05194
3890.73647	0.05187
3889.45070	0.05230
3888.16493	0.05278
3886.87916	0.05285
3885.59339	0.05238
3884.30763	0.05153
3883.02186	0.05073
3881.73609	0.05021
3880.45032	0.04988
3879.16455	0.04954
3877.87878	0.04919
3876.59301	0.04904
3875.30724	0.04923
3874.02148	0.04964
3872.73571	0.05015
3871.44994	0.05080
3870.16417	0.05161
3868.87840	0.05235
3867.59263	0.05267
3866.30686	0.05248
3865.02109	0.05202
3863.73532	0.05160
3862.44956	0.05136
3861.16379	0.05131
3859.87802	0.05140
3858.59225	0.05145
3857.30648	0.05126
3856.02071	0.05086
3854.73494	0.05047
3853.44917	0.05026
3852.16341	0.05013
3850.87764	0.04983
3849.59187	0.04921
3848.30610	0.04841
3847.02033	0.04777
3845.73456	0.04763
3844.44879	0.04807
3843.16302	0.04878
3841.87725	0.04930
3840.59149	0.04938
3839.30572	0.04920
3838.01995	0.04910
3836.73418	0.04924
3835.44841	0.04964
3834.16264	0.05023
3832.87687	0.05087
3831.59110	0.05138
3830.30534	0.05164
3829.01957	0.05173
3827.73380	0.05182
3826.44803	0.05192
3825.16226	0.05191
3823.87649	0.05165
3822.59072	0.05111
3821.30495	0.05038
3820.01918	0.04960
3818.73342	0.04883
3817.44765	0.04811
3816.16188	0.04755
3814.87611	0.04734
3813.59034	0.04763
3812.30457	0.04823
3811.01880	0.04878
3809.73303	0.04903
3808.44726	0.04903
3807.16150	0.04904
3805.87573	0.04924
3804.58996	0.04967
3803.30419	0.05018
3802.01842	0.05051
3800.73265	0.05040
3799.44688	0.04986
3798.16111	0.04922
3796.87535	0.04885
3795.58958	0.04878
3794.30381	0.04877
3793.01804	0.04855
3791.73227	0.04811
3790.44650	0.04763
3789.16073	0.04726
3787.87496	0.04700
3786.58919	0.04677
3785.30343	0.04648
3784.01766	0.04606
3782.73189	0.04566
3781.44612	0.04557
3780.16035	0.04594
3778.87458	0.04660
3777.58881	0.04715
3776.30304	0.04733
3775.01728	0.04726
3773.73151	0.04725
3772.44574	0.04752
3771.15997	0.04805
3769.87420	0.04859
3768.58843	0.04890
3767.30266	0.04890
3766.01689	0.04874
3764.73112	0.04861
3763.44536	0.04847
3762.15959	0.04807
3760.87382	0.04718
3759.58805	0.04595
3758.30228	0.04481
3757.01651	0.04422
3755.73074	0.04426
3754.44497	0.04467
3753.15921	0.04515
3751.87344	0.04557
3750.58767	0.04587
3749.30190	0.04600
3748.01613	0.04596
3746.73036	0.04601
3745.44459	0.04633
3744.15882	0.04674
3742.87305	0.04680
3741.58729	0.04630
3740.30152	0.04553
3739.01575	0.04496
3737.72998	0.04493
3736.44421	0.04545
3735.15844	0.04624
3733.87267	0.04687
3732.58690	0.04695
3731.30114	0.04645
3730.01537	0.04571
3728.72960	0.04510
3727.44383	0.04486
3726.15806	0.04506
3724.87229	0.04574
3723.58652	0.04673
3722.30075	0.04764
3721.01498	0.04817
3719.72922	0.04832
3718.44345	0.04831
3717.15768	0.04822
3715.87191	0.04794
3714.58614	0.04742
3713.30037	0.04679
3712.01460	0.04630
3710.72883	0.04610
3709.44307	0.04614
3708.15730	0.04621
3706.87153	0.04604
3705.58576	0.04552
3704.29999	0.04475
3703.01422	0.04406
3701.72845	0.04378
3700.44268	0.04402
3699.15691	0.04452
3697.87115	0.04489
3696.58538	0.04505
3695.29961	0.04522
3694.01384	0.04567
3692.72807	0.04642
3691.44230	0.04714
3690.15653	0.04740
3688.87076	0.04715
3687.58500	0.04667
3686.29923	0.04625
3685.01346	0.04602
3683.72769	0.04595
3682.44192	0.04604
3681.15615	0.04622
3679.87038	0.04629
3678.58461	0.04600
3677.29884	0.04539
3676.01308	0.04471
3674.72731	0.04431
3673.44154	0.04434
3672.15577	0.04473
3670.87000	0.04515
3669.58423	0.04518
3668.29846	0.04471
3667.01269	0.04402
3665.72693	0.04360
3664.44116	0.04372
3663.15539	0.04429
3661.86962	0.04504
3660.58385	0.04568
3659.29808	0.04605
3658.01231	0.04611
3656.72654	0.04600
3655.44077	0.04589
3654.15501	0.04600
3652.86924	0.04644
3651.58347	0.04716
3650.29770	0.04804
3649.01193	0.04885
3647.72616	0.04930
3646.44039	0.04915
3645.15462	0.04845
3643.86886	0.04768
3642.58309	0.04743
3641.29732	0.04781
3640.01155	0.04846
3638.72578	0.04898
3637.44001	0.04935
3636.15424	0.04978
3634.86847	0.05035
3633.58270	0.05088
3632.29694	0.05107
3631.01117	0.05089
3629.72540	0.05054
3628.43963	0.05027
3627.15386	0.05024
3625.86809	0.05052
3624.58232	0.05123
3623.29655	0.05235
3622.01079	0.05356
3620.72502	0.05449
3619.43925	0.05501
3618.15348	0.05523
3616.86771	0.05521
3615.58194	0.05501
3614.29617	0.05478
3613.01040	0.05473
3611.72463	0.05491
3610.43887	0.05523
3609.15310	0.05551
3607.86733	0.05560
3606.58156	0.05541
3605.29579	0.05498
3604.01002	0.05457
3602.72425	0.05434
3601.43848	0.05435
3600.15272	0.05454
3598.86695	0.05492
3597.58118	0.05547
3596.29541	0.05611
3595.00964	0.05668
3593.72387	0.05709
3592.43810	0.05743
3591.15233	0.05784
3589.86656	0.05828
3588.58080	0.05858
3587.29503	0.05864
3586.00926	0.05863
3584.72349	0.05882
3583.43772	0.05935
3582.15195	0.06005
3580.86618	0.06069
3579.58041	0.06105
3578.29464	0.06097
3577.00888	0.06042
3575.72311	0.05980
3574.43734	0.05977
3573.15157	0.06060
3571.86580	0.06194
3570.58003	0.06311
3569.29426	0.06372
3568.00849	0.06382
3566.72273	0.06360
3565.43696	0.06325
3564.15119	0.06292
3562.86542	0.06280
3561.57965	0.06305
3560.29388	0.06365
3559.00811	0.06437
3557.72234	0.06500
3556.43657	0.06541
3555.15081	0.06561
3553.86504	0.06575
3552.57927	0.06606
3551.29350	0.06671
3550.00773	0.06764
3548.72196	0.06859
3547.43619	0.06928
3546.15042	0.06959
3544.86466	0.06958
3543.57889	0.06940
3542.29312	0.06925
3541.00735	0.06918
3539.72158	0.06908
3538.43581	0.06889
3537.15004	0.06879
3535.86427	0.06904
3534.57850	0.06968
3533.29274	0.07042
3532.00697	0.07090
3530.72120	0.07101
3529.43543	0.07087
3528.14966	0.07068
3526.86389	0.07062
3525.57812	0.07070
3524.29235	0.07086
3523.00659	0.07110
3521.72082	0.07147
3520.43505	0.07200
3519.14928	0.07256
3517.86351	0.07301
3516.57774	0.07333
3515.29197	0.07366
3514.00620	0.07415
3512.72043	0.07472
3511.43467	0.07512
3510.14890	0.07520
3508.86313	0.07502
3507.57736	0.07481
3506.29159	0.07472
3505.00582	0.07475
3503.72005	0.07485
3502.43428	0.07503
3501.14852	0.07532
3499.86275	0.07572
3498.57698	0.07626
3497.29121	0.07695
3496.00544	0.07774
3494.71967	0.07846
3493.43390	0.07896
3492.14813	0.07921
3490.86236	0.07936
3489.57660	0.07953
3488.29083	0.07972
3487.00506	0.07979
3485.71929	0.07973
3484.43352	0.07955
3483.14775	0.07929
3481.86198	0.07904
3480.57621	0.07900
3479.29045	0.07934
3478.00468	0.07991
3476.71891	0.08037
3475.43314	0.08057
3474.14737	0.08070
3472.86160	0.08100
3471.57583	0.08142
3470.29006	0.08170
3469.00429	0.08176
3467.71853	0.08172
3466.43276	0.08165
3465.14699	0.08147
3463.86122	0.08116
3462.57545	0.08097
3461.28968	0.08116
3460.00391	0.08174
3458.71814	0.08243
3457.43238	0.08291
3456.14661	0.08303
3454.86084	0.08287
3453.57507	0.08274
3452.28930	0.08296
3451.00353	0.08360
3449.71776	0.08444
3448.43199	0.08511
3447.14622	0.08539
3445.86046	0.08538
3444.57469	0.08538
3443.28892	0.08565
3442.00315	0.08611
3440.71738	0.08643
3439.43161	0.08634
3438.14584	0.08586
3436.86007	0.08530
3435.57431	0.08501
3434.28854	0.08523
3433.00277	0.08592
3431.71700	0.08674
3430.43123	0.08731
3429.14546	0.08741
3427.85969	0.08716
3426.57392	0.08693
3425.28815	0.08702
3424.00239	0.08747
3422.71662	0.08804
3421.43085	0.08833
3420.14508	0.08812
3418.85931	0.08762
3417.57354	0.08728
3416.28777	0.08741
3415.00200	0.08792
3413.71624	0.08838
3412.43047	0.08855
3411.14470	0.08850
3409.85893	0.08848
3408.57316	0.08864
3407.28739	0.08894
3406.00162	0.08926
3404.71585	0.08947
3403.43008	0.08950
3402.14432	0.08933
3400.85855	0.08914
3399.57278	0.08915
3398.28701	0.08949
3397.00124	0.09001
3395.71547	0.09044
3394.42970	0.09056
3393.14393	0.09047
3391.85817	0.09038
3390.57240	0.09044
3389.28663	0.09057
3388.00086	0.09066
3386.71509	0.09068
3385.42932	0.09065
3384.14355	0.09063
3382.85778	0.09073
3381.57201	0.09107
3380.28625	0.09167
3379.00048	0.09230
3377.71471	0.09271
3376.42894	0.09283
3375.14317	0.09278
3373.85740	0.09271
3372.57163	0.09277
3371.28586	0.09310
3370.00010	0.09371
3368.71433	0.09431
3367.42856	0.09453
3366.14279	0.09421
3364.85702	0.09361
3363.57125	0.09314
3362.28548	0.09308
3360.99971	0.09332
3359.71394	0.09351
3358.42818	0.09332
3357.14241	0.09278
3355.85664	0.09226
3354.57087	0.09222
3353.28510	0.09281
3351.99933	0.09367
3350.71356	0.09427
3349.42779	0.09435
3348.14202	0.09411
3346.85626	0.09389
3345.57049	0.09383
3344.28472	0.09385
3342.99895	0.09382
3341.71318	0.09368
3340.42741	0.09339
3339.14164	0.09296
3337.85587	0.09260
3336.57011	0.09255
3335.28434	0.09287
3333.99857	0.09329
3332.71280	0.09344
3331.42703	0.09311
3330.14126	0.09251
3328.85549	0.09203
3327.56972	0.09192
3326.28395	0.09206
3324.99819	0.09216
3323.71242	0.09207
3322.42665	0.09189
3321.14088	0.09186
3319.85511	0.09210
3318.56934	0.09260
3317.28357	0.09315
3315.99780	0.09350
3314.71204	0.09353
3313.42627	0.09333
3312.14050	0.09316
3310.85473	0.09316
3309.56896	0.09327
3308.28319	0.09332
3306.99742	0.09324
3305.71165	0.09314
3304.42588	0.09311
3303.14012	0.09313
3301.85435	0.09310
3300.56858	0.09304
3299.28281	0.09316
3297.99704	0.09351
3296.71127	0.09392
3295.42550	0.09407
3294.13973	0.09384
3292.85397	0.09340
3291.56820	0.09298
3290.28243	0.09271
3288.99666	0.09257
3287.71089	0.09247
3286.42512	0.09228
3285.13935	0.09193
3283.85358	0.09149
3282.56781	0.09113
3281.28205	0.09103
3279.99628	0.09126
3278.71051	0.09166
3277.42474	0.09199
3276.13897	0.09206
3274.85320	0.09183
3273.56743	0.09136
3272.28166	0.09079
3270.99590	0.09033
3269.71013	0.09017
3268.42436	0.09031
3267.13859	0.09058
3265.85282	0.09082
3264.56705	0.09097
3263.28128	0.09103
3261.99551	0.09095
3260.70974	0.09076
3259.42398	0.09061
3258.13821	0.09062
3256.85244	0.09067
3255.56667	0.09060
3254.28090	0.09042
3252.99513	0.09032
3251.70936	0.09035
3250.42359	0.09035
3249.13783	0.09012
3247.85206	0.08971
3246.56629	0.08931
3245.28052	0.08903
3243.99475	0.08884
3242.70898	0.08865
3241.42321	0.08850
3240.13744	0.08846
3238.85167	0.08855
3237.56591	0.08868
3236.28014	0.08867
3234.99437	0.08844
3233.70860	0.08813
3232.42283	0.08797
3231.13706	0.08808
3229.85129	0.08827
3228.56552	0.08824
3227.27976	0.08795
3225.99399	0.08769
3224.70822	0.08767
3223.42245	0.08772
3222.13668	0.08757
3220.85091	0.08722
3219.56514	0.08702
3218.27937	0.08727
3216.99360	0.08792
3215.70784	0.08852
3214.42207	0.08858
3213.13630	0.08795
3211.85053	0.08700
3210.56476	0.08631
3209.27899	0.08623
3207.99322	0.08659
3206.70745	0.08696
3205.42169	0.08701
3204.13592	0.08671
3202.85015	0.08626
3201.56438	0.08585
3200.27861	0.08555
3198.99284	0.08529
3197.70707	0.08499
3196.42130	0.08462
3195.13553	0.08427
3193.84977	0.08407
3192.56400	0.08402
3191.27823	0.08388
3189.99246	0.08347
3188.70669	0.08293
3187.42092	0.08268
3186.13515	0.08295
3184.84938	0.08354
3183.56362	0.08398
3182.27785	0.08402
3180.99208	0.08371
3179.70631	0.08324
3178.42054	0.08273
3177.13477	0.08228
3175.84900	0.08202
3174.56323	0.08203
3173.27746	0.08220
3171.99170	0.08227
3170.70593	0.08206
3169.42016	0.08162
3168.13439	0.08118
3166.84862	0.08096
3165.56285	0.08099
3164.27708	0.08114
3162.99131	0.08129
3161.70555	0.08138
3160.41978	0.08142
3159.13401	0.08148
3157.84824	0.08159
3156.56247	0.08174
3155.27670	0.08187
3153.99093	0.08187
3152.70516	0.08161
3151.41939	0.08103
3150.13363	0.08019
3148.84786	0.07934
3147.56209	0.07870
3146.27632	0.07833
3144.99055	0.07821
3143.70478	0.07831
3142.41901	0.07864
3141.13324	0.07913
3139.84748	0.07956
3138.56171	0.07967
3137.27594	0.07938
3135.99017	0.07881
3134.70440	0.07823
3133.41863	0.07781
3132.13286	0.07749
3130.84709	0.07712
3129.56132	0.07671
3128.27556	0.07633
3126.98979	0.07607
3125.70402	0.07589
3124.41825	0.07569
3123.13248	0.07545
3121.84671	0.07530
3120.56094	0.07536
3119.27517	0.07567
3117.98940	0.07607
3116.70364	0.07637
3115.41787	0.07646
3114.13210	0.07638
3112.84633	0.07619
3111.56056	0.07599
3110.27479	0.07588
3108.98902	0.07586
3107.70325	0.07581
3106.41749	0.07564
3105.13172	0.07538
3103.84595	0.07516
3102.56018	0.07503
3101.27441	0.07491
3099.98864	0.07474
3098.70287	0.07454
3097.41710	0.07440
3096.13133	0.07441
3094.84557	0.07457
3093.55980	0.07479
3092.27403	0.07490
3090.98826	0.07480
3089.70249	0.07455
3088.41672	0.07429
3087.13095	0.07413
3085.84518	0.07406
3084.55942	0.07400
3083.27365	0.07386
3081.98788	0.07365
3080.70211	0.07350
3079.41634	0.07351
3078.13057	0.07355
3076.84480	0.07339
3075.55903	0.07298
3074.27326	0.07252
3072.98750	0.07222
3071.70173	0.07208
3070.41596	0.07201
3069.13019	0.07206
3067.84442	0.07232
3066.55865	0.07281
3065.27288	0.07331
3063.98711	0.07351
3062.70135	0.07326
3061.41558	0.07270
3060.12981	0.07215
3058.84404	0.07185
3057.55827	0.07180
3056.27250	0.07188
3054.98673	0.07197
3053.70096	0.07196
3052.41519	0.07181
3051.12943	0.07157
3049.84366	0.07130
3048.55789	0.07096
3047.27212	0.07051
3045.98635	0.07002
3044.70058	0.06963
3043.41481	0.06934
3042.12904	0.06907
3040.84328	0.06882
3039.55751	0.06862
3038.27174	0.06848
3036.98597	0.06834
3035.70020	0.06811
3034.41443	0.06789
3033.12866	0.06782
3031.84289	0.06796
3030.55712	0.06825
3029.27136	0.06858
3027.98559	0.06882
3026.69982	0.06883
3025.41405	0.06854
3024.12828	0.06807
3022.84251	0.06767
3021.55674	0.06753
3020.27097	0.06765
3018.98521	0.06784
3017.69944	0.06791
3016.41367	0.06779
3015.12790	0.06761
3013.84213	0.06758
3012.55636	0.06773
3011.27059	0.06788
3009.98482	0.06778
3008.69905	0.06737
3007.41329	0.06677
3006.12752	0.06622
3004.84175	0.06590
3003.55598	0.06586
3002.27021	0.06603
3000.98444	0.06627
2999.69867	0.06642
2998.41290	0.06640
2997.12714	0.06622
2995.84137	0.06597
2994.55560	0.06576
2993.26983	0.06564
2991.98406	0.06558
2990.69829	0.06557
2989.41252	0.06561
2988.12675	0.06576
2986.84098	0.06604
2985.55522	0.06634
2984.26945	0.06654
2982.98368	0.06657
2981.69791	0.06659
2980.41214	0.06676
2979.12637	0.06716
2977.84060	0.06768
2976.55483	0.06821
2975.26907	0.06872
2973.98330	0.06925
2972.69753	0.06982
2971.41176	0.07038
2970.12599	0.07085
2968.84022	0.07128
2967.55445	0.07181
2966.26868	0.07253
2964.98291	0.07336
2963.69715	0.07411
2962.41138	0.07474
2961.12561	0.07531
2959.83984	0.07595
2958.55407	0.07666
2957.26830	0.07723
2955.98253	0.07743
2954.69676	0.07722
2953.41100	0.07683
2952.12523	0.07658
2950.83946	0.07657
2949.55369	0.07671
2948.26792	0.07687
2946.98215	0.07697
2945.69638	0.07699
2944.41061	0.07694
2943.12484	0.07692
2941.83908	0.07700
2940.55331	0.07722
2939.26754	0.07753
2937.98177	0.07788
2936.69600	0.07829
2935.41023	0.07882
2934.12446	0.07949
2932.83869	0.08020
2931.55293	0.08078
2930.26716	0.08112
2928.98139	0.08126
2927.69562	0.08136
2926.40985	0.08158
2925.12408	0.08194
2923.83831	0.08227
2922.55254	0.08238
2921.26677	0.08223
2919.98101	0.08186
2918.69524	0.08133
2917.40947	0.08071
2916.12370	0.08009
2914.83793	0.07957
2913.55216	0.07909
2912.26639	0.07846
2910.98062	0.07751
2909.69486	0.07626
2908.40909	0.07496
2907.12332	0.07394
2905.83755	0.07335
2904.55178	0.07312
2903.26601	0.07305
2901.98024	0.07295
2900.69447	0.07270
2899.40870	0.07226
2898.12294	0.07173
2896.83717	0.07121
2895.55140	0.07074
2894.26563	0.07031
2892.97986	0.06991
2891.69409	0.06958
2890.40832	0.06933
2889.12255	0.06915
2887.83678	0.06900
2886.55102	0.06883
2885.26525	0.06855
2883.97948	0.06814
2882.69371	0.06772
2881.40794	0.06756
2880.12217	0.06778
2878.83640	0.06822
2877.55063	0.06862
2876.26487	0.06875
2874.97910	0.06859
2873.69333	0.06822
2872.40756	0.06783
2871.12179	0.06765
2869.83602	0.06780
2868.55025	0.06818
2867.26448	0.06852
2865.97871	0.06855
2864.69295	0.06822
2863.40718	0.06776
2862.12141	0.06749
2860.83564	0.06749
2859.54987	0.06765
2858.26410	0.06780
2856.97833	0.06790
2855.69256	0.06790
2854.40680	0.06774
2853.12103	0.06740
2851.83526	0.06698
2850.54949	0.06650
2849.26372	0.06594
2847.97795	0.06529
2846.69218	0.06464
2845.40641	0.06406
2844.12064	0.06353
2842.83488	0.06298
2841.54911	0.06239
2840.26334	0.06175
2838.97757	0.06106
2837.69180	0.06032
2836.40603	0.05964
2835.12026	0.05915
2833.83449	0.05883
2832.54873	0.05850
2831.26296	0.05799
2829.97719	0.05725
2828.69142	0.05646
2827.40565	0.05580
2826.11988	0.05538
2824.83411	0.05514
2823.54834	0.05501
2822.26257	0.05493
2820.97681	0.05492
2819.69104	0.05498
2818.40527	0.05504
2817.11950	0.05501
2815.83373	0.05482
2814.54796	0.05450
2813.26219	0.05412
2811.97642	0.05382
2810.69066	0.05368
2809.40489	0.05374
2808.11912	0.05394
2806.83335	0.05413
2805.54758	0.05419
2804.26181	0.05410
2802.97604	0.05391
2801.69027	0.05371
2800.40450	0.05346
2799.11874	0.05311
2797.83297	0.05269
2796.54720	0.05228
2795.26143	0.05193
2793.97566	0.05166
2792.68989	0.05152
2791.40412	0.05158
2790.11835	0.05182
2788.83259	0.05212
2787.54682	0.05226
2786.26105	0.05216
2784.97528	0.05193
2783.68951	0.05176
2782.40374	0.05174
2781.11797	0.05176
2779.83220	0.05168
2778.54643	0.05145
2777.26067	0.05113
2775.97490	0.05081
2774.68913	0.05057
2773.40336	0.05047
2772.11759	0.05045
2770.83182	0.05040
2769.54605	0.05027
2768.26028	0.05005
2766.97452	0.04985
2765.68875	0.04974
2764.40298	0.04973
2763.11721	0.04972
2761.83144	0.04959
2760.54567	0.04928
2759.25990	0.04889
2757.97413	0.04857
2756.68836	0.04841
2755.40260	0.04839
2754.11683	0.04848
2752.83106	0.04867
2751.54529	0.04894
2750.25952	0.04915
2748.97375	0.04917
2747.68798	0.04900
2746.40221	0.04878
2745.11645	0.04868
2743.83068	0.04868
2742.54491	0.04867
2741.25914	0.04859
2739.97337	0.04851
2738.68760	0.04850
2737.40183	0.04853
2736.11606	0.04850
2734.83029	0.04839
2733.54453	0.04823
2732.25876	0.04808
2730.97299	0.04790
2729.68722	0.04774
2728.40145	0.04766
2727.11568	0.04769
2725.82991	0.04770
2724.54414	0.04751
2723.25838	0.04712
2721.97261	0.04673
2720.68684	0.04654
2719.40107	0.04657
2718.11530	0.04668
2716.82953	0.04673
2715.54376	0.04666
2714.25799	0.04649
2712.97222	0.04626
2711.68646	0.04607
2710.40069	0.04597
2709.11492	0.04594
2707.82915	0.04592
2706.54338	0.04592
2705.25761	0.04597
2703.97184	0.04608
2702.68607	0.04619
2701.40031	0.04625
2700.11454	0.04624
2698.82877	0.04615
2697.54300	0.04599
2696.25723	0.04578
2694.97146	0.04558
2693.68569	0.04542
2692.39992	0.04526
2691.11415	0.04503
2689.82839	0.04472
2688.54262	0.04445
2687.25685	0.04433
2685.97108	0.04441
2684.68531	0.04457
2683.39954	0.04470
2682.11377	0.04475
2680.82800	0.04478
2679.54224	0.04482
2678.25647	0.04484
2676.97070	0.04480
2675.68493	0.04476
2674.39916	0.04473
2673.11339	0.04465
2671.82762	0.04443
2670.54185	0.04410
2669.25608	0.04382
2667.97032	0.04371
2666.68455	0.04379
2665.39878	0.04397
2664.11301	0.04411
2662.82724	0.04416
2661.54147	0.04412
2660.25570	0.04404
2658.96993	0.04395
2657.68417	0.04387
2656.39840	0.04378
2655.11263	0.04367
2653.82686	0.04351
2652.54109	0.04326
2651.25532	0.04292
2649.96955	0.04258
2648.68378	0.04237
2647.39801	0.04230
2646.11225	0.04228
2644.82648	0.04220
2643.54071	0.04209
2642.25494	0.04200
2640.96917	0.04188
2639.68340	0.04166
2638.39763	0.04139
2637.11186	0.04114
2635.82609	0.04095
2634.54033	0.04077
2633.25456	0.04065
2631.96879	0.04066
2630.68302	0.04080
2629.39725	0.04098
2628.11148	0.04115
2626.82571	0.04125
2625.53994	0.04120
2624.25418	0.04090
2622.96841	0.04039
2621.68264	0.03988
2620.39687	0.03952
2619.11110	0.03922
2617.82533	0.03889
2616.53956	0.03858
2615.25379	0.03847
2613.96802	0.03857
2612.68226	0.03873
2611.39649	0.03878
2610.11072	0.03880
2608.82495	0.03896
2607.53918	0.03922
2606.25341	0.03935
2604.96764	0.03908
2603.68187	0.03845
2602.39611	0.03784
2601.11034	0.03757
2599.82457	0.03759
2598.53880	0.03755
2597.25303	0.03722
2595.96726	0.03674
2594.68149	0.03642
2593.39572	0.03644
2592.10995	0.03664
2590.82419	0.03673
2589.53842	0.03656
2588.25265	0.03627
2586.96688	0.03609
2585.68111	0.03604
2584.39534	0.03592
2583.10957	0.03558
2581.82380	0.03510
2580.53804	0.03472
2579.25227	0.03466
2577.96650	0.03497
2576.68073	0.03551
2575.39496	0.03602
2574.10919	0.03628
2572.82342	0.03623
2571.53765	0.03599
2570.25188	0.03575
2568.96612	0.03567
2567.68035	0.03567
2566.39458	0.03557
2565.10881	0.03538
2563.82304	0.03525
2562.53727	0.03529
2561.25150	0.03537
2559.96573	0.03524
2558.67997	0.03485
2557.39420	0.03434
2556.10843	0.03400
2554.82266	0.03394
2553.53689	0.03411
2552.25112	0.03435
2550.96535	0.03453
2549.67958	0.03454
2548.39381	0.03430
2547.10805	0.03385
2545.82228	0.03336
2544.53651	0.03300
2543.25074	0.03285
2541.96497	0.03293
2540.67920	0.03324
2539.39343	0.03364
2538.10766	0.03379
2536.82190	0.03355
2535.53613	0.03310
2534.25036	0.03282
2532.96459	0.03291
2531.67882	0.03328
2530.39305	0.03373
2529.10728	0.03411
2527.82151	0.03435
2526.53574	0.03431
2525.24998	0.03395
2523.96421	0.03337
2522.67844	0.03279
2521.39267	0.03235
2520.10690	0.03211
2518.82113	0.03207
2517.53536	0.03217
2516.24959	0.03230
2514.96383	0.03238
2513.67806	0.03245
2512.39229	0.03252
2511.10652	0.03256
2509.82075	0.03249
2508.53498	0.03232
2507.24921	0.03216
2505.96344	0.03207
2504.67767	0.03210
2503.39191	0.03223
2502.10614	0.03242
2500.82037	0.03252
2499.53460	0.03239
2498.24883	0.03203
2496.96306	0.03157
2495.67729	0.03118
2494.39152	0.03092
2493.10576	0.03086
2491.81999	0.03102
2490.53422	0.03131
2489.24845	0.03154
2487.96268	0.03169
2486.67691	0.03187
2485.39114	0.03210
2484.10537	0.03222
2482.81960	0.03207
2481.53384	0.03171
2480.24807	0.03134
2478.96230	0.03122
2477.67653	0.03144
2476.39076	0.03188
2475.10499	0.03224
2473.81922	0.03228
2472.53345	0.03201
2471.24769	0.03165
2469.96192	0.03140
2468.67615	0.03130
2467.39038	0.03127
2466.10461	0.03131
2464.81884	0.03151
2463.53307	0.03184
2462.24730	0.03207
2460.96153	0.03202
2459.67577	0.03176
2458.39000	0.03159
2457.10423	0.03163
2455.81846	0.03179
2454.53269	0.03191
2453.24692	0.03195
2451.96115	0.03191
2450.67538	0.03173
2449.38962	0.03141
2448.10385	0.03106
2446.81808	0.03091
2445.53231	0.03100
2444.24654	0.03118
2442.96077	0.03120
2441.67500	0.03098
2440.38923	0.03055
2439.10346	0.03003
2437.81770	0.02946
2436.53193	0.02889
2435.24616	0.02843
2433.96039	0.02829
2432.67462	0.02858
2431.38885	0.02914
2430.10308	0.02966
2428.81731	0.02996
2427.53155	0.03009
2426.24578	0.03003
2424.96001	0.02975
2423.67424	0.02937
2422.38847	0.02918
2421.10270	0.02935
2419.81693	0.02969
2418.53116	0.02990
2417.24539	0.02986
2415.95963	0.02964
2414.67386	0.02932
2413.38809	0.02902
2412.10232	0.02887
2410.81655	0.02905
2409.53078	0.02954
2408.24501	0.03012
2406.95924	0.03043
2405.67347	0.03029
2404.38771	0.02980
2403.10194	0.02924
2401.81617	0.02887
2400.53040	0.02877
2399.24463	0.02883
2397.95886	0.02894
2396.67309	0.02900
2395.38732	0.02895
2394.10156	0.02886
2392.81579	0.02889
2391.53002	0.02911
2390.24425	0.02945
2388.95848	0.02972
2387.67271	0.02973
2386.38694	0.02951
2385.10117	0.02925
2383.81540	0.02915
2382.52964	0.02931
2381.24387	0.02967
2379.95810	0.03012
2378.67233	0.03066
2377.38656	0.03133
2376.10079	0.03210
2374.81502	0.03281
2373.52925	0.03338
2372.24349	0.03379
2370.95772	0.03419
2369.67195	0.03456
2368.38618	0.03496
2367.10041	0.03545
2365.81464	0.03606
2364.52887	0.03659
2363.24310	0.03699
2361.95733	0.03722
2360.67157	0.03735
2359.38580	0.03727
2358.10003	0.03709
2356.81426	0.03684
2355.52849	0.03644
2354.24272	0.03590
2352.95695	0.03524
2351.67118	0.03466
2350.38542	0.03427
2349.09965	0.03399
2347.81388	0.03378
2346.52811	0.03390
2345.24234	0.03429
2343.95657	0.03466
2342.67080	0.03483
2341.38503	0.03511
2340.09926	0.03559
2338.81350	0.03586
2337.52773	0.03579
2336.24196	0.03582
2334.95619	0.03596
2333.67042	0.03584
2332.38465	0.03544
2331.09888	0.03541
2329.81311	0.03540
2328.52735	0.03493
2327.24158	0.03498
2325.95581	0.03532
2324.67004	0.03504
2323.38427	0.03468
2322.09850	0.03438
2320.81273	0.03360
2319.52696	0.03313
2318.24119	0.03289
2316.95543	0.03229
2315.66966	0.03177
2314.38389	0.03127
2313.09812	0.03071
2311.81235	0.03050
2310.52658	0.03033
2309.24081	0.03014
2307.95504	0.02997
2306.66928	0.02969
2305.38351	0.02952
2304.09774	0.02936
2302.81197	0.02907
2301.52620	0.02868
2300.24043	0.02824
2298.95466	0.02799
2297.66889	0.02799
2296.38312	0.02817
2295.09736	0.02831
2293.81159	0.02828
2292.52582	0.02814
2291.24005	0.02803
2289.95428	0.02799
2288.66851	0.02788
2287.38274	0.02757
2286.09697	0.02716
2284.81121	0.02691
2283.52544	0.02696
2282.23967	0.02714
2280.95390	0.02704
2279.66813	0.02643
2278.38236	0.02557
2277.09659	0.02505
2275.81082	0.02523
2274.52505	0.02585
2273.23929	0.02632
2271.95352	0.02628
2270.66775	0.02586
2269.38198	0.02537
2268.09621	0.02496
2266.81044	0.02456
2265.52467	0.02400
2264.23890	0.02327
2262.95314	0.02257
2261.66737	0.02218
2260.38160	0.02219
2259.09583	0.02247
2257.81006	0.02276
2256.52429	0.02290
2255.23852	0.02285
2253.95275	0.02270
2252.66698	0.02260
2251.38122	0.02261
2250.09545	0.02254
2248.80968	0.02221
2247.52391	0.02181
2246.23814	0.02121
2244.95237	0.02051
2243.66660	0.02008
2242.38083	0.02034
2241.09507	0.02126
2239.80930	0.02224
2238.52353	0.02251
2237.23776	0.02181
2235.95199	0.02062
2234.66622	0.01964
2233.38045	0.01924
2232.09468	0.01927
2230.80891	0.01942
2229.52315	0.01944
2228.23738	0.01930
2226.95161	0.01913
2225.66584	0.01918
2224.38007	0.01945
2223.09430	0.01970
2221.80853	0.01978
2220.52276	0.01992
2219.23700	0.02032
2217.95123	0.02063
2216.66546	0.02025
2215.37969	0.01921
2214.09392	0.01827
2212.80815	0.01818
2211.52238	0.01876
2210.23661	0.01926
2208.95084	0.01908
2207.66508	0.01835
2206.37931	0.01767
2205.09354	0.01747
2203.80777	0.01765
2202.52200	0.01786
2201.23623	0.01785
2199.95046	0.01771
2198.66469	0.01752
2197.37893	0.01711
2196.09316	0.01627
2194.80739	0.01517
2193.52162	0.01438
2192.23585	0.01423
2190.95008	0.01452
2189.66431	0.01482
2188.37854	0.01505
2187.09277	0.01534
2185.80701	0.01569
2184.52124	0.01590
2183.23547	0.01597
2181.94970	0.01616
2180.66393	0.01666
2179.37816	0.01718
2178.09239	0.01728
2176.80662	0.01685
2175.52085	0.01623
2174.23509	0.01559
2172.94932	0.01465
2171.66355	0.01317
2170.37778	0.01156
2169.09201	0.01070
2167.80624	0.01123
2166.52047	0.01305
2165.23470	0.01531
2163.94894	0.01669
2162.66317	0.01603
2161.37740	0.01307
2160.09163	0.00903
2158.80586	0.00594
2157.52009	0.00510
2156.23432	0.00602
2154.94855	0.00741
2153.66278	0.00862
2152.37702	0.00972
2151.09125	0.01067
2149.80548	0.01102
2148.51971	0.01047
2147.23394	0.00947
2145.94817	0.00888
2144.66240	0.00926
2143.37663	0.01046
2142.09087	0.01196
2140.80510	0.01327
2139.51933	0.01426
2138.23356	0.01500
2136.94779	0.01544
2135.66202	0.01533
2134.37625	0.01461
2133.09048	0.01372
2131.80471	0.01328
2130.51895	0.01346
2129.23318	0.01389
2127.94741	0.01416
2126.66164	0.01426
2125.37587	0.01437
2124.09010	0.01456
2122.80433	0.01479
2121.51856	0.01514
2120.23280	0.01571
2118.94703	0.01642
2117.66126	0.01703
2116.37549	0.01738
2115.08972	0.01746
2113.80395	0.01739
2112.51818	0.01727
2111.23241	0.01709
2109.94664	0.01672
2108.66088	0.01614
2107.37511	0.01558
2106.08934	0.01533
2104.80357	0.01539
2103.51780	0.01546
2102.23203	0.01532
2100.94626	0.01496
2099.66049	0.01396
2098.37473	0.01335
2097.08896	0.01317
2095.80319	0.01323
2094.51742	0.01359
2093.23165	0.01436
2091.94588	0.01550
2090.66011	0.01663
2089.37434	0.01732
2088.08857	0.01735
2086.80281	0.01690
2085.51704	0.01630
2084.23127	0.01576
2082.94550	0.01535
2081.65973	0.01501
2080.37396	0.01468
2079.08819	0.01423
2077.80242	0.01369
2076.51666	0.01328
2075.23089	0.01330
2073.94512	0.01376
2072.65935	0.01435
2071.37358	0.01463
2070.08781	0.01435
2068.80204	0.01357
2067.51627	0.01266
2066.23050	0.01205
2064.94474	0.01199
2063.65897	0.01232
2062.37320	0.01269
2061.08743	0.01283
2059.80166	0.01287
2058.51589	0.01304
2057.23012	0.01340
2055.94435	0.01364
2054.65859	0.01342
2053.37282	0.01272
2052.08705	0.01179
2050.80128	0.01083
2049.51551	0.00985
2048.22974	0.00883
2046.94397	0.00792
2045.65820	0.00727
2044.37243	0.00683
2043.08667	0.00639
2041.80090	0.00595
2040.51513	0.00589
2039.22936	0.00653
2037.94359	0.00753
2036.65782	0.00801
2035.37205	0.00741
2034.08628	0.00606
2032.80052	0.00480
2031.51475	0.00414
2030.22898	0.00392
2028.94321	0.00375
2027.65744	0.00360
2026.37167	0.00385
2025.08590	0.00457
2023.80013	0.00529
2022.51436	0.00546
2021.22860	0.00524
2019.94283	0.00532
2018.65706	0.00609
2017.37129	0.00714
2016.08552	0.00770
2014.79975	0.00739
2013.51398	0.00645
2012.22821	0.00546
2010.94245	0.00478
2009.65668	0.00453
2008.37091	0.00486
2007.08514	0.00589
2005.79937	0.00737
2004.51360	0.00865
2003.22783	0.00925
2001.94206	0.00923
2000.65629	0.00903
1999.37053	0.00904
1998.08476	0.00937
1996.79899	0.00988
1995.51322	0.01041
1994.22745	0.01092
1992.94168	0.01153
1991.65591	0.01223
1990.37014	0.01275
1989.08438	0.01278
1987.79861	0.01228
1986.51284	0.01164
1985.22707	0.01129
1983.94130	0.01138
1982.65553	0.01159
1981.36976	0.01153
1980.08399	0.01103
1978.79822	0.01016
1977.51246	0.00901
1976.22669	0.00786
1974.94092	0.00723
1973.65515	0.00765
1972.36938	0.00904
1971.08361	0.01052
1969.79784	0.01108
1968.51207	0.01036
1967.22631	0.00886
1965.94054	0.00762
1964.65477	0.00752
1963.36900	0.00865
1962.08323	0.01022
1960.79746	0.01126
1959.51169	0.01150
1958.22592	0.01142
1956.94015	0.01158
1955.65439	0.01195
1954.36862	0.01220
1953.08285	0.01220
1951.79708	0.01220
1950.51131	0.01240
1949.22554	0.01280
1947.93977	0.01333
1946.65400	0.01395
1945.36823	0.01454
1944.08247	0.01484
1942.79670	0.01469
1941.51093	0.01420
1940.22516	0.01364
1938.93939	0.01315
1937.65362	0.01274
1936.36785	0.01243
1935.08208	0.01239
1933.79632	0.01281
1932.51055	0.01367
1931.22478	0.01458
1929.93901	0.01510
1928.65324	0.01498
1927.36747	0.01441
1926.08170	0.01380
1924.79593	0.01347
1923.51016	0.01353
1922.22440	0.01387
1920.93863	0.01433
1919.65286	0.01470
1918.36709	0.01486
1917.08132	0.01488
1915.79555	0.01497
1914.50978	0.01523
1913.22401	0.01558
1911.93825	0.01579
1910.65248	0.01572
1909.36671	0.01539
1908.08094	0.01502
1906.79517	0.01485
1905.50940	0.01497
1904.22363	0.01517
1902.93786	0.01514
1901.65209	0.01485
1900.36633	0.01459
1899.08056	0.01470
1897.79479	0.01512
1896.50902	0.01549
1895.22325	0.01555
1893.93748	0.01534
1892.65171	0.01511
1891.36594	0.01500
1890.08018	0.01505
1888.79441	0.01519
1887.50864	0.01537
1886.22287	0.01552
1884.93710	0.01559
1883.65133	0.01558
1882.36556	0.01553
1881.07979	0.01547
1879.79402	0.01536
1878.50826	0.01520
1877.22249	0.01503
1875.93672	0.01493
1874.65095	0.01493
1873.36518	0.01504
1872.07941	0.01524
1870.79364	0.01552
1869.50787	0.01583
1868.22211	0.01609
1866.93634	0.01620
1865.65057	0.01613
1864.36480	0.01595
1863.07903	0.01576
1861.79326	0.01565
1860.50749	0.01560
1859.22172	0.01560
1857.93595	0.01565
1856.65019	0.01576
1855.36442	0.01586
1854.07865	0.01590
1852.79288	0.01591
1851.50711	0.01598
1850.22134	0.01616
1848.93557	0.01636
1847.64980	0.01647
1846.36404	0.01644
1845.07827	0.01629
1843.79250	0.01606
1842.50673	0.01581
1841.22096	0.01564
1839.93519	0.01557
1838.64942	0.01558
1837.36365	0.01560
1836.07788	0.01566
1834.79212	0.01580
1833.50635	0.01605
1832.22058	0.01634
1830.93481	0.01656
1829.64904	0.01662
1828.36327	0.01648
1827.07750	0.01619
1825.79173	0.01591
1824.50597	0.01576
1823.22020	0.01576
1821.93443	0.01575
1820.64866	0.01563
1819.36289	0.01543
1818.07712	0.01529
1816.79135	0.01538
1815.50558	0.01568
1814.21981	0.01608
1812.93405	0.01641
1811.64828	0.01659
1810.36251	0.01663
1809.07674	0.01662
1807.79097	0.01662
1806.50520	0.01665
1805.21943	0.01673
1803.93366	0.01683
1802.64790	0.01693
1801.36213	0.01697
1800.07636	0.01695
1798.79059	0.01688
1797.50482	0.01683
1796.21905	0.01682
1794.93328	0.01683
1793.64751	0.01681
1792.36174	0.01676
1791.07598	0.01671
1789.79021	0.01670
1788.50444	0.01669
1787.21867	0.01670
1785.93290	0.01673
1784.64713	0.01682
1783.36136	0.01695
1782.07559	0.01710
1780.78983	0.01722
1779.50406	0.01724
1778.21829	0.01714
1776.93252	0.01701
1775.64675	0.01697
1774.36098	0.01711
1773.07521	0.01737
1771.78944	0.01763
1770.50367	0.01781
1769.21791	0.01791
1767.93214	0.01798
1766.64637	0.01803
1765.36060	0.01808
1764.07483	0.01810
1762.78906	0.01809
1761.50329	0.01809
1760.21752	0.01814
1758.93176	0.01823
1757.64599	0.01834
1756.36022	0.01842
1755.07445	0.01847
1753.78868	0.01849
1752.50291	0.01852
1751.21714	0.01854
1749.93137	0.01852
1748.64560	0.01848
1747.35984	0.01847
1746.07407	0.01856
1744.78830	0.01870
1743.50253	0.01885
1742.21676	0.01895
1740.93099	0.01902
1739.64522	0.01906
1738.35945	0.01910
1737.07369	0.01914
1735.78792	0.01917
1734.50215	0.01924
1733.21638	0.01939
1731.93061	0.01963
1730.64484	0.01990
1729.35907	0.02014
1728.07330	0.02032
1726.78753	0.02047
1725.50177	0.02061
1724.21600	0.02079
1722.93023	0.02098
1721.64446	0.02115
1720.35869	0.02128
1719.07292	0.02138
1717.78715	0.02154
1716.50138	0.02183
1715.21561	0.02226
1713.92985	0.02280
1712.64408	0.02337
1711.35831	0.02392
1710.07254	0.02442
1708.78677	0.02492
1707.50100	0.02546
1706.21523	0.02608
1704.92946	0.02669
1703.64370	0.02725
1702.35793	0.02780
1701.07216	0.02842
1699.78639	0.02914
1698.50062	0.02993
1697.21485	0.03075
1695.92908	0.03162
1694.64331	0.03253
1693.35754	0.03343
1692.07178	0.03425
1690.78601	0.03497
1689.50024	0.03569
1688.21447	0.03645
1686.92870	0.03728
1685.64293	0.03815
1684.35716	0.03903
1683.07139	0.03989
1681.78563	0.04072
1680.49986	0.04153
1679.21409	0.04232
1677.92832	0.04313
1676.64255	0.04395
1675.35678	0.04478
1674.07101	0.04562
1672.78524	0.04645
1671.49947	0.04727
1670.21371	0.04809
1668.92794	0.04892
1667.64217	0.04976
1666.35640	0.05054
1665.07063	0.05126
1663.78486	0.05195
1662.49909	0.05265
1661.21332	0.05338
1659.92756	0.05410
1658.64179	0.05475
1657.35602	0.05527
1656.07025	0.05563
1654.78448	0.05588
1653.49871	0.05612
1652.21294	0.05646
1650.92717	0.05689
1649.64140	0.05732
1648.35564	0.05764
1647.06987	0.05783
1645.78410	0.05792
1644.49833	0.05798
1643.21256	0.05806
1641.92679	0.05817
1640.64102	0.05828
1639.35525	0.05832
1638.06949	0.05826
1636.78372	0.05810
1635.49795	0.05790
1634.21218	0.05768
1632.92641	0.05743
1631.64064	0.05715
1630.35487	0.05689
1629.06910	0.05670
1627.78333	0.05658
1626.49757	0.05644
1625.21180	0.05621
1623.92603	0.05590
1622.64026	0.05554
1621.35449	0.05520
1620.06872	0.05488
1618.78295	0.05462
1617.49718	0.05446
1616.21142	0.05441
1614.92565	0.05445
1613.63988	0.05450
1612.35411	0.05451
1611.06834	0.05449
1609.78257	0.05445
1608.49680	0.05443
1607.21103	0.05446
1605.92526	0.05455
1604.63950	0.05469
1603.35373	0.05490
1602.06796	0.05514
1600.78219	0.05540
1599.49642	0.05565
1598.21065	0.05590
1596.92488	0.05613
1595.63911	0.05634
1594.35335	0.05652
1593.06758	0.05671
1591.78181	0.05697
1590.49604	0.05729
1589.21027	0.05766
1587.92450	0.05806
1586.63873	0.05849
1585.35296	0.05893
1584.06719	0.05937
1582.78143	0.05978
1581.49566	0.06019
1580.20989	0.06061
1578.92412	0.06105
1577.63835	0.06151
1576.35258	0.06196
1575.06681	0.06242
1573.78104	0.06286
1572.49528	0.06328
1571.20951	0.06366
1569.92374	0.06403
1568.63797	0.06440
1567.35220	0.06479
1566.06643	0.06516
1564.78066	0.06547
1563.49489	0.06570
1562.20912	0.06585
1560.92336	0.06596
1559.63759	0.06608
1558.35182	0.06626
1557.06605	0.06649
1555.78028	0.06668
1554.49451	0.06680
1553.20874	0.06685
1551.92297	0.06683
1550.63721	0.06676
1549.35144	0.06663
1548.06567	0.06643
1546.77990	0.06617
1545.49413	0.06585
1544.20836	0.06542
1542.92259	0.06489
1541.63682	0.06428
1540.35105	0.06370
1539.06529	0.06322
1537.77952	0.06282
1536.49375	0.06246
1535.20798	0.06211
1533.92221	0.06179
1532.63644	0.06155
1531.35067	0.06142
1530.06490	0.06137
1528.77914	0.06136
1527.49337	0.06138
1526.20760	0.06141
1524.92183	0.06147
1523.63606	0.06160
1522.35029	0.06180
1521.06452	0.06209
1519.77875	0.06247
1518.49298	0.06295
1517.20722	0.06352
1515.92145	0.06415
1514.63568	0.06482
1513.34991	0.06554
1512.06414	0.06632
1510.77837	0.06714
1509.49260	0.06795
1508.20683	0.06870
1506.92107	0.06942
1505.63530	0.07018
1504.34953	0.07099
1503.06376	0.07179
1501.77799	0.07253
1500.49222	0.07315
1499.20645	0.07367
1497.92068	0.07412
1496.63491	0.07456
1495.34915	0.07502
1494.06338	0.07549
1492.77761	0.07598
1491.49184	0.07648
1490.20607	0.07698
1488.92030	0.07751
1487.63453	0.07810
1486.34876	0.07881
1485.06299	0.07964
1483.77723	0.08056
1482.49146	0.08153
1481.20569	0.08250
1479.91992	0.08349
1478.63415	0.08450
1477.34838	0.08555
1476.06261	0.08661
1474.77684	0.08764
1473.49108	0.08860
1472.20531	0.08949
1470.91954	0.09036
1469.63377	0.09118
1468.34800	0.09193
1467.06223	0.09257
1465.77646	0.09314
1464.49069	0.09372
1463.20492	0.09438
1461.91916	0.09509
1460.63339	0.09583
1459.34762	0.09658
1458.06185	0.09737
1456.77608	0.09821
1455.49031	0.09902
1454.20454	0.09971
1452.91877	0.10025
1451.63301	0.10068
1450.34724	0.10103
1449.06147	0.10131
1447.77570	0.10148
1446.48993	0.10154
1445.20416	0.10149
1443.91839	0.10135
1442.63262	0.10116
1441.34685	0.10096
1440.06109	0.10079
1438.77532	0.10068
1437.48955	0.10063
1436.20378	0.10071
1434.91801	0.10096
1433.63224	0.10138
1432.34647	0.10197
1431.06070	0.10269
1429.77494	0.10357
1428.48917	0.10460
1427.20340	0.10579
1425.91763	0.10711
1424.63186	0.10849
1423.34609	0.10985
1422.06032	0.11112
1420.77455	0.11225
1419.48878	0.11326
1418.20302	0.11414
1416.91725	0.11486
1415.63148	0.11539
1414.34571	0.11571
1413.05994	0.11583
1411.77417	0.11574
1410.48840	0.11544
1409.20263	0.11491
1407.91687	0.11414
1406.63110	0.11314
1405.34533	0.11193
1404.05956	0.11053
1402.77379	0.10899
1401.48802	0.10729
1400.20225	0.10545
1398.91648	0.10345
1397.63071	0.10133
1396.34495	0.09915
1395.05918	0.09696
1393.77341	0.09478
1392.48764	0.09263
1391.20187	0.09056
1389.91610	0.08859
1388.63033	0.08670
1387.34456	0.08483
1386.05880	0.08292
1384.77303	0.08096
1383.48726	0.07900
1382.20149	0.07711
1380.91572	0.07531
1379.62995	0.07353
1378.34418	0.07172
1377.05841	0.06983
1375.77264	0.06790
1374.48688	0.06596
1373.20111	0.06403
1371.91534	0.06214
1370.62957	0.06033
1369.34380	0.05863
1368.05803	0.05706
1366.77226	0.05560
1365.48649	0.05421
1364.20073	0.05284
1362.91496	0.05150
1361.62919	0.05021
1360.34342	0.04905
1359.05765	0.04803
1357.77188	0.04714
1356.48611	0.04634
1355.20034	0.04562
1353.91457	0.04493
1352.62881	0.04426
1351.34304	0.04359
1350.05727	0.04296
1348.77150	0.04237
1347.48573	0.04182
1346.19996	0.04125
1344.91419	0.04065
1343.62842	0.04006
1342.34266	0.03952
1341.05689	0.03905
1339.77112	0.03863
1338.48535	0.03822
1337.19958	0.03781
1335.91381	0.03741
1334.62804	0.03698
1333.34227	0.03652
1332.05650	0.03603
1330.77074	0.03558
1329.48497	0.03520
1328.19920	0.03485
1326.91343	0.03450
1325.62766	0.03413
1324.34189	0.03377
1323.05612	0.03343
1321.77035	0.03311
1320.48459	0.03281
1319.19882	0.03251
1317.91305	0.03222
1316.62728	0.03193
1315.34151	0.03163
1314.05574	0.03131
1312.76997	0.03097
1311.48420	0.03064
1310.19843	0.03035
1308.91267	0.03010
1307.62690	0.02987
1306.34113	0.02966
1305.05536	0.02948
1303.76959	0.02934
1302.48382	0.02919
1301.19805	0.02900
1299.91228	0.02876
1298.62652	0.02849
1297.34075	0.02822
1296.05498	0.02797
1294.76921	0.02780
1293.48344	0.02773
1292.19767	0.02772
1290.91190	0.02771
1289.62613	0.02764
1288.34036	0.02751
1287.05460	0.02733
1285.76883	0.02714
1284.48306	0.02699
1283.19729	0.02690
1281.91152	0.02688
1280.62575	0.02687
1279.33998	0.02680
1278.05421	0.02667
1276.76845	0.02650
1275.48268	0.02636
1274.19691	0.02625
1272.91114	0.02617
1271.62537	0.02609
1270.33960	0.02603
1269.05383	0.02598
1267.76806	0.02594
1266.48229	0.02591
1265.19653	0.02584
1263.91076	0.02574
1262.62499	0.02563
1261.33922	0.02553
1260.05345	0.02546
1258.76768	0.02542
1257.48191	0.02539
1256.19614	0.02538
1254.91037	0.02535
1253.62461	0.02531
1252.33884	0.02528
1251.05307	0.02526
1249.76730	0.02524
1248.48153	0.02520
1247.19576	0.02515
1245.90999	0.02509
1244.62422	0.02504
1243.33846	0.02502
1242.05269	0.02501
1240.76692	0.02500
1239.48115	0.02497
1238.19538	0.02492
1236.90961	0.02484
1235.62384	0.02475
1234.33807	0.02464
1233.05230	0.02451
1231.76654	0.02437
1230.48077	0.02425
1229.19500	0.02416
1227.90923	0.02407
1226.62346	0.02396
1225.33769	0.02380
1224.05192	0.02363
1222.76615	0.02347
1221.48039	0.02335
1220.19462	0.02328
1218.90885	0.02324
1217.62308	0.02323
1216.33731	0.02319
1215.05154	0.02310
1213.76577	0.02297
1212.48000	0.02282
1211.19423	0.02270
1209.90847	0.02264
1208.62270	0.02264
1207.33693	0.02268
1206.05116	0.02270
1204.76539	0.02271
1203.47962	0.02268
1202.19385	0.02265
1200.90808	0.02268
1199.62232	0.02278
1198.33655	0.02280
1197.05078	0.02279
1195.76501	0.02276
1194.47924	0.02270
1193.19347	0.02264
1191.90770	0.02260
1190.62193	0.02258
1189.33616	0.02255
1188.05040	0.02251
1186.76463	0.02244
1185.47886	0.02234
1184.19309	0.02227
1182.90732	0.02228
1181.62155	0.02238
1180.33578	0.02252
1179.05001	0.02265
1177.76425	0.02275
1176.47848	0.02285
1175.19271	0.02300
1173.90694	0.02318
1172.62117	0.02340
1171.33540	0.02365
1170.04963	0.02393
1168.76386	0.02420
1167.47809	0.02445
1166.19233	0.02467
1164.90656	0.02488
1163.62079	0.02507
1162.33502	0.02523
1161.04925	0.02540
1159.76348	0.02560
1158.47771	0.02583
1157.19194	0.02607
1155.90618	0.02638
1154.62041	0.02677
1153.33464	0.02722
1152.04887	0.02767
1150.76310	0.02813
1149.47733	0.02863
1148.19156	0.02921
1146.90579	0.02983
1145.62002	0.03048
1144.33426	0.03119
1143.04849	0.03200
1141.76272	0.03292
1140.47695	0.03392
1139.19118	0.03501
1137.90541	0.03618
1136.61964	0.03743
1135.33387	0.03878
1134.04811	0.04030
1132.76234	0.04205
1131.47657	0.04404
1130.19080	0.04627
1128.90503	0.04873
1127.61926	0.05139
1126.33349	0.05424
1125.04772	0.05724
1123.76195	0.06041
1122.47619	0.06377
1121.19042	0.06728
1119.90465	0.07089
1118.61888	0.07449
1117.33311	0.07806
1116.04734	0.08167
1114.76157	0.08535
1113.47580	0.08906
1112.19004	0.09269
1110.90427	0.09621
1109.61850	0.09961
1108.33273	0.10290
1107.04696	0.10608
1105.76119	0.10918
1104.47542	0.11225
1103.18965	0.11535
1101.90388	0.11848
1100.61812	0.12152
1099.33235	0.12438
1098.04658	0.12704
1096.76081	0.12959
1095.47504	0.13210
1094.18927	0.13455
1092.90350	0.13685
1091.61773	0.13894
1090.33197	0.14084
1089.04620	0.14263
1087.76043	0.14442
1086.47466	0.14629
1085.18889	0.14825
1083.90312	0.15032
1082.61735	0.15247
1081.33158	0.15471
1080.04581	0.15707
1078.76005	0.15957
1077.47428	0.16220
1076.18851	0.16498
1074.90274	0.16790
1073.61697	0.17097
1072.33120	0.17417
1071.04543	0.17753
1069.75966	0.18101
1068.47390	0.18455
1067.18813	0.18807
1065.90236	0.19154
1064.61659	0.19498
1063.33082	0.19849
1062.04505	0.20212
1060.75928	0.20584
1059.47351	0.20960
1058.18774	0.21333
1056.90198	0.21697
1055.61621	0.22049
1054.33044	0.22390
1053.04467	0.22725
1051.75890	0.23062
1050.47313	0.23409
1049.18736	0.23771
1047.90159	0.24150
1046.61583	0.24538
1045.33006	0.24928
1044.04429	0.25320
1042.75852	0.25717
1041.47275	0.26117
1040.18698	0.26516
1038.90121	0.26914
1037.61544	0.27311
1036.32967	0.27711
1035.04391	0.28110
1033.75814	0.28498
1032.47237	0.28862
1031.18660	0.29188
1029.90083	0.29469
1028.61506	0.29711
1027.32929	0.29919
1026.04352	0.30094
1024.75775	0.30233
1023.47199	0.30335
1022.18622	0.30397
1020.90045	0.30413
1019.61468	0.30370
1018.32891	0.30267
1017.04314	0.30110
1015.75737	0.29907
1014.47160	0.29655
1013.18584	0.29348
1011.90007	0.28984
1010.61430	0.28568
1009.32853	0.28102
1008.04276	0.27590
1006.75699	0.27035
1005.47122	0.26442
1004.18545	0.25814
1002.89968	0.25159
1001.61392	0.24484
1000.32815	0.23796
999.04238	0.23096
997.75661	0.22378
996.47084	0.21643
995.18507	0.20901
993.89930	0.20164
992.61353	0.19439
991.32777	0.18730
990.04200	0.18037
988.75623	0.17364
987.47046	0.16713
986.18469	0.16089
984.89892	0.15497
983.61315	0.14937
982.32738	0.14406
981.04161	0.13898
979.75585	0.13418
978.47008	0.12972
977.18431	0.12561
975.89854	0.12188
974.61277	0.11858
973.32700	0.11582
972.04123	0.11363
970.75546	0.11201
969.46970	0.11097
968.18393	0.11053
966.89816	0.11067
965.61239	0.11123
964.32662	0.11197
963.04085	0.11260
961.75508	0.11290
960.46931	0.11270
959.18354	0.11188
957.89778	0.11045
956.61201	0.10852
955.32624	0.10623
954.04047	0.10372
952.75470	0.10110
951.46893	0.09847
950.18316	0.09593
948.89739	0.09350
947.61163	0.09115
946.32586	0.08882
945.04009	0.08649
943.75432	0.08421
942.46855	0.08198
941.18278	0.07985
939.89701	0.07786
938.61124	0.07604
937.32547	0.07441
936.03971	0.07289
934.75394	0.07144
933.46817	0.07004
932.18240	0.06866
930.89663	0.06731
929.61086	0.06603
928.32509	0.06487
927.03932	0.06383
925.75356	0.06289
924.46779	0.06198
923.18202	0.06107
921.89625	0.06020
920.61048	0.05939
919.32471	0.05868
918.03894	0.05800
916.75317	0.05732
915.46740	0.05663
914.18164	0.05597
912.89587	0.05537
911.61010	0.05485
910.32433	0.05440
909.03856	0.05399
907.75279	0.05355
906.46702	0.05302
905.18125	0.05242
903.89549	0.05182
902.60972	0.05131
901.32395	0.05090
900.03818	0.05050
898.75241	0.05004
897.46664	0.04953
896.18087	0.04902
894.89510	0.04862
893.60933	0.04840
892.32357	0.04836
891.03780	0.04847
889.75203	0.04867
888.46626	0.04899
887.18049	0.04953
885.89472	0.05045
884.60895	0.05194
883.32318	0.05409
882.03742	0.05674
880.75165	0.05951
879.46588	0.06194
878.18011	0.06384
876.89434	0.06540
875.60857	0.06689
874.32280	0.06841
873.03703	0.06965
871.75126	0.07022
870.46550	0.06989
869.17973	0.06872
867.89396	0.06698
866.60819	0.06492
865.32242	0.06273
864.03665	0.06054
862.75088	0.05845
861.46511	0.05650
860.17935	0.05467
858.89358	0.05299
857.60781	0.05150
856.32204	0.05025
855.03627	0.04925
853.75050	0.04846
852.46473	0.04784
851.17896	0.04731
849.89319	0.04684
848.60743	0.04638
847.32166	0.04592
846.03589	0.04548
844.75012	0.04506
843.46435	0.04462
842.17858	0.04419
840.89281	0.04380
839.60704	0.04351
838.32128	0.04332
837.03551	0.04319
835.74974	0.04307
834.46397	0.04291
833.17820	0.04268
831.89243	0.04240
830.60666	0.04210
829.32089	0.04184
828.03512	0.04163
826.74936	0.04146
825.46359	0.04132
824.17782	0.04121
822.89205	0.04112
821.60628	0.04105
820.32051	0.04102
819.03474	0.04100
817.74897	0.04097
816.46321	0.04091
815.17744	0.04087
813.89167	0.04085
812.60590	0.04080
811.32013	0.04067
810.03436	0.04052
808.74859	0.04044
807.46282	0.04046
806.17705	0.04054
804.89129	0.04057
803.60552	0.04056
802.31975	0.04056
801.03398	0.04061
799.74821	0.04071
798.46244	0.04083
797.17667	0.04093
795.89090	0.04097
794.60513	0.04093
793.31937	0.04083
792.03360	0.04069
790.74783	0.04059
789.46206	0.04052
788.17629	0.04046
786.89052	0.04036
785.60475	0.04025
784.31898	0.04017
783.03322	0.04015
781.74745	0.04016
780.46168	0.04019
779.17591	0.04018
777.89014	0.04014
776.60437	0.04012
775.31860	0.04011
774.03283	0.04011
772.74706	0.04008
771.46130	0.04001
770.17553	0.03995
768.88976	0.03993
767.60399	0.03994
766.31822	0.03995
765.03245	0.03996
763.74668	0.04002
762.46091	0.04013
761.17515	0.04029
759.88938	0.04042
758.60361	0.04053
757.31784	0.04062
756.03207	0.04070
754.74630	0.04072
753.46053	0.04067
752.17476	0.04056
750.88899	0.04045
749.60323	0.04035
748.31746	0.04027
747.03169	0.04023
745.74592	0.04022
744.46015	0.04025
743.17438	0.04029
741.88861	0.04036
740.60284	0.04044
739.31708	0.04048
738.03131	0.04043
736.74554	0.04032
735.45977	0.04018
734.17400	0.04009
732.88823	0.04008
731.60246	0.04013
730.31669	0.04017
729.03092	0.04017
727.74516	0.04013
726.45939	0.04012
725.17362	0.04016
723.88785	0.04028
722.60208	0.04026
721.31631	0.04011
720.03054	0.03995
718.74477	0.03988
717.45901	0.03990
716.17324	0.03996
714.88747	0.04001
713.60170	0.04002
712.31593	0.04000
711.03016	0.03996
709.74439	0.03994
708.45862	0.03995
707.17285	0.03997
705.88709	0.03996
704.60132	0.03989
703.31555	0.03977
702.02978	0.03965
700.74401	0.03960
699.45824	0.03960
698.17247	0.03962
696.88670	0.03963
695.60094	0.03962
694.31517	0.03963
693.02940	0.03965
691.74363	0.03964
690.45786	0.03955
689.17209	0.03942
687.88632	0.03932
686.60055	0.03929
685.31478	0.03933
684.02902	0.03940
682.74325	0.03942
681.45748	0.03940
680.17171	0.03933
678.88594	0.03929
677.60017	0.03933
676.31440	0.03945
675.02863	0.03964
673.74287	0.03987
672.45710	0.04012
671.17133	0.04042
669.88556	0.04071
668.59979	0.04078
667.31402	0.04076
666.02825	0.04073
664.74248	0.04039
663.45671	0.04004
662.17095	0.03981
660.88518	0.03964
659.59941	0.03948
658.31364	0.03927
657.02787	0.03903
655.74210	0.03882
654.45633	0.03869
653.17056	0.03864
651.88480	0.03862
650.59903	0.03857
649.31326	0.03846
648.02749	0.03829
646.74172	0.03811
645.45595	0.03797
644.17018	0.03789
642.88441	0.03787
641.59864	0.03790
640.31288	0.03797
639.02711	0.03810
637.74134	0.03833
636.45557	0.03868
635.16980	0.03916
633.88403	0.03972
632.59826	0.04031
631.31249	0.04081
630.02673	0.04085
628.74096	0.04071
627.45519	0.04181
626.16942	0.04168
624.88365	0.04076
623.59788	0.04018
622.31211	0.04077
621.02634	0.04309
619.74057	0.04699
618.45481	0.05182
617.16904	0.05688
615.88327	0.06169
614.59750	0.06600
613.31173	0.06967
612.02596	0.07282
610.74019	0.07611
609.45442	0.08063
608.16866	0.08690
606.88289	0.09408
605.59712	0.10053
604.31135	0.10510
603.02558	0.10769
601.73981	0.10881
600.45404	0.10878
599.16827	0.10764
597.88250	0.10543
596.59674	0.10255
595.31097	0.09953
594.02520	0.09685
592.73943	0.09465
591.45366	0.09293
590.16789	0.09170
588.88212	0.09112
587.59635	0.09130
586.31059	0.09222
585.02482	0.09382
583.73905	0.09598
582.45328	0.09859
581.16751	0.10146
579.88174	0.10445
578.59597	0.10745
577.31020	0.11034
576.02443	0.11298
574.73867	0.11527
573.45290	0.11731
572.16713	0.11940
570.88136	0.12185
569.59559	0.12492
568.30982	0.12864
567.02405	0.13281
565.73828	0.13704
564.45251	0.14084
563.16675	0.14368
561.88098	0.14503
560.59521	0.14451
559.30944	0.14200
558.02367	0.13775
556.73790	0.13229
555.45213	0.12627
554.16636	0.12022
552.88060	0.11437
551.59483	0.10876
550.30906	0.10340
549.02329	0.09842
547.73752	0.09397
546.45175	0.09008
545.16598	0.08660
543.88021	0.08335
542.59444	0.08029
541.30868	0.07748
540.02291	0.07497
538.73714	0.07274
537.45137	0.07070
536.16560	0.06878
534.87983	0.06701
533.59406	0.06542
532.30829	0.06394
531.02253	0.06248
529.73676	0.06102
528.45099	0.05968
527.16522	0.05856
525.87945	0.05762
524.59368	0.05669
523.30791	0.05560
522.02214	0.05436
520.73637	0.05306
519.45061	0.05183
518.16484	0.05075
516.87907	0.04986
515.59330	0.04918
514.30753	0.04861
513.02176	0.04802
511.73599	0.04738
510.45022	0.04671
509.16446	0.04612
507.87869	0.04561
506.59292	0.04507
505.30715	0.04443
504.02138	0.04374
502.73561	0.04316
501.44984	0.04275
500.16407	0.04248
498.87830	0.04225
497.59254	0.04196
496.30677	0.04159
495.02100	0.04115
493.73523	0.04071
492.44946	0.04031
491.16369	0.03997
489.87792	0.03964
488.59215	0.03935
487.30639	0.03917
486.02062	0.03910
484.73485	0.03912
483.44908	0.03917
482.16331	0.03927
480.87754	0.03940
479.59177	0.03953
478.30600	0.03966
477.02023	0.03980
475.73447	0.04001
474.44870	0.04029
473.16293	0.04062
471.87716	0.04091
470.59139	0.04104
469.30562	0.04089
468.01985	0.04051
466.73408	0.04005
465.44832	0.03965
464.16255	0.03933
462.87678	0.03898
461.59101	0.03857
460.30524	0.03812
459.01947	0.03768
457.73370	0.03725
456.44793	0.03684
455.16216	0.03647
453.87640	0.03616
452.59063	0.03591
451.30486	0.03566
450.01909	0.03537
448.73332	0.03503
447.44755	0.03471
446.16178	0.03448
444.87601	0.03435
443.59025	0.03427
442.30448	0.03418
441.01871	0.03401
439.73294	0.03378
438.44717	0.03354
437.16140	0.03333
435.87563	0.03316
434.58986	0.03303
433.30409	0.03294
432.01833	0.03288
430.73256	0.03285
429.44679	0.03278
428.16102	0.03263
426.87525	0.03243
425.58948	0.03224
424.30371	0.03209
423.01794	0.03198
421.73218	0.03185
420.44641	0.03171
419.16064	0.03158
417.87487	0.03148
416.58910	0.03139
415.30333	0.03129
414.01756	0.03117
412.73179	0.03105
411.44602	0.03097
410.16026	0.03092
408.87449	0.03091
407.58872	0.03091
406.30295	0.03089
405.01718	0.03086
403.73141	0.03085
402.44564	0.03089
401.15987	0.03095
399.87411	0.03103
