3997.45528 0.03117
3996.16951 0.03274
3994.88374 0.03366
3993.59798 0.03366
3992.31221 0.03293
3991.02644 0.03190
3989.74067 0.03090
3988.45490 0.03014
3987.16913 0.02970
3985.88336 0.02950
3984.59759 0.02932
3983.31183 0.02892
3982.02606 0.02831
3980.74029 0.02784
3979.45452 0.02790
3978.16875 0.02851
3976.88298 0.02934
3975.59721 0.03003
3974.31144 0.03040
3973.02567 0.03038
3971.73991 0.02988
3970.45414 0.02900
3969.16837 0.02815
3967.88260 0.02785
3966.59683 0.02844
3965.31106 0.02976
3964.02529 0.03116
3962.73952 0.03190
3961.45376 0.03171
3960.16799 0.03105
3958.88222 0.03075
3957.59645 0.03122
3956.31068 0.03199
3955.02491 0.03217
3953.73914 0.03136
3952.45337 0.03023
3951.16760 0.02976
3949.88184 0.03022
3948.59607 0.03092
3947.31030 0.03115
3946.02453 0.03088
3944.73876 0.03060
3943.45299 0.03066
3942.16722 0.03099
3940.88145 0.03138
3939.59569 0.03161
3938.30992 0.03162
3937.02415 0.03145
3935.73838 0.03125
3934.45261 0.03108
3933.16684 0.03088
3931.88107 0.03066
3930.59530 0.03044
3929.30953 0.03019
3928.02377 0.02986
3926.73800 0.02957
3925.45223 0.02954
3924.16646 0.02971
3922.88069 0.02969
3921.59492 0.02918
3920.30915 0.02824
3919.02338 0.02718
3917.73762 0.02627
3916.45185 0.02570
3915.16608 0.02558
3913.88031 0.02573
3912.59454 0.02581
3911.30877 0.02564
3910.02300 0.02538
3908.73723 0.02532
3907.45146 0.02543
3906.16570 0.02554
3904.87993 0.02562
3903.59416 0.02592
3902.30839 0.02667
3901.02262 0.02777
3899.73685 0.02879
3898.45108 0.02936
3897.16531 0.02942
3895.87955 0.02929
3894.59378 0.02942
3893.30801 0.03001
3892.02224 0.03077
3890.73647 0.03118
3889.45070 0.03092
3888.16493 0.03007
3886.87916 0.02903
3885.59339 0.02823
3884.30763 0.02785
3883.02186 0.02774
3881.73609 0.02752
3880.45032 0.02698
3879.16455 0.02636
3877.87878 0.02612
3876.59301 0.02641
3875.30724 0.02692
3874.02148 0.02736
3872.73571 0.02775
3871.44994 0.02829
3870.16417 0.02891
3868.87840 0.02919
3867.59263 0.02891
3866.30686 0.02840
3865.02109 0.02816
3863.73532 0.02834
3862.44956 0.02852
3861.16379 0.02831
3859.87802 0.02782
3858.59225 0.02760
3857.30648 0.02805
3856.02071 0.02903
3854.73494 0.02988
3853.44917 0.03003
3852.16341 0.02944
3850.87764 0.02868
3849.59187 0.02831
3848.30610 0.02847
3847.02033 0.02896
3845.73456 0.02963
3844.44879 0.03034
3843.16302 0.03077
3841.87725 0.03046
3840.59149 0.02934
3839.30572 0.02792
3838.01995 0.02694
3836.73418 0.02679
3835.44841 0.02735
3834.16264 0.02822
3832.87687 0.02885
3831.59110 0.02877
3830.30534 0.02791
3829.01957 0.02670
3827.73380 0.02563
3826.44803 0.02483
3825.16226 0.02412
3823.87649 0.02351
3822.59072 0.02325
3821.30495 0.02363
3820.01918 0.02462
3818.73342 0.02595
3817.44765 0.02721
3816.16188 0.02806
3814.87611 0.02839
3813.59034 0.02838
3812.30457 0.02833
3811.01880 0.02840
3809.73303 0.02850
3808.44726 0.02839
3807.16150 0.02787
3805.87573 0.02701
3804.58996 0.02626
3803.30419 0.02619
3802.01842 0.02694
3800.73265 0.02812
3799.44688 0.02919
3798.16111 0.02990
3796.87535 0.03021
3795.58958 0.02993
3794.30381 0.02881
3793.01804 0.02697
3791.73227 0.02506
3790.44650 0.02381
3789.16073 0.02346
3787.87496 0.02381
3786.58919 0.02456
3785.30343 0.02554
3784.01766 0.02659
3782.73189 0.02749
3781.44612 0.02811
3780.16035 0.02848
3778.87458 0.02861
3777.58881 0.02841
3776.30304 0.02786
3775.01728 0.02717
3773.73151 0.02677
3772.44574 0.02698
3771.15997 0.02774
3769.87420 0.02862
3768.58843 0.02919
3767.30266 0.02920
3766.01689 0.02870
3764.73112 0.02790
3763.44536 0.02712
3762.15959 0.02657
3760.87382 0.02633
3759.58805 0.02643
3758.30228 0.02683
3757.01651 0.02741
3755.73074 0.02789
3754.44497 0.02797
3753.15921 0.02759
3751.87344 0.02702
3750.58767 0.02654
3749.30190 0.02631
3748.01613 0.02639
3746.73036 0.02669
3745.44459 0.02679
3744.15882 0.02622
3742.87305 0.02499
3741.58729 0.02390
3740.30152 0.02384
3739.01575 0.02501
3737.72998 0.02677
3736.44421 0.02834
3735.15844 0.02935
3733.87267 0.02972
3732.58690 0.02946
3731.30114 0.02862
3730.01537 0.02731
3728.72960 0.02577
3727.44383 0.02434
3726.15806 0.02347
3724.87229 0.02356
3723.58652 0.02447
3722.30075 0.02557
3721.01498 0.02618
3719.72922 0.02611
3718.44345 0.02568
3717.15768 0.02522
3715.87191 0.02482
3714.58614 0.02446
3713.30037 0.02418
3712.01460 0.02403
3710.72883 0.02394
3709.44307 0.02384
3708.15730 0.02390
3706.87153 0.02446
3705.58576 0.02562
3704.29999 0.02692
3703.01422 0.02760
3701.72845 0.02730
3700.44268 0.02628
3699.15691 0.02518
3697.87115 0.02463
3696.58538 0.02480
3695.29961 0.02522
3694.01384 0.02533
3692.72807 0.02516
3691.44230 0.02509
3690.15653 0.02522
3688.87076 0.02528
3687.58500 0.02508
3686.29923 0.02492
3685.01346 0.02527
3683.72769 0.02597
3682.44192 0.02632
3681.15615 0.02598
3679.87038 0.02532
3678.58461 0.02495
3677.29884 0.02499
3676.01308 0.02507
3674.72731 0.02504
3673.44154 0.02530
3672.15577 0.02625
3670.87000 0.02771
3669.58423 0.02910
3668.29846 0.02997
3667.01269 0.03022
3665.72693 0.02979
3664.44116 0.02854
3663.15539 0.02666
3661.86962 0.02500
3660.58385 0.02463
3659.29808 0.02586
3658.01231 0.02795
3656.72654 0.02976
3655.44077 0.03069
3654.15501 0.03090
3652.86924 0.03072
3651.58347 0.03018
3650.29770 0.02914
3649.01193 0.02780
3647.72616 0.02677
3646.44039 0.02649
3645.15462 0.02685
3643.86886 0.02756
3642.58309 0.02852
3641.29732 0.02979
3640.01155 0.03118
3638.72578 0.03230
3637.44001 0.03290
3636.15424 0.03289
3634.86847 0.03228
3633.58270 0.03126
3632.29694 0.03022
3631.01117 0.02967
3629.72540 0.02989
3628.43963 0.03072
3627.15386 0.03164
3625.86809 0.03207
3624.58232 0.03188
3623.29655 0.03152
3622.01079 0.03157
3620.72502 0.03211
3619.43925 0.03262
3618.15348 0.03253
3616.86771 0.03178
3615.58194 0.03096
3614.29617 0.03083
3613.01040 0.03157
3611.72463 0.03266
3610.43887 0.03341
3609.15310 0.03361
3607.86733 0.03358
3606.58156 0.03358
3605.29579 0.03362
3604.01002 0.03365
3602.72425 0.03367
3601.43848 0.03374
3600.15272 0.03399
3598.86695 0.03454
3597.58118 0.03540
3596.29541 0.03629
3595.00964 0.03678
3593.72387 0.03676
3592.43810 0.03658
3591.15233 0.03655
3589.86656 0.03649
3588.58080 0.03605
3587.29503 0.03538
3586.00926 0.03515
3584.72349 0.03582
3583.43772 0.03709
3582.15195 0.03810
3580.86618 0.03825
3579.58041 0.03777
3578.29464 0.03745
3577.00888 0.03788
3575.72311 0.03886
3574.43734 0.03952
3573.15157 0.03921
3571.86580 0.03821
3570.58003 0.03747
3569.29426 0.03761
3568.00849 0.03843
3566.72273 0.03924
3565.43696 0.03974
3564.15119 0.04016
3562.86542 0.04074
3561.57965 0.04126
3560.29388 0.04133
3559.00811 0.04091
3557.72234 0.04047
3556.43657 0.04046
3555.15081 0.04098
3553.86504 0.04173
3552.57927 0.04240
3551.29350 0.04283
3550.00773 0.04295
3548.72196 0.04277
3547.43619 0.04237
3546.15042 0.04197
3544.86466 0.04188
3543.57889 0.04228
3542.29312 0.04309
3541.00735 0.04395
3539.72158 0.04448
3538.43581 0.04452
3537.15004 0.04417
3535.86427 0.04371
3534.57850 0.04336
3533.29274 0.04325
3532.00697 0.04341
3530.72120 0.04381
3529.43543 0.04436
3528.14966 0.04491
3526.86389 0.04533
3525.57812 0.04559
3524.29235 0.04570
3523.00659 0.04567
3521.72082 0.04545
3520.43505 0.04505
3519.14928 0.04462
3517.86351 0.04446
3516.57774 0.04477
3515.29197 0.04541
3514.00620 0.04603
3512.72043 0.04621
3511.43467 0.04581
3510.14890 0.04504
3508.86313 0.04439
3507.57736 0.04424
3506.29159 0.04463
3505.00582 0.04532
3503.72005 0.04601
3502.43428 0.04645
3501.14852 0.04657
3499.86275 0.04648
3498.57698 0.04631
3497.29121 0.04605
3496.00544 0.04566
3494.71967 0.04534
3493.43390 0.04545
3492.14813 0.04615
3490.86236 0.04718
3489.57660 0.04809
3488.29083 0.04857
3487.00506 0.04869
3485.71929 0.04878
3484.43352 0.04905
3483.14775 0.04936
3481.86198 0.04942
3480.57621 0.04919
3479.29045 0.04908
3478.00468 0.04946
3476.71891 0.05024
3475.43314 0.05087
3474.14737 0.05088
3472.86160 0.05034
3471.57583 0.04985
3470.29006 0.04998
3469.00429 0.05074
3467.71853 0.05150
3466.43276 0.05161
3465.14699 0.05106
3463.86122 0.05041
3462.57545 0.05014
3461.28968 0.05017
3460.00391 0.05013
3458.71814 0.04991
3457.43238 0.04974
3456.14661 0.04986
3454.86084 0.05029
3453.57507 0.05082
3452.28930 0.05118
3451.00353 0.05123
3449.71776 0.05110
3448.43199 0.05104
3447.14622 0.05111
3445.86046 0.05114
3444.57469 0.05099
3443.28892 0.05078
3442.00315 0.05066
3440.71738 0.05063
3439.43161 0.05057
3438.14584 0.05041
3436.86007 0.05028
3435.57431 0.05042
3434.28854 0.05091
3433.00277 0.05156
3431.71700 0.05206
3430.43123 0.05230
3429.14546 0.05249
3427.85969 0.05280
3426.57392 0.05312
3425.28815 0.05313
3424.00239 0.05264
3422.71662 0.05186
3421.43085 0.05124
3420.14508 0.05103
3418.85931 0.05124
3417.57354 0.05169
3416.28777 0.05225
3415.00200 0.05277
3413.71624 0.05316
3412.43047 0.05339
3411.14470 0.05354
3409.85893 0.05360
3408.57316 0.05355
3407.28739 0.05345
3406.00162 0.05357
3404.71585 0.05399
3403.43008 0.05452
3402.14432 0.05494
3400.85855 0.05527
3399.57278 0.05571
3398.28701 0.05614
3397.00124 0.05631
3395.71547 0.05604
3394.42970 0.05549
3393.14393 0.05503
3391.85817 0.05490
3390.57240 0.05510
3389.28663 0.05551
3388.00086 0.05598
3386.71509 0.05632
3385.42932 0.05634
3384.14355 0.05605
3382.85778 0.05567
3381.57201 0.05543
3380.28625 0.05533
3379.00048 0.05523
3377.71471 0.05492
3376.42894 0.05430
3375.14317 0.05347
3373.85740 0.05274
3372.57163 0.05260
3371.28586 0.05327
3370.00010 0.05441
3368.71433 0.05537
3367.42856 0.05575
3366.14279 0.05561
3364.85702 0.05526
3363.57125 0.05486
3362.28548 0.05440
3360.99971 0.05390
3359.71394 0.05346
3358.42818 0.05324
3357.14241 0.05336
3355.85664 0.05387
3354.57087 0.05466
3353.28510 0.05546
3351.99933 0.05584
3350.71356 0.05559
3349.42779 0.05491
3348.14202 0.05426
3346.85626 0.05394
3345.57049 0.05396
3344.28472 0.05418
3342.99895 0.05446
3341.71318 0.05469
3340.42741 0.05473
3339.14164 0.05456
3337.85587 0.05431
3336.57011 0.05413
3335.28434 0.05413
3333.99857 0.05418
3332.71280 0.05407
3331.42703 0.05376
3330.14126 0.05347
3328.85549 0.05348
3327.56972 0.05377
3326.28395 0.05405
3324.99819 0.05397
3323.71242 0.05347
3322.42665 0.05283
3321.14088 0.05244
3319.85511 0.05247
3318.56934 0.05275
3317.28357 0.05296
3315.99780 0.05289
3314.71204 0.05257
3313.42627 0.05219
3312.14050 0.05190
3310.85473 0.05180
3309.56896 0.05196
3308.28319 0.05242
3306.99742 0.05302
3305.71165 0.05347
3304.42588 0.05357
3303.14012 0.05336
3301.85435 0.05303
3300.56858 0.05274
3299.28281 0.05255
3297.99704 0.05239
3296.71127 0.05213
3295.42550 0.05172
3294.13973 0.05128
3292.85397 0.05106
3291.56820 0.05128
3290.28243 0.05188
3288.99666 0.05247
3287.71089 0.05267
3286.42512 0.05244
3285.13935 0.05203
3283.85358 0.05168
3282.56781 0.05149
3281.28205 0.05167
3279.99628 0.05239
3278.71051 0.05344
3277.42474 0.05426
3276.13897 0.05445
3274.85320 0.05412
3273.56743 0.05365
3272.28166 0.05331
3270.99590 0.05318
3269.71013 0.05325
3268.42436 0.05341
3267.13859 0.05358
3265.85282 0.05375
3264.56705 0.05397
3263.28128 0.05423
3261.99551 0.05439
3260.70974 0.05435
3259.42398 0.05414
3258.13821 0.05383
3256.85244 0.05339
3255.56667 0.05277
3254.28090 0.05202
3252.99513 0.05142
3251.70936 0.05118
3250.42359 0.05132
3249.13783 0.05157
3247.85206 0.05159
3246.56629 0.05121
3245.28052 0.05055
3243.99475 0.04994
3242.70898 0.04962
3241.42321 0.04962
3240.13744 0.04972
3238.85167 0.04970
3237.56591 0.04951
3236.28014 0.04930
3234.99437 0.04928
3233.70860 0.04954
3232.42283 0.05001
3231.13706 0.05059
3229.85129 0.05128
3228.56552 0.05197
3227.27976 0.05247
3225.99399 0.05263
3224.70822 0.05254
3223.42245 0.05236
3222.13668 0.05210
3220.85091 0.05169
3219.56514 0.05113
3218.27937 0.05057
3216.99360 0.05016
3215.70784 0.04997
3214.42207 0.04994
3213.13630 0.05000
3211.85053 0.05005
3210.56476 0.05013
3209.27899 0.05027
3207.99322 0.05042
3206.70745 0.05033
3205.42169 0.04979
3204.13592 0.04892
3202.85015 0.04807
3201.56438 0.04761
3200.27861 0.04767
3198.99284 0.04816
3197.70707 0.04891
3196.42130 0.04964
3195.13553 0.05006
3193.84977 0.05001
3192.56400 0.04962
3191.27823 0.04907
3189.99246 0.04842
3188.70669 0.04765
3187.42092 0.04693
3186.13515 0.04666
3184.84938 0.04701
3183.56362 0.04771
3182.27785 0.04837
3180.99208 0.04881
3179.70631 0.04910
3178.42054 0.04931
3177.13477 0.04933
3175.84900 0.04897
3174.56323 0.04819
3173.27746 0.04719
3171.99170 0.04632
3170.70593 0.04587
3169.42016 0.04589
3168.13439 0.04618
3166.84862 0.04649
3165.56285 0.04664
3164.27708 0.04661
3162.99131 0.04645
3161.70555 0.04630
3160.41978 0.04625
3159.13401 0.04631
3157.84824 0.04642
3156.56247 0.04651
3155.27670 0.04663
3153.99093 0.04696
3152.70516 0.04745
3151.41939 0.04782
3150.13363 0.04782
3148.84786 0.04753
3147.56209 0.04730
3146.27632 0.04730
3144.99055 0.04744
3143.70478 0.04748
3142.41901 0.04729
3141.13324 0.04693
3139.84748 0.04654
3138.56171 0.04624
3137.27594 0.04603
3135.99017 0.04586
3134.70440 0.04568
3133.41863 0.04553
3132.13286 0.04542
3130.84709 0.04541
3129.56132 0.04559
3128.27556 0.04592
3126.98979 0.04626
3125.70402 0.04639
3124.41825 0.04627
3123.13248 0.04594
3121.84671 0.04549
3120.56094 0.04493
3119.27517 0.04430
3117.98940 0.04361
3116.70364 0.04290
3115.41787 0.04232
3114.13210 0.04206
3112.84633 0.04220
3111.56056 0.04260
3110.27479 0.04302
3108.98902 0.04328
3107.70325 0.04334
3106.41749 0.04329
3105.13172 0.04322
3103.84595 0.04321
3102.56018 0.04332
3101.27441 0.04345
3099.98864 0.04352
3098.70287 0.04348
3097.41710 0.04341
3096.13133 0.04330
3094.84557 0.04302
3093.55980 0.04248
3092.27403 0.04179
3090.98826 0.04124
3089.70249 0.04107
3088.41672 0.04131
3087.13095 0.04181
3085.84518 0.04227
3084.55942 0.04236
3083.27365 0.04201
3081.98788 0.04152
3080.70211 0.04126
3079.41634 0.04133
3078.13057 0.04149
3076.84480 0.04157
3075.55903 0.04169
3074.27326 0.04208
3072.98750 0.04267
3071.70173 0.04313
3070.41596 0.04314
3069.13019 0.04269
3067.84442 0.04206
3066.55865 0.04151
3065.27288 0.04117
3063.98711 0.04099
3062.70135 0.04099
3061.41558 0.04118
3060.12981 0.04156
3058.84404 0.04189
3057.55827 0.04183
3056.27250 0.04117
3054.98673 0.04013
3053.70096 0.03918
3052.41519 0.03872
3051.12943 0.03876
3049.84366 0.03905
3048.55789 0.03937
3047.27212 0.03960
3045.98635 0.03962
3044.70058 0.03940
3043.41481 0.03910
3042.12904 0.03898
3040.84328 0.03912
3039.55751 0.03929
3038.27174 0.03926
3036.98597 0.03907
3035.70020 0.03893
3034.41443 0.03903
3033.12866 0.03934
3031.84289 0.03969
3030.55712 0.03996
3029.27136 0.04012
3027.98559 0.04017
3026.69982 0.04003
3025.41405 0.03959
3024.12828 0.03891
3022.84251 0.03824
3021.55674 0.03782
3020.27097 0.03770
3018.98521 0.03779
3017.69944 0.03803
3016.41367 0.03836
3015.12790 0.03866
3013.84213 0.03882
3012.55636 0.03882
3011.27059 0.03872
3009.98482 0.03855
3008.69905 0.03832
3007.41329 0.03818
3006.12752 0.03820
3004.84175 0.03830
3003.55598 0.03827
3002.27021 0.03800
3000.98444 0.03757
2999.69867 0.03712
2998.41290 0.03673
2997.12714 0.03644
2995.84137 0.03632
2994.55560 0.03638
2993.26983 0.03658
2991.98406 0.03681
2990.69829 0.03702
2989.41252 0.03715
2988.12675 0.03716
2986.84098 0.03704
2985.55522 0.03691
2984.26945 0.03683
2982.98368 0.03679
2981.69791 0.03676
2980.41214 0.03685
2979.12637 0.03713
2977.84060 0.03753
2976.55483 0.03795
2975.26907 0.03830
2973.98330 0.03856
2972.69753 0.03872
2971.41176 0.03880
2970.12599 0.03884
2968.84022 0.03878
2967.55445 0.03862
2966.26868 0.03847
2964.98291 0.03847
2963.69715 0.03865
2962.41138 0.03891
2961.12561 0.03919
2959.83984 0.03953
2958.55407 0.03992
2957.26830 0.04028
2955.98253 0.04052
2954.69676 0.04053
2953.41100 0.04026
2952.12523 0.03969
2950.83946 0.03897
2949.55369 0.03837
2948.26792 0.03816
2946.98215 0.03846
2945.69638 0.03915
2944.41061 0.03992
2943.12484 0.04039
2941.83908 0.04049
2940.55331 0.04041
2939.26754 0.04038
2937.98177 0.04040
2936.69600 0.04030
2935.41023 0.04007
2934.12446 0.03994
2932.83869 0.04007
2931.55293 0.04034
2930.26716 0.04049
2928.98139 0.04038
2927.69562 0.04012
2926.40985 0.03992
2925.12408 0.03989
2923.83831 0.03994
2922.55254 0.03988
2921.26677 0.03961
2919.98101 0.03917
2918.69524 0.03874
2917.40947 0.03845
2916.12370 0.03823
2914.83793 0.03789
2913.55216 0.03738
2912.26639 0.03691
2910.98062 0.03675
2909.69486 0.03692
2908.40909 0.03726
2907.12332 0.03761
2905.83755 0.03791
2904.55178 0.03804
2903.26601 0.03787
2901.98024 0.03737
2900.69447 0.03678
2899.40870 0.03640
2898.12294 0.03631
2896.83717 0.03638
2895.55140 0.03640
2894.26563 0.03629
2892.97986 0.03612
2891.69409 0.03599
2890.40832 0.03590
2889.12255 0.03583
2887.83678 0.03578
2886.55102 0.03582
2885.26525 0.03588
2883.97948 0.03584
2882.69371 0.03565
2881.40794 0.03539
2880.12217 0.03514
2878.83640 0.03498
2877.55063 0.03494
2876.26487 0.03500
2874.97910 0.03506
2873.69333 0.03502
2872.40756 0.03487
2871.12179 0.03466
2869.83602 0.03442
2868.55025 0.03424
2867.26448 0.03423
2865.97871 0.03444
2864.69295 0.03471
2863.40718 0.03484
2862.12141 0.03475
2860.83564 0.03451
2859.54987 0.03425
2858.26410 0.03398
2856.97833 0.03364
2855.69256 0.03328
2854.40680 0.03298
2853.12103 0.03282
2851.83526 0.03279
2850.54949 0.03280
2849.26372 0.03272
2847.97795 0.03248
2846.69218 0.03213
2845.40641 0.03188
2844.12064 0.03186
2842.83488 0.03195
2841.54911 0.03189
2840.26334 0.03162
2838.97757 0.03121
2837.69180 0.03083
2836.40603 0.03057
2835.12026 0.03048
2833.83449 0.03050
2832.54873 0.03049
2831.26296 0.03039
2829.97719 0.03024
2828.69142 0.03020
2827.40565 0.03027
2826.11988 0.03023
2824.83411 0.02991
2823.54834 0.02935
2822.26257 0.02887
2820.97681 0.02873
2819.69104 0.02890
2818.40527 0.02914
2817.11950 0.02919
2815.83373 0.02894
2814.54796 0.02852
2813.26219 0.02816
2811.97642 0.02797
2810.69066 0.02786
2809.40489 0.02777
2808.11912 0.02773
2806.83335 0.02780
2805.54758 0.02790
2804.26181 0.02796
2802.97604 0.02800
2801.69027 0.02807
2800.40450 0.02815
2799.11874 0.02818
2797.83297 0.02814
2796.54720 0.02809
2795.26143 0.02810
2793.97566 0.02812
2792.68989 0.02806
2791.40412 0.02789
2790.11835 0.02763
2788.83259 0.02729
2787.54682 0.02690
2786.26105 0.02659
2784.97528 0.02656
2783.68951 0.02690
2782.40374 0.02751
2781.11797 0.02810
2779.83220 0.02844
2778.54643 0.02843
2777.26067 0.02821
2775.97490 0.02798
2774.68913 0.02787
2773.40336 0.02780
2772.11759 0.02765
2770.83182 0.02743
2769.54605 0.02727
2768.26028 0.02720
2766.97452 0.02715
2765.68875 0.02704
2764.40298 0.02689
2763.11721 0.02682
2761.83144 0.02685
2760.54567 0.02692
2759.25990 0.02700
2757.97413 0.02711
2756.68836 0.02723
2755.40260 0.02724
2754.11683 0.02705
2752.83106 0.02676
2751.54529 0.02659
2750.25952 0.02670
2748.97375 0.02701
2747.68798 0.02730
2746.40221 0.02736
2745.11645 0.02712
2743.83068 0.02676
2742.54491 0.02655
2741.25914 0.02655
2739.97337 0.02663
2738.68760 0.02663
2737.40183 0.02651
2736.11606 0.02638
2734.83029 0.02636
2733.54453 0.02648
2732.25876 0.02661
2730.97299 0.02656
2729.68722 0.02624
2728.40145 0.02579
2727.11568 0.02552
2725.82991 0.02557
2724.54414 0.02580
2723.25838 0.02592
2721.97261 0.02583
2720.68684 0.02564
2719.40107 0.02548
2718.11530 0.02538
2716.82953 0.02530
2715.54376 0.02521
2714.25799 0.02515
2712.97222 0.02515
2711.68646 0.02520
2710.40069 0.02525
2709.11492 0.02523
2707.82915 0.02518
2706.54338 0.02514
2705.25761 0.02517
2703.97184 0.02524
2702.68607 0.02531
2701.40031 0.02529
2700.11454 0.02509
2698.82877 0.02477
2697.54300 0.02446
2696.25723 0.02425
2694.97146 0.02413
2693.68569 0.02409
2692.39992 0.02411
2691.11415 0.02415
2689.82839 0.02421
2688.54262 0.02431
2687.25685 0.02449
2685.97108 0.02466
2684.68531 0.02464
2683.39954 0.02434
2682.11377 0.02386
2680.82800 0.02339
2679.54224 0.02313
2678.25647 0.02319
2676.97070 0.02357
2675.68493 0.02416
2674.39916 0.02473
2673.11339 0.02501
2671.82762 0.02492
2670.54185 0.02462
2669.25608 0.02437
2667.97032 0.02428
2666.68455 0.02430
2665.39878 0.02434
2664.11301 0.02442
2662.82724 0.02463
2661.54147 0.02491
2660.25570 0.02501
2658.96993 0.02470
2657.68417 0.02408
2656.39840 0.02356
2655.11263 0.02347
2653.82686 0.02376
2652.54109 0.02414
2651.25532 0.02437
2649.96955 0.02437
2648.68378 0.02423
2647.39801 0.02407
2646.11225 0.02394
2644.82648 0.02385
2643.54071 0.02375
2642.25494 0.02366
2640.96917 0.02364
2639.68340 0.02370
2638.39763 0.02372
2637.11186 0.02346
2635.82609 0.02290
2634.54033 0.02224
2633.25456 0.02180
2631.96879 0.02178
2630.68302 0.02217
2629.39725 0.02277
2628.11148 0.02326
2626.82571 0.02336
2625.53994 0.02306
2624.25418 0.02260
2622.96841 0.02224
2621.68264 0.02204
2620.39687 0.02189
2619.11110 0.02173
2617.82533 0.02159
2616.53956 0.02152
2615.25379 0.02148
2613.96802 0.02138
2612.68226 0.02117
2611.39649 0.02100
2610.11072 0.02108
2608.82495 0.02143
2607.53918 0.02182
2606.25341 0.02192
2604.96764 0.02158
2603.68187 0.02096
2602.39611 0.02040
2601.11034 0.02017
2599.82457 0.02028
2598.53880 0.02058
2597.25303 0.02085
2595.96726 0.02096
2594.68149 0.02089
2593.39572 0.02066
2592.10995 0.02034
2590.82419 0.02003
2589.53842 0.01978
2588.25265 0.01958
2586.96688 0.01940
2585.68111 0.01923
2584.39534 0.01913
2583.10957 0.01915
2581.82380 0.01930
2580.53804 0.01954
2579.25227 0.01980
2577.96650 0.01997
2576.68073 0.01997
2575.39496 0.01981
2574.10919 0.01955
2572.82342 0.01927
2571.53765 0.01900
2570.25188 0.01874
2568.96612 0.01846
2567.68035 0.01823
2566.39458 0.01823
2565.10881 0.01854
2563.82304 0.01897
2562.53727 0.01920
2561.25150 0.01915
2559.96573 0.01897
2558.67997 0.01886
2557.39420 0.01886
2556.10843 0.01903
2554.82266 0.01939
2553.53689 0.01984
2552.25112 0.02009
2550.96535 0.01997
2549.67958 0.01959
2548.39381 0.01924
2547.10805 0.01910
2545.82228 0.01913
2544.53651 0.01917
2543.25074 0.01903
2541.96497 0.01860
2540.67920 0.01795
2539.39343 0.01737
2538.10766 0.01715
2536.82190 0.01744
2535.53613 0.01809
2534.25036 0.01880
2532.96459 0.01929
2531.67882 0.01948
2530.39305 0.01947
2529.10728 0.01927
2527.82151 0.01876
2526.53574 0.01795
2525.24998 0.01719
2523.96421 0.01697
2522.67844 0.01745
2521.39267 0.01818
2520.10690 0.01852
2518.82113 0.01827
2517.53536 0.01781
2516.24959 0.01759
2514.96383 0.01771
2513.67806 0.01792
2512.39229 0.01805
2511.10652 0.01808
2509.82075 0.01804
2508.53498 0.01798
2507.24921 0.01800
2505.96344 0.01818
2504.67767 0.01837
2503.39191 0.01831
2502.10614 0.01793
2500.82037 0.01750
2499.53460 0.01740
2498.24883 0.01777
2496.96306 0.01840
2495.67729 0.01895
2494.39152 0.01922
2493.10576 0.01918
2491.81999 0.01896
2490.53422 0.01878
2489.24845 0.01882
2487.96268 0.01900
2486.67691 0.01915
2485.39114 0.01917
2484.10537 0.01910
2482.81960 0.01893
2481.53384 0.01864
2480.24807 0.01825
2478.96230 0.01795
2477.67653 0.01786
2476.39076 0.01790
2475.10499 0.01784
2473.81922 0.01762
2472.53345 0.01738
2471.24769 0.01725
2469.96192 0.01726
2468.67615 0.01741
2467.39038 0.01767
2466.10461 0.01794
2464.81884 0.01803
2463.53307 0.01779
2462.24730 0.01733
2460.96153 0.01694
2459.67577 0.01683
2458.39000 0.01698
2457.10423 0.01723
2455.81846 0.01749
2454.53269 0.01772
2453.24692 0.01785
2451.96115 0.01782
2450.67538 0.01767
2449.38962 0.01751
2448.10385 0.01744
2446.81808 0.01744
2445.53231 0.01739
2444.24654 0.01724
2442.96077 0.01702
2441.67500 0.01685
2440.38923 0.01684
2439.10346 0.01697
2437.81770 0.01712
2436.53193 0.01717
2435.24616 0.01721
2433.96039 0.01739
2432.67462 0.01770
2431.38885 0.01794
2430.10308 0.01791
2428.81731 0.01769
2427.53155 0.01748
2426.24578 0.01735
2424.96001 0.01720
2423.67424 0.01693
2422.38847 0.01658
2421.10270 0.01629
2419.81693 0.01621
2418.53116 0.01634
2417.24539 0.01651
2415.95963 0.01648
2414.67386 0.01626
2413.38809 0.01609
2412.10232 0.01607
2410.81655 0.01602
2409.53078 0.01580
2408.24501 0.01558
2406.95924 0.01567
2405.67347 0.01607
2404.38771 0.01645
2403.10194 0.01651
2401.81617 0.01632
2400.53040 0.01617
2399.24463 0.01602
2397.95886 0.01606
2396.67309 0.01605
2395.38732 0.01586
2394.10156 0.01564
2392.81579 0.01558
2391.53002 0.01572
2390.24425 0.01598
2388.95848 0.01617
2387.67271 0.01624
2386.38694 0.01626
2385.10117 0.01638
2383.81540 0.01662
2382.52964 0.01686
2381.24387 0.01697
2379.95810 0.01697
2378.67233 0.01698
2377.38656 0.01704
2376.10079 0.01708
2374.81502 0.01694
2373.52925 0.01672
2372.24349 0.01649
2370.95772 0.01637
2369.67195 0.01622
2368.38618 0.01607
2367.10041 0.01605
2365.81464 0.01630
2364.52887 0.01656
2363.24310 0.01676
2361.95733 0.01686
2360.67157 0.01695
2359.38580 0.01678
2358.10003 0.01653
2356.81426 0.01643
2355.52849 0.01649
2354.24272 0.01657
2352.95695 0.01654
2351.67118 0.01659
2350.38542 0.01675
2349.09965 0.01678
2347.81388 0.01664
2346.52811 0.01686
2345.24234 0.01731
2343.95657 0.01736
2342.67080 0.01691
2341.38503 0.01692
2340.09926 0.01752
2338.81350 0.01739
2337.52773 0.01649
2336.24196 0.01646
2334.95619 0.01697
2333.67042 0.01626
2332.38465 0.01475
2331.09888 0.01464
2329.81311 0.01478
2328.52735 0.01391
2327.24158 0.01446
2325.95581 0.01604
2324.67004 0.01669
2323.38427 0.01756
2322.09850 0.01870
2320.81273 0.01858
2319.52696 0.01874
2318.24119 0.01926
2316.95543 0.01912
2315.66966 0.01909
2314.38389 0.01886
2313.09812 0.01803
2311.81235 0.01739
2310.52658 0.01673
2309.24081 0.01626
2307.95504 0.01619
2306.66928 0.01611
2305.38351 0.01611
2304.09774 0.01599
2302.81197 0.01564
2301.52620 0.01529
2300.24043 0.01489
2298.95466 0.01463
2297.66889 0.01451
2296.38312 0.01455
2295.09736 0.01471
2293.81159 0.01480
2292.52582 0.01478
2291.24005 0.01465
2289.95428 0.01452
2288.66851 0.01442
2287.38274 0.01435
2286.09697 0.01434
2284.81121 0.01446
2283.52544 0.01471
2282.23967 0.01504
2280.95390 0.01544
2279.66813 0.01586
2278.38236 0.01613
2277.09659 0.01600
2275.81082 0.01544
2274.52505 0.01468
2273.23929 0.01402
2271.95352 0.01359
2270.66775 0.01338
2269.38198 0.01332
2268.09621 0.01332
2266.81044 0.01320
2265.52467 0.01278
2264.23890 0.01208
2262.95314 0.01157
2261.66737 0.01184
2260.38160 0.01297
2259.09583 0.01424
2257.81006 0.01471
2256.52429 0.01404
2255.23852 0.01277
2253.95275 0.01182
2252.66698 0.01158
2251.38122 0.01172
2250.09545 0.01198
2248.80968 0.01228
2247.52391 0.01174
2246.23814 0.01134
2244.95237 0.01117
2243.66660 0.01113
2242.38083 0.01119
2241.09507 0.01143
2239.80930 0.01190
2238.52353 0.01248
2237.23776 0.01290
2235.95199 0.01300
2234.66622 0.01296
2233.38045 0.01296
2232.09468 0.01291
2230.80891 0.01259
2229.52315 0.01204
2228.23738 0.01156
2226.95161 0.01132
2225.66584 0.01120
2224.38007 0.01096
2223.09430 0.01046
2221.80853 0.00977
2220.52276 0.00911
2219.23700 0.00870
2217.95123 0.00862
2216.66546 0.00879
2215.37969 0.00906
2214.09392 0.00921
2212.80815 0.00898
2211.52238 0.00825
2210.23661 0.00743
2208.95084 0.00736
2207.66508 0.00853
2206.37931 0.01040
2205.09354 0.01170
2203.80777 0.01160
2202.52200 0.01046
2201.23623 0.00933
2199.95046 0.00886
2198.66469 0.00883
2197.37893 0.00881
2196.09316 0.00865
2194.80739 0.00839
2193.52162 0.00778
2192.23585 0.00669
2190.95008 0.00562
2189.66431 0.00546
2188.37854 0.00651
2187.09277 0.00805
2185.80701 0.00910
2184.52124 0.00927
2183.23547 0.00871
2181.94970 0.00775
2180.66393 0.00673
2179.37816 0.00616
2178.09239 0.00633
2176.80662 0.00688
2175.52085 0.00706
2174.23509 0.00654
2172.94932 0.00576
2171.66355 0.00538
2170.37778 0.00540
2169.09201 0.00524
2167.80624 0.00457
2166.52047 0.00372
2165.23470 0.00337
2163.94894 0.00393
2162.66317 0.00509
2161.37740 0.00596
2160.09163 0.00582
2158.80586 0.00488
2157.52009 0.00414
2156.23432 0.00401
2154.94855 0.00381
2153.66278 0.00273
2152.37702 0.00101
2151.09125 -0.00018
2149.80548 0.00016
2148.51971 0.00184
2147.23394 0.00362
2145.94817 0.00428
2144.66240 0.00375
2143.37663 0.00293
2142.09087 0.00261
2140.80510 0.00271
2139.51933 0.00279
2138.23356 0.00287
2136.94779 0.00331
2135.66202 0.00409
2134.37625 0.00477
2133.09048 0.00512
2131.80471 0.00547
2130.51895 0.00622
2129.23318 0.00731
2127.94741 0.00832
2126.66164 0.00892
2125.37587 0.00912
2124.09010 0.00909
2122.80433 0.00902
2121.51856 0.00900
2120.23280 0.00902
2118.94703 0.00903
2117.66126 0.00904
2116.37549 0.00915
2115.08972 0.00940
2113.80395 0.00968
2112.51818 0.00974
2111.23241 0.00934
2109.94664 0.00857
2108.66088 0.00782
2107.37511 0.00745
2106.08934 0.00739
2104.80357 0.00727
2103.51780 0.00687
2102.23203 0.00638
2100.94626 0.00615
2099.66049 0.00710
2098.37473 0.00780
2097.08896 0.00803
2095.80319 0.00800
2094.51742 0.00779
2093.23165 0.00755
2091.94588 0.00745
2090.66011 0.00763
2089.37434 0.00807
2088.08857 0.00860
2086.80281 0.00892
2085.51704 0.00888
2084.23127 0.00848
2082.94550 0.00788
2081.65973 0.00722
2080.37396 0.00669
2079.08819 0.00640
2077.80242 0.00632
2076.51666 0.00631
2075.23089 0.00627
2073.94512 0.00618
2072.65935 0.00606
2071.37358 0.00583
2070.08781 0.00539
2068.80204 0.00479
2067.51627 0.00425
2066.23050 0.00404
2064.94474 0.00423
2063.65897 0.00461
2062.37320 0.00480
2061.08743 0.00460
2059.80166 0.00410
2058.51589 0.00371
2057.23012 0.00378
2055.94435 0.00432
2054.65859 0.00505
2053.37282 0.00567
2052.08705 0.00606
2050.80128 0.00621
2049.51551 0.00623
2048.22974 0.00619
2046.94397 0.00602
2045.65820 0.00545
2044.37243 0.00425
2043.08667 0.00251
2041.80090 0.00071
2040.51513 -0.00044
2039.22936 -0.00045
2037.94359 0.00048
2036.65782 0.00163
2035.37205 0.00234
2034.08628 0.00250
2032.80052 0.00234
2031.51475 0.00220
2030.22898 0.00232
2028.94321 0.00275
2027.65744 0.00320
2026.37167 0.00324
2025.08590 0.00277
2023.80013 0.00216
2022.51436 0.00178
2021.22860 0.00163
2019.94283 0.00146
2018.65706 0.00112
2017.37129 0.00069
2016.08552 0.00038
2014.79975 0.00045
2013.51398 0.00109
2012.22821 0.00229
2010.94245 0.00384
2009.65668 0.00535
2008.37091 0.00645
2007.08514 0.00693
2005.79937 0.00681
2004.51360 0.00621
2003.22783 0.00533
2001.94206 0.00449
2000.65629 0.00405
1999.37053 0.00418
1998.08476 0.00476
1996.79899 0.00544
1995.51322 0.00579
1994.22745 0.00563
1992.94168 0.00506
1991.65591 0.00458
1990.37014 0.00470
1989.08438 0.00542
1987.79861 0.00616
1986.51284 0.00636
1985.22707 0.00612
1983.94130 0.00602
1982.65553 0.00635
1981.36976 0.00680
1980.08399 0.00690
1978.79822 0.00662
1977.51246 0.00626
1976.22669 0.00609
1974.94092 0.00617
1973.65515 0.00652
1972.36938 0.00707
1971.08361 0.00749
1969.79784 0.00738
1968.51207 0.00676
1967.22631 0.00612
1965.94054 0.00594
1964.65477 0.00609
1963.36900 0.00596
1962.08323 0.00527
1960.79746 0.00437
1959.51169 0.00392
1958.22592 0.00415
1956.94015 0.00466
1955.65439 0.00498
1954.36862 0.00507
1953.08285 0.00525
1951.79708 0.00573
1950.51131 0.00644
1949.22554 0.00716
1947.93977 0.00778
1946.65400 0.00826
1945.36823 0.00864
1944.08247 0.00899
1942.79670 0.00935
1941.51093 0.00967
1940.22516 0.00985
1938.93939 0.00986
1937.65362 0.00968
1936.36785 0.00928
1935.08208 0.00869
1933.79632 0.00817
1932.51055 0.00807
1931.22478 0.00846
1929.93901 0.00909
1928.65324 0.00956
1927.36747 0.00969
1926.08170 0.00956
1924.79593 0.00936
1923.51016 0.00914
1922.22440 0.00886
1920.93863 0.00848
1919.65286 0.00803
1918.36709 0.00764
1917.08132 0.00753
1915.79555 0.00779
1914.50978 0.00832
1913.22401 0.00883
1911.93825 0.00906
1910.65248 0.00897
1909.36671 0.00868
1908.08094 0.00838
1906.79517 0.00818
1905.50940 0.00811
1904.22363 0.00819
1902.93786 0.00840
1901.65209 0.00865
1900.36633 0.00878
1899.08056 0.00872
1897.79479 0.00857
1896.50902 0.00850
1895.22325 0.00856
1893.93748 0.00877
1892.65171 0.00917
1891.36594 0.00967
1890.08018 0.01001
1888.79441 0.00990
1887.50864 0.00939
1886.22287 0.00883
1884.93710 0.00858
1883.65133 0.00873
1882.36556 0.00905
1881.07979 0.00926
1879.79402 0.00925
1878.50826 0.00914
1877.22249 0.00907
1875.93672 0.00907
1874.65095 0.00906
1873.36518 0.00897
1872.07941 0.00887
1870.79364 0.00889
1869.50787 0.00910
1868.22211 0.00942
1866.93634 0.00967
1865.65057 0.00968
1864.36480 0.00946
1863.07903 0.00919
1861.79326 0.00911
1860.50749 0.00926
1859.22172 0.00951
1857.93595 0.00969
1856.65019 0.00974
1855.36442 0.00966
1854.07865 0.00948
1852.79288 0.00926
1851.50711 0.00912
1850.22134 0.00915
1848.93557 0.00932
1847.64980 0.00949
1846.36404 0.00953
1845.07827 0.00940
1843.79250 0.00919
1842.50673 0.00901
1841.22096 0.00894
1839.93519 0.00899
1838.64942 0.00912
1837.36365 0.00929
1836.07788 0.00945
1834.79212 0.00959
1833.50635 0.00970
1832.22058 0.00980
1830.93481 0.00990
1829.64904 0.01002
1828.36327 0.01017
1827.07750 0.01034
1825.79173 0.01048
1824.50597 0.01053
1823.22020 0.01045
1821.93443 0.01032
1820.64866 0.01024
1819.36289 0.01025
1818.07712 0.01023
1816.79135 0.01004
1815.50558 0.00965
1814.21981 0.00926
1812.93405 0.00908
1811.64828 0.00915
1810.36251 0.00937
1809.07674 0.00958
1807.79097 0.00969
1806.50520 0.00976
1805.21943 0.00984
1803.93366 0.00993
1802.64790 0.01001
1801.36213 0.01009
1800.07636 0.01023
1798.79059 0.01039
1797.50482 0.01050
1796.21905 0.01053
1794.93328 0.01055
1793.64751 0.01061
1792.36174 0.01073
1791.07598 0.01082
1789.79021 0.01085
1788.50444 0.01086
1787.21867 0.01090
1785.93290 0.01101
1784.64713 0.01117
1783.36136 0.01137
1782.07559 0.01151
1780.78983 0.01153
1779.50406 0.01138
1778.21829 0.01114
1776.93252 0.01099
1775.64675 0.01102
1774.36098 0.01122
1773.07521 0.01149
1771.78944 0.01169
1770.50367 0.01176
1769.21791 0.01170
1767.93214 0.01160
1766.64637 0.01156
1765.36060 0.01164
1764.07483 0.01185
1762.78906 0.01210
1761.50329 0.01229
1760.21752 0.01236
1758.93176 0.01234
1757.64599 0.01231
1756.36022 0.01231
1755.07445 0.01240
1753.78868 0.01256
1752.50291 0.01273
1751.21714 0.01281
1749.93137 0.01277
1748.64560 0.01268
1747.35984 0.01260
1746.07407 0.01258
1744.78830 0.01262
1743.50253 0.01268
1742.21676 0.01274
1740.93099 0.01280
1739.64522 0.01287
1738.35945 0.01301
1737.07369 0.01323
1735.78792 0.01349
1734.50215 0.01367
1733.21638 0.01371
1731.93061 0.01365
1730.64484 0.01360
1729.35907 0.01361
1728.07330 0.01370
1726.78753 0.01382
1725.50177 0.01397
1724.21600 0.01417
1722.93023 0.01446
1721.64446 0.01485
1720.35869 0.01527
1719.07292 0.01565
1717.78715 0.01594
1716.50138 0.01616
1715.21561 0.01634
1713.92985 0.01651
1712.64408 0.01665
1711.35831 0.01681
1710.07254 0.01699
1708.78677 0.01720
1707.50100 0.01738
1706.21523 0.01754
1704.92946 0.01771
1703.64370 0.01797
1702.35793 0.01832
1701.07216 0.01869
1699.78639 0.01900
1698.50062 0.01924
1697.21485 0.01943
1695.92908 0.01957
1694.64331 0.01964
1693.35754 0.01965
1692.07178 0.01966
1690.78601 0.01976
1689.50024 0.01996
1688.21447 0.02029
1686.92870 0.02069
1685.64293 0.02107
1684.35716 0.02133
1683.07139 0.02145
1681.78563 0.02152
1680.49986 0.02165
1679.21409 0.02190
1677.92832 0.02224
1676.64255 0.02258
1675.35678 0.02287
1674.07101 0.02311
1672.78524 0.02334
1671.49947 0.02358
1670.21371 0.02381
1668.92794 0.02403
1667.64217 0.02429
1666.35640 0.02463
1665.07063 0.02503
1663.78486 0.02543
1662.49909 0.02575
1661.21332 0.02599
1659.92756 0.02619
1658.64179 0.02641
1657.35602 0.02669
1656.07025 0.02707
1654.78448 0.02751
1653.49871 0.02788
1652.21294 0.02805
1650.92717 0.02806
1649.64140 0.02806
1648.35564 0.02817
1647.06987 0.02838
1645.78410 0.02858
1644.49833 0.02871
1643.21256 0.02882
1641.92679 0.02896
1640.64102 0.02915
1639.35525 0.02941
1638.06949 0.02974
1636.78372 0.03011
1635.49795 0.03043
1634.21218 0.03062
1632.92641 0.03067
1631.64064 0.03066
1630.35487 0.03074
1629.06910 0.03096
1627.78333 0.03132
1626.49757 0.03172
1625.21180 0.03206
1623.92603 0.03231
1622.64026 0.03250
1621.35449 0.03268
1620.06872 0.03292
1618.78295 0.03325
1617.49718 0.03362
1616.21142 0.03396
1614.92565 0.03425
1613.63988 0.03451
1612.35411 0.03478
1611.06834 0.03508
1609.78257 0.03538
1608.49680 0.03570
1607.21103 0.03603
1605.92526 0.03635
1604.63950 0.03664
1603.35373 0.03688
1602.06796 0.03712
1600.78219 0.03738
1599.49642 0.03768
1598.21065 0.03799
1596.92488 0.03826
1595.63911 0.03846
1594.35335 0.03858
1593.06758 0.03865
1591.78181 0.03874
1590.49604 0.03885
1589.21027 0.03895
1587.92450 0.03902
1586.63873 0.03906
1585.35296 0.03909
1584.06719 0.03913
1582.78143 0.03922
1581.49566 0.03936
1580.20989 0.03953
1578.92412 0.03970
1577.63835 0.03980
1576.35258 0.03974
1575.06681 0.03955
1573.78104 0.03933
1572.49528 0.03920
1571.20951 0.03922
1569.92374 0.03932
1568.63797 0.03938
1567.35220 0.03932
1566.06643 0.03915
1564.78066 0.03895
1563.49489 0.03880
1562.20912 0.03877
1560.92336 0.03883
1559.63759 0.03887
1558.35182 0.03879
1557.06605 0.03858
1555.78028 0.03835
1554.49451 0.03817
1553.20874 0.03805
1551.92297 0.03796
1550.63721 0.03782
1549.35144 0.03762
1548.06567 0.03737
1546.77990 0.03715
1545.49413 0.03699
1544.20836 0.03692
1542.92259 0.03691
1541.63682 0.03692
1540.35105 0.03684
1539.06529 0.03660
1537.77952 0.03624
1536.49375 0.03590
1535.20798 0.03570
1533.92221 0.03566
1532.63644 0.03572
1531.35067 0.03585
1530.06490 0.03604
1528.77914 0.03632
1527.49337 0.03667
1526.20760 0.03709
1524.92183 0.03756
1523.63606 0.03806
1522.35029 0.03858
1521.06452 0.03912
1519.77875 0.03970
1518.49298 0.04037
1517.20722 0.04112
1515.92145 0.04195
1514.63568 0.04283
1513.34991 0.04376
1512.06414 0.04473
1510.77837 0.04575
1509.49260 0.04680
1508.20683 0.04786
1506.92107 0.04889
1505.63530 0.04981
1504.34953 0.05063
1503.06376 0.05142
1501.77799 0.05226
1500.49222 0.05316
1499.20645 0.05407
1497.92068 0.05491
1496.63491 0.05562
1495.34915 0.05622
1494.06338 0.05675
1492.77761 0.05731
1491.49184 0.05793
1490.20607 0.05860
1488.92030 0.05929
1487.63453 0.05998
1486.34876 0.06069
1485.06299 0.06143
1483.77723 0.06224
1482.49146 0.06309
1481.20569 0.06402
1479.91992 0.06500
1478.63415 0.06598
1477.34838 0.06692
1476.06261 0.06775
1474.77684 0.06843
1473.49108 0.06897
1472.20531 0.06936
1470.91954 0.06964
1469.63377 0.06987
1468.34800 0.07007
1467.06223 0.07024
1465.77646 0.07042
1464.49069 0.07061
1463.20492 0.07086
1461.91916 0.07117
1460.63339 0.07158
1459.34762 0.07206
1458.06185 0.07256
1456.77608 0.07296
1455.49031 0.07324
1454.20454 0.07345
1452.91877 0.07368
1451.63301 0.07393
1450.34724 0.07417
1449.06147 0.07434
1447.77570 0.07442
1446.48993 0.07440
1445.20416 0.07434
1443.91839 0.07427
1442.63262 0.07425
1441.34685 0.07425
1440.06109 0.07425
1438.77532 0.07424
1437.48955 0.07427
1436.20378 0.07439
1434.91801 0.07466
1433.63224 0.07513
1432.34647 0.07581
1431.06070 0.07669
1429.77494 0.07772
1428.48917 0.07883
1427.20340 0.07996
1425.91763 0.08108
1424.63186 0.08216
1423.34609 0.08321
1422.06032 0.08424
1420.77455 0.08518
1419.48878 0.08597
1418.20302 0.08657
1416.91725 0.08703
1415.63148 0.08739
1414.34571 0.08764
1413.05994 0.08773
1411.77417 0.08761
1410.48840 0.08723
1409.20263 0.08663
1407.91687 0.08587
1406.63110 0.08499
1405.34533 0.08400
1404.05956 0.08289
1402.77379 0.08163
1401.48802 0.08024
1400.20225 0.07875
1398.91648 0.07723
1397.63071 0.07567
1396.34495 0.07408
1395.05918 0.07243
1393.77341 0.07074
1392.48764 0.06902
1391.20187 0.06733
1389.91610 0.06570
1388.63033 0.06415
1387.34456 0.06262
1386.05880 0.06107
1384.77303 0.05950
1383.48726 0.05796
1382.20149 0.05647
1380.91572 0.05504
1379.62995 0.05362
1378.34418 0.05215
1377.05841 0.05061
1375.77264 0.04902
1374.48688 0.04744
1373.20111 0.04594
1371.91534 0.04455
1370.62957 0.04327
1369.34380 0.04206
1368.05803 0.04089
1366.77226 0.03975
1365.48649 0.03866
1364.20073 0.03764
1362.91496 0.03671
1361.62919 0.03584
1360.34342 0.03499
1359.05765 0.03414
1357.77188 0.03328
1356.48611 0.03245
1355.20034 0.03170
1353.91457 0.03103
1352.62881 0.03043
1351.34304 0.02987
1350.05727 0.02931
1348.77150 0.02875
1347.48573 0.02818
1346.19996 0.02760
1344.91419 0.02706
1343.62842 0.02657
1342.34266 0.02616
1341.05689 0.02580
1339.77112 0.02545
1338.48535 0.02508
1337.19958 0.02472
1335.91381 0.02437
1334.62804 0.02405
1333.34227 0.02374
1332.05650 0.02344
1330.77074 0.02313
1329.48497 0.02284
1328.19920 0.02258
1326.91343 0.02239
1325.62766 0.02225
1324.34189 0.02210
1323.05612 0.02191
1321.77035 0.02166
1320.48459 0.02138
1319.19882 0.02111
1317.91305 0.02085
1316.62728 0.02062
1315.34151 0.02042
1314.05574 0.02029
1312.76997 0.02019
1311.48420 0.02008
1310.19843 0.01990
1308.91267 0.01965
1307.62690 0.01938
1306.34113 0.01913
1305.05536 0.01894
1303.76959 0.01880
1302.48382 0.01871
1301.19805 0.01866
1299.91228 0.01863
1298.62652 0.01860
1297.34075 0.01854
1296.05498 0.01844
1294.76921 0.01830
1293.48344 0.01813
1292.19767 0.01793
1290.91190 0.01773
1289.62613 0.01754
1288.34036 0.01738
1287.05460 0.01724
1285.76883 0.01713
1284.48306 0.01705
1283.19729 0.01698
1281.91152 0.01691
1280.62575 0.01687
1279.33998 0.01684
1278.05421 0.01680
1276.76845 0.01673
1275.48268 0.01664
1274.19691 0.01656
1272.91114 0.01653
1271.62537 0.01653
1270.33960 0.01649
1269.05383 0.01638
1267.76806 0.01620
1266.48229 0.01603
1265.19653 0.01594
1263.91076 0.01593
1262.62499 0.01595
1261.33922 0.01595
1260.05345 0.01589
1258.76768 0.01580
1257.48191 0.01573
1256.19614 0.01569
1254.91037 0.01568
1253.62461 0.01567
1252.33884 0.01564
1251.05307 0.01559
1249.76730 0.01555
1248.48153 0.01553
1247.19576 0.01553
1245.90999 0.01554
1244.62422 0.01553
1243.33846 0.01546
1242.05269 0.01538
1240.76692 0.01534
1239.48115 0.01535
1238.19538 0.01539
1236.90961 0.01541
1235.62384 0.01540
1234.33807 0.01537
1233.05230 0.01535
1231.76654 0.01533
1230.48077 0.01531
1229.19500 0.01530
1227.90923 0.01533
1226.62346 0.01541
1225.33769 0.01551
1224.05192 0.01563
1222.76615 0.01573
1221.48039 0.01581
1220.19462 0.01588
1218.90885 0.01594
1217.62308 0.01596
1216.33731 0.01594
1215.05154 0.01589
1213.76577 0.01586
1212.48000 0.01591
1211.19423 0.01605
1209.90847 0.01622
1208.62270 0.01635
1207.33693 0.01641
1206.05116 0.01642
1204.76539 0.01640
1203.47962 0.01643
1202.19385 0.01653
1200.90808 0.01667
1199.62232 0.01677
1198.33655 0.01699
1197.05078 0.01716
1195.76501 0.01725
1194.47924 0.01728
1193.19347 0.01733
1191.90770 0.01740
1190.62193 0.01748
1189.33616 0.01753
1188.05040 0.01758
1186.76463 0.01765
1185.47886 0.01777
1184.19309 0.01789
1182.90732 0.01800
1181.62155 0.01807
1180.33578 0.01813
1179.05001 0.01816
1177.76425 0.01820
1176.47848 0.01826
1175.19271 0.01838
1173.90694 0.01857
1172.62117 0.01884
1171.33540 0.01915
1170.04963 0.01945
1168.76386 0.01970
1167.47809 0.01990
1166.19233 0.02008
1164.90656 0.02024
1163.62079 0.02039
1162.33502 0.02053
1161.04925 0.02066
1159.76348 0.02082
1158.47771 0.02110
1157.19194 0.02150
1155.90618 0.02197
1154.62041 0.02240
1153.33464 0.02279
1152.04887 0.02318
1150.76310 0.02362
1149.47733 0.02410
1148.19156 0.02459
1146.90579 0.02510
1145.62002 0.02571
1144.33426 0.02642
1143.04849 0.02721
1141.76272 0.02806
1140.47695 0.02897
1139.19118 0.02997
1137.90541 0.03108
1136.61964 0.03223
1135.33387 0.03343
1134.04811 0.03471
1132.76234 0.03621
1131.47657 0.03797
1130.19080 0.03998
1128.90503 0.04215
1127.61926 0.04442
1126.33349 0.04680
1125.04772 0.04931
1123.76195 0.05196
1122.47619 0.05475
1121.19042 0.05763
1119.90465 0.06056
1118.61888 0.06349
1117.33311 0.06643
1116.04734 0.06938
1114.76157 0.07228
1113.47580 0.07509
1112.19004 0.07782
1110.90427 0.08055
1109.61850 0.08331
1108.33273 0.08606
1107.04696 0.08872
1105.76119 0.09123
1104.47542 0.09364
1103.18965 0.09602
1101.90388 0.09843
1100.61812 0.10085
1099.33235 0.10320
1098.04658 0.10546
1096.76081 0.10759
1095.47504 0.10960
1094.18927 0.11148
1092.90350 0.11322
1091.61773 0.11481
1090.33197 0.11633
1089.04620 0.11782
1087.76043 0.11930
1086.47466 0.12076
1085.18889 0.12226
1083.90312 0.12388
1082.61735 0.12567
1081.33158 0.12761
1080.04581 0.12969
1078.76005 0.13193
1077.47428 0.13437
1076.18851 0.13693
1074.90274 0.13953
1073.61697 0.14211
1072.33120 0.14472
1071.04543 0.14741
1069.75966 0.15021
1068.47390 0.15310
1067.18813 0.15607
1065.90236 0.15912
1064.61659 0.16226
1063.33082 0.16550
1062.04505 0.16879
1060.75928 0.17208
1059.47351 0.17530
1058.18774 0.17842
1056.90198 0.18142
1055.61621 0.18437
1054.33044 0.18732
1053.04467 0.19030
1051.75890 0.19336
1050.47313 0.19650
1049.18736 0.19974
1047.90159 0.20305
1046.61583 0.20642
1045.33006 0.20985
1044.04429 0.21332
1042.75852 0.21682
1041.47275 0.22034
1040.18698 0.22390
1038.90121 0.22753
1037.61544 0.23116
1036.32967 0.23471
1035.04391 0.23806
1033.75814 0.24116
1032.47237 0.24399
1031.18660 0.24657
1029.90083 0.24890
1028.61506 0.25094
1027.32929 0.25268
1026.04352 0.25404
1024.75775 0.25493
1023.47199 0.25532
1022.18622 0.25521
1020.90045 0.25462
1019.61468 0.25357
1018.32891 0.25207
1017.04314 0.25008
1015.75737 0.24760
1014.47160 0.24461
1013.18584 0.24108
1011.90007 0.23702
1010.61430 0.23246
1009.32853 0.22745
1008.04276 0.22205
1006.75699 0.21628
1005.47122 0.21021
1004.18545 0.20389
1002.89968 0.19737
1001.61392 0.19067
1000.32815 0.18382
999.04238 0.17691
997.75661 0.17004
996.47084 0.16330
995.18507 0.15670
993.89930 0.15024
992.61353 0.14393
991.32777 0.13787
990.04200 0.13213
988.75623 0.12671
987.47046 0.12158
986.18469 0.11668
984.89892 0.11197
983.61315 0.10743
982.32738 0.10310
981.04161 0.09903
979.75585 0.09533
978.47008 0.09203
977.18431 0.08909
975.89854 0.08643
974.61277 0.08404
973.32700 0.08201
972.04123 0.08044
970.75546 0.07938
969.46970 0.07882
968.18393 0.07874
966.89816 0.07907
965.61239 0.07971
964.32662 0.08048
963.04085 0.08116
961.75508 0.08155
960.46931 0.08147
959.18354 0.08076
957.89778 0.07940
956.61201 0.07752
955.32624 0.07536
954.04047 0.07309
952.75470 0.07082
951.46893 0.06862
950.18316 0.06650
948.89739 0.06453
947.61163 0.06269
946.32586 0.06097
945.04009 0.05929
943.75432 0.05767
942.46855 0.05612
941.18278 0.05465
939.89701 0.05323
938.61124 0.05185
937.32547 0.05053
936.03971 0.04931
934.75394 0.04822
933.46817 0.04726
932.18240 0.04636
930.89663 0.04549
929.61086 0.04461
928.32509 0.04375
927.03932 0.04293
925.75356 0.04218
924.46779 0.04151
923.18202 0.04089
921.89625 0.04032
920.61048 0.03980
919.32471 0.03932
918.03894 0.03888
916.75317 0.03851
915.46740 0.03822
914.18164 0.03797
912.89587 0.03767
911.61010 0.03723
910.32433 0.03670
909.03856 0.03617
907.75279 0.03576
906.46702 0.03551
905.18125 0.03535
903.89549 0.03519
902.60972 0.03496
901.32395 0.03463
900.03818 0.03422
898.75241 0.03376
897.46664 0.03335
896.18087 0.03309
894.89510 0.03302
893.60933 0.03310
892.32357 0.03326
891.03780 0.03340
889.75203 0.03354
888.46626 0.03383
887.18049 0.03446
885.89472 0.03559
884.60895 0.03724
883.32318 0.03930
882.03742 0.04162
880.75165 0.04393
879.46588 0.04599
878.18011 0.04767
876.89434 0.04911
875.60857 0.05054
874.32280 0.05196
873.03703 0.05307
871.75126 0.05346
870.46550 0.05298
869.17973 0.05176
867.89396 0.05003
866.60819 0.04794
865.32242 0.04565
864.03665 0.04336
862.75088 0.04126
861.46511 0.03941
860.17935 0.03779
858.89358 0.03637
857.60781 0.03516
856.32204 0.03418
855.03627 0.03344
853.75050 0.03290
852.46473 0.03252
851.17896 0.03217
849.89319 0.03181
848.60743 0.03141
847.32166 0.03102
846.03589 0.03072
844.75012 0.03051
843.46435 0.03035
842.17858 0.03019
840.89281 0.02997
839.60704 0.02970
838.32128 0.02945
837.03551 0.02927
835.74974 0.02921
834.46397 0.02923
833.17820 0.02923
831.89243 0.02914
830.60666 0.02894
829.32089 0.02868
828.03512 0.02846
826.74936 0.02834
825.46359 0.02835
824.17782 0.02843
822.89205 0.02849
821.60628 0.02848
820.32051 0.02837
819.03474 0.02819
817.74897 0.02801
816.46321 0.02787
815.17744 0.02780
813.89167 0.02780
812.60590 0.02785
811.32013 0.02790
810.03436 0.02791
808.74859 0.02788
807.46282 0.02789
806.17705 0.02801
804.89129 0.02820
803.60552 0.02840
802.31975 0.02853
801.03398 0.02861
799.74821 0.02864
798.46244 0.02866
797.17667 0.02867
795.89090 0.02870
794.60513 0.02871
793.31937 0.02871
792.03360 0.02869
790.74783 0.02866
789.46206 0.02861
788.17629 0.02852
786.89052 0.02840
785.60475 0.02829
784.31898 0.02821
783.03322 0.02816
781.74745 0.02815
780.46168 0.02822
779.17591 0.02841
777.89014 0.02863
776.60437 0.02874
775.31860 0.02869
774.03283 0.02853
772.74706 0.02836
771.46130 0.02825
770.17553 0.02819
768.88976 0.02814
767.60399 0.02811
766.31822 0.02812
765.03245 0.02819
763.74668 0.02829
762.46091 0.02834
761.17515 0.02836
759.88938 0.02839
758.60361 0.02848
757.31784 0.02853
756.03207 0.02846
754.74630 0.02831
753.46053 0.02822
752.17476 0.02825
750.88899 0.02835
749.60323 0.02839
748.31746 0.02832
747.03169 0.02816
745.74592 0.02802
744.46015 0.02797
743.17438 0.02801
741.88861 0.02807
740.60284 0.02813
739.31708 0.02824
738.03131 0.02840
736.74554 0.02847
735.45977 0.02839
734.17400 0.02820
732.88823 0.02806
731.60246 0.02805
730.31669 0.02814
729.03092 0.02827
727.74516 0.02835
726.45939 0.02836
725.17362 0.02826
723.88785 0.02788
722.60208 0.02792
721.31631 0.02824
720.03054 0.02861
718.74477 0.02895
717.45901 0.02916
716.17324 0.02920
714.88747 0.02906
713.60170 0.02880
712.31593 0.02848
711.03016 0.02820
709.74439 0.02802
708.45862 0.02796
707.17285 0.02797
705.88709 0.02800
704.60132 0.02798
703.31555 0.02793
702.02978 0.02786
700.74401 0.02782
699.45824 0.02788
698.17247 0.02806
696.88670 0.02831
695.60094 0.02857
694.31517 0.02877
693.02940 0.02886
691.74363 0.02883
690.45786 0.02875
689.17209 0.02868
687.88632 0.02864
686.60055 0.02856
685.31478 0.02839
684.02902 0.02817
682.74325 0.02796
681.45748 0.02784
680.17171 0.02780
678.88594 0.02782
677.60017 0.02786
676.31440 0.02791
675.02863 0.02797
673.74287 0.02808
672.45710 0.02827
671.17133 0.02853
669.88556 0.02877
668.59979 0.02874
667.31402 0.02866
666.02825 0.02872
664.74248 0.02850
663.45671 0.02825
662.17095 0.02809
660.88518 0.02800
659.59941 0.02797
658.31364 0.02797
657.02787 0.02801
655.74210 0.02806
654.45633 0.02814
653.17056 0.02825
651.88480 0.02834
650.59903 0.02838
649.31326 0.02838
648.02749 0.02843
646.74172 0.02857
645.45595 0.02880
644.17018 0.02904
642.88441 0.02922
641.59864 0.02934
640.31288 0.02943
639.02711 0.02954
637.74134 0.02970
636.45557 0.02990
635.16980 0.03016
633.88403 0.03046
632.59826 0.03074
631.31249 0.03112
630.02673 0.03210
628.74096 0.03353
627.45519 0.03358
626.16942 0.03553
624.88365 0.03871
623.59788 0.04179
622.31211 0.04455
621.02634 0.04721
619.74057 0.04958
618.45481 0.05112
617.16904 0.05189
615.88327 0.05293
614.59750 0.05560
613.31173 0.06051
612.02596 0.06691
610.74019 0.07311
609.45442 0.07806
608.16866 0.08231
606.88289 0.08686
605.59712 0.09140
604.31135 0.09457
603.02558 0.09554
601.73981 0.09468
600.45404 0.09277
599.16827 0.09019
597.88250 0.08709
596.59674 0.08376
595.31097 0.08067
594.02520 0.07817
592.73943 0.07635
591.45366 0.07515
590.16789 0.07446
588.88212 0.07424
587.59635 0.07457
586.31059 0.07553
585.02482 0.07708
583.73905 0.07905
582.45328 0.08119
581.16751 0.08343
579.88174 0.08581
578.59597 0.08834
577.31020 0.09096
576.02443 0.09349
574.73867 0.09581
573.45290 0.09796
572.16713 0.10016
570.88136 0.10271
569.59559 0.10574
568.30982 0.10915
567.02405 0.11271
565.73828 0.11609
564.45251 0.11891
563.16675 0.12071
561.88098 0.12105
560.59521 0.11967
559.30944 0.11659
558.02367 0.11210
556.73790 0.10662
555.45213 0.10062
554.16636 0.09451
552.88060 0.08866
551.59483 0.08329
550.30906 0.07850
549.02329 0.07426
547.73752 0.07050
546.45175 0.06717
545.16598 0.06428
543.88021 0.06178
542.59444 0.05951
541.30868 0.05734
540.02291 0.05526
538.73714 0.05338
537.45137 0.05181
536.16560 0.05053
534.87983 0.04945
533.59406 0.04841
532.30829 0.04736
531.02253 0.04634
529.73676 0.04539
528.45099 0.04448
527.16522 0.04350
525.87945 0.04246
524.59368 0.04145
523.30791 0.04057
522.02214 0.03980
520.73637 0.03907
519.45061 0.03836
518.16484 0.03773
516.87907 0.03723
515.59330 0.03683
514.30753 0.03645
513.02176 0.03607
511.73599 0.03570
510.45022 0.03536
509.16446 0.03504
507.87869 0.03471
506.59292 0.03437
505.30715 0.03401
504.02138 0.03356
502.73561 0.03300
501.44984 0.03239
500.16407 0.03187
498.87830 0.03152
497.59254 0.03133
496.30677 0.03120
495.02100 0.03107
493.73523 0.03096
492.44946 0.03086
491.16369 0.03079
489.87792 0.03068
488.59215 0.03053
487.30639 0.03041
486.02062 0.03045
484.73485 0.03071
483.44908 0.03112
482.16331 0.03149
480.87754 0.03172
479.59177 0.03184
478.30600 0.03200
477.02023 0.03231
475.73447 0.03274
474.44870 0.03319
473.16293 0.03353
471.87716 0.03372
470.59139 0.03377
469.30562 0.03373
468.01985 0.03364
466.73408 0.03351
465.44832 0.03335
464.16255 0.03314
462.87678 0.03288
461.59101 0.03261
460.30524 0.03234
459.01947 0.03207
457.73370 0.03178
456.44793 0.03148
455.16216 0.03115
453.87640 0.03083
452.59063 0.03053
451.30486 0.03028
450.01909 0.03006
448.73332 0.02980
447.44755 0.02950
446.16178 0.02920
444.87601 0.02899
443.59025 0.02885
442.30448 0.02872
441.01871 0.02853
439.73294 0.02831
438.44717 0.02812
437.16140 0.02803
435.87563 0.02800
434.58986 0.02802
433.30409 0.02801
432.01833 0.02794
430.73256 0.02778
429.44679 0.02757
428.16102 0.02736
426.87525 0.02719
425.58948 0.02708
424.30371 0.02697
423.01794 0.02683
421.73218 0.02665
420.44641 0.02646
419.16064 0.02627
417.87487 0.02609
416.58910 0.02591
415.30333 0.02578
414.01756 0.02568
412.73179 0.02556
411.44602 0.02541
410.16026 0.02526
408.87449 0.02516
407.58872 0.02516
406.30295 0.02522
405.01718 0.02529
403.73141 0.02534
402.44564 0.02538
401.15987 0.02544
399.87411 0.02555
