3997.45528 0.03401
3996.16951 0.03407
3994.88374 0.03428
3993.59798 0.03409
3992.31221 0.03326
3991.02644 0.03222
3989.74067 0.03170
3988.45490 0.03210
3987.16913 0.03312
3985.88336 0.03401
3984.59759 0.03426
3983.31183 0.03398
3982.02606 0.03362
3980.74029 0.03325
3979.45452 0.03249
3978.16875 0.03115
3976.88298 0.02971
3975.59721 0.02891
3974.31144 0.02895
3973.02567 0.02941
3971.73991 0.02985
3970.45414 0.03030
3969.16837 0.03109
3967.88260 0.03229
3966.59683 0.03356
3965.31106 0.03430
3964.02529 0.03411
3962.73952 0.03312
3961.45376 0.03191
3960.16799 0.03105
3958.88222 0.03079
3957.59645 0.03101
3956.31068 0.03132
3955.02491 0.03128
3953.73914 0.03061
3952.45337 0.02958
3951.16760 0.02885
3949.88184 0.02888
3948.59607 0.02953
3947.31030 0.03030
3946.02453 0.03079
3944.73876 0.03105
3943.45299 0.03133
3942.16722 0.03167
3940.88145 0.03178
3939.59569 0.03141
3938.30992 0.03071
3937.02415 0.03023
3935.73838 0.03037
3934.45261 0.03106
3933.16684 0.03179
3931.88107 0.03203
3930.59530 0.03166
3929.30953 0.03104
3928.02377 0.03070
3926.73800 0.03093
3925.45223 0.03162
3924.16646 0.03226
3922.88069 0.03237
3921.59492 0.03197
3920.30915 0.03169
3919.02338 0.03214
3917.73762 0.03318
3916.45185 0.03405
3915.16608 0.03425
3913.88031 0.03402
3912.59454 0.03385
3911.30877 0.03399
3910.02300 0.03428
3908.73723 0.03447
3907.45146 0.03435
3906.16570 0.03394
3904.87993 0.03333
3903.59416 0.03250
3902.30839 0.03134
3901.02262 0.03004
3899.73685 0.02918
3898.45108 0.02916
3897.16531 0.02962
3895.87955 0.02984
3894.59378 0.02959
3893.30801 0.02939
3892.02224 0.02974
3890.73647 0.03045
3889.45070 0.03106
3888.16493 0.03141
3886.87916 0.03154
3885.59339 0.03133
3884.30763 0.03075
3883.02186 0.03014
3881.73609 0.02998
3880.45032 0.03040
3879.16455 0.03109
3877.87878 0.03179
3876.59301 0.03238
3875.30724 0.03275
3874.02148 0.03269
3872.73571 0.03214
3871.44994 0.03140
3870.16417 0.03082
3868.87840 0.03059
3867.59263 0.03076
3866.30686 0.03115
3865.02109 0.03139
3863.73532 0.03120
3862.44956 0.03068
3861.16379 0.03012
3859.87802 0.02970
3858.59225 0.02942
3857.30648 0.02936
3856.02071 0.02967
3854.73494 0.03022
3853.44917 0.03069
3852.16341 0.03098
3850.87764 0.03117
3849.59187 0.03108
3848.30610 0.03048
3847.02033 0.02966
3845.73456 0.02918
3844.44879 0.02914
3843.16302 0.02911
3841.87725 0.02888
3840.59149 0.02882
3839.30572 0.02924
3838.01995 0.02981
3836.73418 0.03002
3835.44841 0.02989
3834.16264 0.02982
3832.87687 0.03000
3831.59110 0.03015
3830.30534 0.02994
3829.01957 0.02933
3827.73380 0.02866
3826.44803 0.02829
3825.16226 0.02849
3823.87649 0.02922
3822.59072 0.03010
3821.30495 0.03057
3820.01918 0.03050
3818.73342 0.03039
3817.44765 0.03066
3816.16188 0.03097
3814.87611 0.03056
3813.59034 0.02915
3812.30457 0.02733
3811.01880 0.02609
3809.73303 0.02614
3808.44726 0.02732
3807.16150 0.02858
3805.87573 0.02903
3804.58996 0.02884
3803.30419 0.02879
3802.01842 0.02920
3800.73265 0.02967
3799.44688 0.02981
3798.16111 0.02963
3796.87535 0.02920
3795.58958 0.02846
3794.30381 0.02758
3793.01804 0.02700
3791.73227 0.02708
3790.44650 0.02774
3789.16073 0.02864
3787.87496 0.02945
3786.58919 0.02993
3785.30343 0.02985
3784.01766 0.02916
3782.73189 0.02830
3781.44612 0.02784
3780.16035 0.02788
3778.87458 0.02809
3777.58881 0.02823
3776.30304 0.02839
3775.01728 0.02856
3773.73151 0.02861
3772.44574 0.02854
3771.15997 0.02853
3769.87420 0.02865
3768.58843 0.02882
3767.30266 0.02918
3766.01689 0.03003
3764.73112 0.03130
3763.44536 0.03231
3762.15959 0.03220
3760.87382 0.03073
3759.58805 0.02854
3758.30228 0.02663
3757.01651 0.02574
3755.73074 0.02603
3754.44497 0.02722
3753.15921 0.02870
3751.87344 0.02981
3750.58767 0.03014
3749.30190 0.02961
3748.01613 0.02851
3746.73036 0.02744
3745.44459 0.02687
3744.15882 0.02682
3742.87305 0.02713
3741.58729 0.02774
3740.30152 0.02839
3739.01575 0.02871
3737.72998 0.02850
3736.44421 0.02784
3735.15844 0.02703
3733.87267 0.02650
3732.58690 0.02650
3731.30114 0.02681
3730.01537 0.02700
3728.72960 0.02679
3727.44383 0.02626
3726.15806 0.02585
3724.87229 0.02591
3723.58652 0.02630
3722.30075 0.02657
3721.01498 0.02655
3719.72922 0.02641
3718.44345 0.02634
3717.15768 0.02627
3715.87191 0.02611
3714.58614 0.02588
3713.30037 0.02563
3712.01460 0.02550
3710.72883 0.02579
3709.44307 0.02675
3708.15730 0.02818
3706.87153 0.02948
3705.58576 0.03015
3704.29999 0.03022
3703.01422 0.03014
3701.72845 0.03017
3700.44268 0.03001
3699.15691 0.02905
3697.87115 0.02715
3696.58538 0.02496
3695.29961 0.02349
3694.01384 0.02346
3692.72807 0.02469
3691.44230 0.02631
3690.15653 0.02732
3688.87076 0.02729
3687.58500 0.02661
3686.29923 0.02610
3685.01346 0.02621
3683.72769 0.02663
3682.44192 0.02670
3681.15615 0.02624
3679.87038 0.02572
3678.58461 0.02576
3677.29884 0.02638
3676.01308 0.02682
3674.72731 0.02640
3673.44154 0.02534
3672.15577 0.02446
3670.87000 0.02427
3669.58423 0.02464
3668.29846 0.02535
3667.01269 0.02636
3665.72693 0.02761
3664.44116 0.02887
3663.15539 0.02994
3661.86962 0.03075
3660.58385 0.03137
3659.29808 0.03182
3658.01231 0.03199
3656.72654 0.03172
3655.44077 0.03095
3654.15501 0.02997
3652.86924 0.02926
3651.58347 0.02899
3650.29770 0.02881
3649.01193 0.02830
3647.72616 0.02753
3646.44039 0.02696
3645.15462 0.02688
3643.86886 0.02706
3642.58309 0.02705
3641.29732 0.02682
3640.01155 0.02684
3638.72578 0.02748
3637.44001 0.02847
3636.15424 0.02898
3634.86847 0.02847
3633.58270 0.02728
3632.29694 0.02648
3631.01117 0.02681
3629.72540 0.02803
3628.43963 0.02906
3627.15386 0.02911
3625.86809 0.02825
3624.58232 0.02716
3623.29655 0.02641
3622.01079 0.02622
3620.72502 0.02661
3619.43925 0.02751
3618.15348 0.02879
3616.86771 0.03006
3615.58194 0.03076
3614.29617 0.03067
3613.01040 0.03010
3611.72463 0.02968
3610.43887 0.02973
3609.15310 0.03011
3607.86733 0.03054
3606.58156 0.03089
3605.29579 0.03104
3604.01002 0.03085
3602.72425 0.03045
3601.43848 0.03024
3600.15272 0.03058
3598.86695 0.03140
3597.58118 0.03236
3596.29541 0.03303
3595.00964 0.03314
3593.72387 0.03274
3592.43810 0.03232
3591.15233 0.03242
3589.86656 0.03315
3588.58080 0.03412
3587.29503 0.03471
3586.00926 0.03458
3584.72349 0.03384
3583.43772 0.03288
3582.15195 0.03210
3580.86618 0.03180
3579.58041 0.03206
3578.29464 0.03273
3577.00888 0.03347
3575.72311 0.03401
3574.43734 0.03435
3573.15157 0.03463
3571.86580 0.03480
3570.58003 0.03469
3569.29426 0.03431
3568.00849 0.03405
3566.72273 0.03430
3565.43696 0.03498
3564.15119 0.03556
3562.86542 0.03561
3561.57965 0.03520
3560.29388 0.03482
3559.00811 0.03486
3557.72234 0.03529
3556.43657 0.03581
3555.15081 0.03614
3553.86504 0.03621
3552.57927 0.03614
3551.29350 0.03606
3550.00773 0.03599
3548.72196 0.03589
3547.43619 0.03568
3546.15042 0.03532
3544.86466 0.03496
3543.57889 0.03485
3542.29312 0.03502
3541.00735 0.03521
3539.72158 0.03515
3538.43581 0.03495
3537.15004 0.03491
3535.86427 0.03514
3534.57850 0.03541
3533.29274 0.03559
3532.00697 0.03590
3530.72120 0.03673
3529.43543 0.03803
3528.14966 0.03917
3526.86389 0.03950
3525.57812 0.03907
3524.29235 0.03852
3523.00659 0.03836
3521.72082 0.03845
3520.43505 0.03835
3519.14928 0.03789
3517.86351 0.03740
3516.57774 0.03736
3515.29197 0.03788
3514.00620 0.03870
3512.72043 0.03943
3511.43467 0.03982
3510.14890 0.03991
3508.86313 0.03999
3507.57736 0.04024
3506.29159 0.04053
3505.00582 0.04050
3503.72005 0.04004
3502.43428 0.03941
3501.14852 0.03893
3499.86275 0.03873
3498.57698 0.03881
3497.29121 0.03930
3496.00544 0.04024
3494.71967 0.04134
3493.43390 0.04209
3492.14813 0.04219
3490.86236 0.04189
3489.57660 0.04164
3488.29083 0.04166
3487.00506 0.04187
3485.71929 0.04214
3484.43352 0.04240
3483.14775 0.04255
3481.86198 0.04237
3480.57621 0.04180
3479.29045 0.04114
3478.00468 0.04074
3476.71891 0.04066
3475.43314 0.04074
3474.14737 0.04089
3472.86160 0.04127
3471.57583 0.04197
3470.29006 0.04280
3469.00429 0.04335
3467.71853 0.04343
3466.43276 0.04322
3465.14699 0.04298
3463.86122 0.04286
3462.57545 0.04287
3461.28968 0.04294
3460.00391 0.04292
3458.71814 0.04272
3457.43238 0.04237
3456.14661 0.04202
3454.86084 0.04175
3453.57507 0.04155
3452.28930 0.04147
3451.00353 0.04164
3449.71776 0.04218
3448.43199 0.04304
3447.14622 0.04397
3445.86046 0.04462
3444.57469 0.04479
3443.28892 0.04458
3442.00315 0.04431
3440.71738 0.04424
3439.43161 0.04447
3438.14584 0.04489
3436.86007 0.04521
3435.57431 0.04498
3434.28854 0.04399
3433.00277 0.04264
3431.71700 0.04171
3430.43123 0.04173
3429.14546 0.04250
3427.85969 0.04334
3426.57392 0.04373
3425.28815 0.04366
3424.00239 0.04355
3422.71662 0.04377
3421.43085 0.04431
3420.14508 0.04487
3418.85931 0.04516
3417.57354 0.04528
3416.28777 0.04549
3415.00200 0.04590
3413.71624 0.04628
3412.43047 0.04636
3411.14470 0.04611
3409.85893 0.04576
3408.57316 0.04563
3407.28739 0.04589
3406.00162 0.04649
3404.71585 0.04714
3403.43008 0.04767
3402.14432 0.04821
3400.85855 0.04884
3399.57278 0.04885
3398.28701 0.04806
3397.00124 0.04710
3395.71547 0.04628
3394.42970 0.04574
3393.14393 0.04555
3391.85817 0.04576
3390.57240 0.04642
3389.28663 0.04739
3388.00086 0.04834
3386.71509 0.04893
3385.42932 0.04916
3384.14355 0.04919
3382.85778 0.04915
3381.57201 0.04910
3380.28625 0.04909
3379.00048 0.04922
3377.71471 0.04948
3376.42894 0.04969
3375.14317 0.04967
3373.85740 0.04944
3372.57163 0.04923
3371.28586 0.04915
3370.00010 0.04909
3368.71433 0.04886
3367.42856 0.04844
3366.14279 0.04804
3364.85702 0.04784
3363.57125 0.04790
3362.28548 0.04818
3360.99971 0.04860
3359.71394 0.04904
3358.42818 0.04937
3357.14241 0.04956
3355.85664 0.04958
3354.57087 0.04946
3353.28510 0.04924
3351.99933 0.04913
3350.71356 0.04933
3349.42779 0.04980
3348.14202 0.05018
3346.85626 0.05011
3345.57049 0.04968
3344.28472 0.04936
3342.99895 0.04952
3341.71318 0.05001
3340.42741 0.05034
3339.14164 0.05026
3337.85587 0.04993
3336.57011 0.04964
3335.28434 0.04957
3333.99857 0.04969
3332.71280 0.04999
3331.42703 0.05045
3330.14126 0.05088
3328.85549 0.05101
3327.56972 0.05082
3326.28395 0.05059
3324.99819 0.05056
3323.71242 0.05068
3322.42665 0.05071
3321.14088 0.05063
3319.85511 0.05061
3318.56934 0.05079
3317.28357 0.05119
3315.99780 0.05177
3314.71204 0.05244
3313.42627 0.05301
3312.14050 0.05326
3310.85473 0.05319
3309.56896 0.05315
3308.28319 0.05347
3306.99742 0.05397
3305.71165 0.05413
3304.42588 0.05366
3303.14012 0.05292
3301.85435 0.05250
3300.56858 0.05264
3299.28281 0.05301
3297.99704 0.05321
3296.71127 0.05313
3295.42550 0.05301
3294.13973 0.05308
3292.85397 0.05333
3291.56820 0.05355
3290.28243 0.05360
3288.99666 0.05348
3287.71089 0.05331
3286.42512 0.05320
3285.13935 0.05325
3283.85358 0.05347
3282.56781 0.05364
3281.28205 0.05348
3279.99628 0.05288
3278.71051 0.05207
3277.42474 0.05146
3276.13897 0.05136
3274.85320 0.05172
3273.56743 0.05226
3272.28166 0.05272
3270.99590 0.05302
3269.71013 0.05323
3268.42436 0.05346
3267.13859 0.05369
3265.85282 0.05386
3264.56705 0.05395
3263.28128 0.05401
3261.99551 0.05407
3260.70974 0.05404
3259.42398 0.05383
3258.13821 0.05346
3256.85244 0.05303
3255.56667 0.05271
3254.28090 0.05257
3252.99513 0.05258
3251.70936 0.05263
3250.42359 0.05272
3249.13783 0.05288
3247.85206 0.05300
3246.56629 0.05291
3245.28052 0.05251
3243.99475 0.05197
3242.70898 0.05161
3241.42321 0.05165
3240.13744 0.05196
3238.85167 0.05213
3237.56591 0.05187
3236.28014 0.05132
3234.99437 0.05086
3233.70860 0.05067
3232.42283 0.05068
3231.13706 0.05079
3229.85129 0.05102
3228.56552 0.05131
3227.27976 0.05149
3225.99399 0.05140
3224.70822 0.05113
3223.42245 0.05087
3222.13668 0.05075
3220.85091 0.05076
3219.56514 0.05083
3218.27937 0.05093
3216.99360 0.05103
3215.70784 0.05109
3214.42207 0.05102
3213.13630 0.05075
3211.85053 0.05031
3210.56476 0.04985
3209.27899 0.04954
3207.99322 0.04943
3206.70745 0.04953
3205.42169 0.04980
3204.13592 0.05023
3202.85015 0.05080
3201.56438 0.05137
3200.27861 0.05165
3198.99284 0.05149
3197.70707 0.05104
3196.42130 0.05062
3195.13553 0.05041
3193.84977 0.05033
3192.56400 0.05026
3191.27823 0.05025
3189.99246 0.05044
3188.70669 0.05072
3187.42092 0.05080
3186.13515 0.05049
3184.84938 0.04986
3183.56362 0.04930
3182.27785 0.04916
3180.99208 0.04952
3179.70631 0.05006
3178.42054 0.05031
3177.13477 0.05002
3175.84900 0.04936
3174.56323 0.04869
3173.27746 0.04823
3171.99170 0.04799
3170.70593 0.04780
3169.42016 0.04759
3168.13439 0.04740
3166.84862 0.04728
3165.56285 0.04718
3164.27708 0.04704
3162.99131 0.04688
3161.70555 0.04676
3160.41978 0.04667
3159.13401 0.04654
3157.84824 0.04630
3156.56247 0.04598
3155.27670 0.04565
3153.99093 0.04540
3152.70516 0.04535
3151.41939 0.04550
3150.13363 0.04570
3148.84786 0.04575
3147.56209 0.04571
3146.27632 0.04584
3144.99055 0.04631
3143.70478 0.04699
3142.41901 0.04754
3141.13324 0.04773
3139.84748 0.04756
3138.56171 0.04724
3137.27594 0.04694
3135.99017 0.04674
3134.70440 0.04663
3133.41863 0.04663
3132.13286 0.04675
3130.84709 0.04683
3129.56132 0.04663
3128.27556 0.04605
3126.98979 0.04531
3125.70402 0.04480
3124.41825 0.04466
3123.13248 0.04475
3121.84671 0.04486
3120.56094 0.04490
3119.27517 0.04494
3117.98940 0.04510
3116.70364 0.04536
3115.41787 0.04553
3114.13210 0.04546
3112.84633 0.04520
3111.56056 0.04500
3110.27479 0.04501
3108.98902 0.04511
3107.70325 0.04507
3106.41749 0.04485
3105.13172 0.04467
3103.84595 0.04471
3102.56018 0.04494
3101.27441 0.04515
3099.98864 0.04514
3098.70287 0.04484
3097.41710 0.04434
3096.13133 0.04391
3094.84557 0.04384
3093.55980 0.04425
3092.27403 0.04488
3090.98826 0.04533
3089.70249 0.04532
3088.41672 0.04489
3087.13095 0.04432
3085.84518 0.04392
3084.55942 0.04396
3083.27365 0.04445
3081.98788 0.04511
3080.70211 0.04547
3079.41634 0.04522
3078.13057 0.04452
3076.84480 0.04382
3075.55903 0.04349
3074.27326 0.04357
3072.98750 0.04388
3071.70173 0.04428
3070.41596 0.04478
3069.13019 0.04534
3067.84442 0.04573
3066.55865 0.04575
3065.27288 0.04549
3063.98711 0.04525
3062.70135 0.04517
3061.41558 0.04517
3060.12981 0.04512
3058.84404 0.04500
3057.55827 0.04485
3056.27250 0.04468
3054.98673 0.04444
3053.70096 0.04419
3052.41519 0.04403
3051.12943 0.04404
3049.84366 0.04417
3048.55789 0.04422
3047.27212 0.04407
3045.98635 0.04379
3044.70058 0.04360
3043.41481 0.04357
3042.12904 0.04357
3040.84328 0.04342
3039.55751 0.04309
3038.27174 0.04271
3036.98597 0.04248
3035.70020 0.04250
3034.41443 0.04269
3033.12866 0.04288
3031.84289 0.04287
3030.55712 0.04266
3029.27136 0.04241
3027.98559 0.04227
3026.69982 0.04223
3025.41405 0.04214
3024.12828 0.04189
3022.84251 0.04162
3021.55674 0.04155
3020.27097 0.04175
3018.98521 0.04203
3017.69944 0.04215
3016.41367 0.04204
3015.12790 0.04187
3013.84213 0.04171
3012.55636 0.04155
3011.27059 0.04134
3009.98482 0.04115
3008.69905 0.04109
3007.41329 0.04109
3006.12752 0.04095
3004.84175 0.04057
3003.55598 0.04013
3002.27021 0.04004
3000.98444 0.04032
2999.69867 0.04033
2998.41290 0.04060
2997.12714 0.04080
2995.84137 0.04105
2994.55560 0.04145
2993.26983 0.04184
2991.98406 0.04201
2990.69829 0.04194
2989.41252 0.04179
2988.12675 0.04170
2986.84098 0.04163
2985.55522 0.04155
2984.26945 0.04152
2982.98368 0.04162
2981.69791 0.04181
2980.41214 0.04200
2979.12637 0.04216
2977.84060 0.04231
2976.55483 0.04247
2975.26907 0.04263
2973.98330 0.04284
2972.69753 0.04325
2971.41176 0.04399
2970.12599 0.04495
2968.84022 0.04579
2967.55445 0.04618
2966.26868 0.04619
2964.98291 0.04616
2963.69715 0.04639
2962.41138 0.04691
2961.12561 0.04762
2959.83984 0.04838
2958.55407 0.04909
2957.26830 0.04970
2955.98253 0.05025
2954.69676 0.05070
2953.41100 0.05096
2952.12523 0.05094
2950.83946 0.05074
2949.55369 0.05057
2948.26792 0.05054
2946.98215 0.05058
2945.69638 0.05054
2944.41061 0.05030
2943.12484 0.04986
2941.83908 0.04941
2940.55331 0.04925
2939.26754 0.04951
2937.98177 0.05003
2936.69600 0.05044
2935.41023 0.05063
2934.12446 0.05079
2932.83869 0.05119
2931.55293 0.05176
2930.26716 0.05218
2928.98139 0.05234
2927.69562 0.05245
2926.40985 0.05270
2925.12408 0.05299
2923.83831 0.05308
2922.55254 0.05294
2921.26677 0.05273
2919.98101 0.05258
2918.69524 0.05243
2917.40947 0.05219
2916.12370 0.05191
2914.83793 0.05166
2913.55216 0.05144
2912.26639 0.05118
2910.98062 0.05093
2909.69486 0.05078
2908.40909 0.05064
2907.12332 0.05024
2905.83755 0.04953
2904.55178 0.04878
2903.26601 0.04832
2901.98024 0.04824
2900.69447 0.04840
2899.40870 0.04860
2898.12294 0.04869
2896.83717 0.04849
2895.55140 0.04794
2894.26563 0.04720
2892.97986 0.04656
2891.69409 0.04614
2890.40832 0.04589
2889.12255 0.04564
2887.83678 0.04531
2886.55102 0.04490
2885.26525 0.04448
2883.97948 0.04418
2882.69371 0.04408
2881.40794 0.04418
2880.12217 0.04431
2878.83640 0.04433
2877.55063 0.04434
2876.26487 0.04456
2874.97910 0.04508
2873.69333 0.04564
2872.40756 0.04597
2871.12179 0.04600
2869.83602 0.04593
2868.55025 0.04598
2867.26448 0.04610
2865.97871 0.04610
2864.69295 0.04585
2863.40718 0.04546
2862.12141 0.04510
2860.83564 0.04486
2859.54987 0.04470
2858.26410 0.04457
2856.97833 0.04454
2855.69256 0.04470
2854.40680 0.04498
2853.12103 0.04521
2851.83526 0.04521
2850.54949 0.04494
2849.26372 0.04450
2847.97795 0.04403
2846.69218 0.04360
2845.40641 0.04324
2844.12064 0.04293
2842.83488 0.04260
2841.54911 0.04216
2840.26334 0.04153
2838.97757 0.04073
2837.69180 0.03992
2836.40603 0.03926
2835.12026 0.03887
2833.83449 0.03873
2832.54873 0.03877
2831.26296 0.03886
2829.97719 0.03891
2828.69142 0.03883
2827.40565 0.03857
2826.11988 0.03820
2824.83411 0.03785
2823.54834 0.03764
2822.26257 0.03755
2820.97681 0.03750
2819.69104 0.03743
2818.40527 0.03730
2817.11950 0.03709
2815.83373 0.03681
2814.54796 0.03652
2813.26219 0.03633
2811.97642 0.03630
2810.69066 0.03634
2809.40489 0.03626
2808.11912 0.03601
2806.83335 0.03572
2805.54758 0.03549
2804.26181 0.03529
2802.97604 0.03508
2801.69027 0.03495
2800.40450 0.03505
2799.11874 0.03535
2797.83297 0.03560
2796.54720 0.03558
2795.26143 0.03530
2793.97566 0.03497
2792.68989 0.03477
2791.40412 0.03472
2790.11835 0.03482
2788.83259 0.03501
2787.54682 0.03513
2786.26105 0.03506
2784.97528 0.03486
2783.68951 0.03474
2782.40374 0.03478
2781.11797 0.03488
2779.83220 0.03493
2778.54643 0.03494
2777.26067 0.03489
2775.97490 0.03478
2774.68913 0.03457
2773.40336 0.03430
2772.11759 0.03403
2770.83182 0.03380
2769.54605 0.03370
2768.26028 0.03370
2766.97452 0.03372
2765.68875 0.03366
2764.40298 0.03354
2763.11721 0.03346
2761.83144 0.03348
2760.54567 0.03357
2759.25990 0.03362
2757.97413 0.03356
2756.68836 0.03346
2755.40260 0.03342
2754.11683 0.03349
2752.83106 0.03356
2751.54529 0.03352
2750.25952 0.03340
2748.97375 0.03329
2747.68798 0.03322
2746.40221 0.03312
2745.11645 0.03297
2743.83068 0.03285
2742.54491 0.03280
2741.25914 0.03284
2739.97337 0.03292
2738.68760 0.03305
2737.40183 0.03318
2736.11606 0.03328
2734.83029 0.03330
2733.54453 0.03322
2732.25876 0.03311
2730.97299 0.03306
2729.68722 0.03309
2728.40145 0.03309
2727.11568 0.03292
2725.82991 0.03254
2724.54414 0.03203
2723.25838 0.03155
2721.97261 0.03125
2720.68684 0.03121
2719.40107 0.03138
2718.11530 0.03164
2716.82953 0.03188
2715.54376 0.03203
2714.25799 0.03212
2712.97222 0.03219
2711.68646 0.03220
2710.40069 0.03207
2709.11492 0.03180
2707.82915 0.03146
2706.54338 0.03114
2705.25761 0.03092
2703.97184 0.03088
2702.68607 0.03099
2701.40031 0.03112
2700.11454 0.03111
2698.82877 0.03099
2697.54300 0.03090
2696.25723 0.03099
2694.97146 0.03120
2693.68569 0.03134
2692.39992 0.03127
2691.11415 0.03103
2689.82839 0.03083
2688.54262 0.03082
2687.25685 0.03092
2685.97108 0.03094
2684.68531 0.03084
2683.39954 0.03071
2682.11377 0.03067
2680.82800 0.03063
2679.54224 0.03049
2678.25647 0.03023
2676.97070 0.02993
2675.68493 0.02972
2674.39916 0.02966
2673.11339 0.02974
2671.82762 0.02992
2670.54185 0.03013
2669.25608 0.03031
2667.97032 0.03035
2666.68455 0.03016
2665.39878 0.02980
2664.11301 0.02948
2662.82724 0.02944
2661.54147 0.02966
2660.25570 0.02987
2658.96993 0.02990
2657.68417 0.02980
2656.39840 0.02974
2655.11263 0.02978
2653.82686 0.02986
2652.54109 0.02989
2651.25532 0.02975
2649.96955 0.02941
2648.68378 0.02891
2647.39801 0.02840
2646.11225 0.02800
2644.82648 0.02775
2643.54071 0.02761
2642.25494 0.02754
2640.96917 0.02758
2639.68340 0.02771
2638.39763 0.02787
2637.11186 0.02792
2635.82609 0.02777
2634.54033 0.02749
2633.25456 0.02722
2631.96879 0.02702
2630.68302 0.02689
2629.39725 0.02686
2628.11148 0.02699
2626.82571 0.02723
2625.53994 0.02746
2624.25418 0.02757
2622.96841 0.02751
2621.68264 0.02729
2620.39687 0.02700
2619.11110 0.02677
2617.82533 0.02669
2616.53956 0.02675
2615.25379 0.02688
2613.96802 0.02704
2612.68226 0.02717
2611.39649 0.02715
2610.11072 0.02688
2608.82495 0.02647
2607.53918 0.02611
2606.25341 0.02593
2604.96764 0.02592
2603.68187 0.02603
2602.39611 0.02619
2601.11034 0.02631
2599.82457 0.02622
2598.53880 0.02580
2597.25303 0.02509
2595.96726 0.02437
2594.68149 0.02388
2593.39572 0.02372
2592.10995 0.02381
2590.82419 0.02408
2589.53842 0.02448
2588.25265 0.02498
2586.96688 0.02552
2585.68111 0.02599
2584.39534 0.02630
2583.10957 0.02639
2581.82380 0.02624
2580.53804 0.02590
2579.25227 0.02548
2577.96650 0.02514
2576.68073 0.02494
2575.39496 0.02489
2574.10919 0.02497
2572.82342 0.02513
2571.53765 0.02528
2570.25188 0.02532
2568.96612 0.02530
2567.68035 0.02533
2566.39458 0.02542
2565.10881 0.02542
2563.82304 0.02519
2562.53727 0.02479
2561.25150 0.02435
2559.96573 0.02397
2558.67997 0.02362
2557.39420 0.02324
2556.10843 0.02296
2554.82266 0.02299
2553.53689 0.02335
2552.25112 0.02372
2550.96535 0.02377
2549.67958 0.02350
2548.39381 0.02309
2547.10805 0.02264
2545.82228 0.02218
2544.53651 0.02186
2543.25074 0.02188
2541.96497 0.02230
2540.67920 0.02288
2539.39343 0.02332
2538.10766 0.02345
2536.82190 0.02338
2535.53613 0.02335
2534.25036 0.02349
2532.96459 0.02370
2531.67882 0.02382
2530.39305 0.02369
2529.10728 0.02332
2527.82151 0.02288
2526.53574 0.02268
2525.24998 0.02284
2523.96421 0.02327
2522.67844 0.02365
2521.39267 0.02377
2520.10690 0.02355
2518.82113 0.02311
2517.53536 0.02262
2516.24959 0.02225
2514.96383 0.02215
2513.67806 0.02233
2512.39229 0.02272
2511.10652 0.02316
2509.82075 0.02343
2508.53498 0.02327
2507.24921 0.02265
2505.96344 0.02187
2504.67767 0.02137
2503.39191 0.02128
2502.10614 0.02137
2500.82037 0.02138
2499.53460 0.02141
2498.24883 0.02168
2496.96306 0.02223
2495.67729 0.02278
2494.39152 0.02313
2493.10576 0.02331
2491.81999 0.02344
2490.53422 0.02342
2489.24845 0.02314
2487.96268 0.02272
2486.67691 0.02240
2485.39114 0.02220
2484.10537 0.02198
2482.81960 0.02169
2481.53384 0.02148
2480.24807 0.02145
2478.96230 0.02149
2477.67653 0.02143
2476.39076 0.02132
2475.10499 0.02126
2473.81922 0.02126
2472.53345 0.02117
2471.24769 0.02087
2469.96192 0.02046
2468.67615 0.02018
2467.39038 0.02014
2466.10461 0.02032
2464.81884 0.02065
2463.53307 0.02108
2462.24730 0.02160
2460.96153 0.02216
2459.67577 0.02266
2458.39000 0.02294
2457.10423 0.02292
2455.81846 0.02254
2454.53269 0.02191
2453.24692 0.02124
2451.96115 0.02087
2450.67538 0.02107
2449.38962 0.02174
2448.10385 0.02242
2446.81808 0.02268
2445.53231 0.02252
2444.24654 0.02227
2442.96077 0.02222
2441.67500 0.02236
2440.38923 0.02250
2439.10346 0.02247
2437.81770 0.02222
2436.53193 0.02179
2435.24616 0.02126
2433.96039 0.02086
2432.67462 0.02083
2431.38885 0.02119
2430.10308 0.02169
2428.81731 0.02201
2427.53155 0.02206
2426.24578 0.02194
2424.96001 0.02176
2423.67424 0.02151
2422.38847 0.02119
2421.10270 0.02088
2419.81693 0.02068
2418.53116 0.02061
2417.24539 0.02066
2415.95963 0.02083
2414.67386 0.02117
2413.38809 0.02164
2412.10232 0.02208
2410.81655 0.02233
2409.53078 0.02239
2408.24501 0.02232
2406.95924 0.02206
2405.67347 0.02158
2404.38771 0.02105
2403.10194 0.02074
2401.81617 0.02075
2400.53040 0.02097
2399.24463 0.02197
2397.95886 0.02148
2396.67309 0.02105
2395.38732 0.02103
2394.10156 0.02115
2392.81579 0.02135
2391.53002 0.02158
2390.24425 0.02175
2388.95848 0.02179
2387.67271 0.02167
2386.38694 0.02146
2385.10117 0.02127
2383.81540 0.02115
2382.52964 0.02108
2381.24387 0.02105
2379.95810 0.02098
2378.67233 0.02099
2377.38656 0.02100
2376.10079 0.02090
2374.81502 0.02076
2373.52925 0.02104
2372.24349 0.02145
2370.95772 0.02166
2369.67195 0.02185
2368.38618 0.02204
2367.10041 0.02213
2365.81464 0.02212
2364.52887 0.02211
2363.24310 0.02218
2361.95733 0.02231
2360.67157 0.02238
2359.38580 0.02243
2358.10003 0.02257
2356.81426 0.02281
2355.52849 0.02294
2354.24272 0.02273
2352.95695 0.02223
2351.67118 0.02205
2350.38542 0.02197
2349.09965 0.02176
2347.81388 0.02168
2346.52811 0.02180
2345.24234 0.02184
2343.95657 0.02168
2342.67080 0.02125
2341.38503 0.02154
2340.09926 0.02210
2338.81350 0.02235
2337.52773 0.02235
2336.24196 0.02246
2334.95619 0.02213
2333.67042 0.02163
2332.38465 0.02119
2331.09888 0.02167
2329.81311 0.02166
2328.52735 0.02149
2327.24158 0.02162
2325.95581 0.02167
2324.67004 0.02187
2323.38427 0.02184
2322.09850 0.02200
2320.81273 0.02221
2319.52696 0.02215
2318.24119 0.02183
2316.95543 0.02157
2315.66966 0.02127
2314.38389 0.02087
2313.09812 0.02053
2311.81235 0.02016
2310.52658 0.01974
2309.24081 0.01936
2307.95504 0.01910
2306.66928 0.01896
2305.38351 0.01891
2304.09774 0.01890
2302.81197 0.01891
2301.52620 0.01889
2300.24043 0.01875
2298.95466 0.01848
2297.66889 0.01822
2296.38312 0.01814
2295.09736 0.01826
2293.81159 0.01855
2292.52582 0.01891
2291.24005 0.01928
2289.95428 0.01961
2288.66851 0.01979
2287.38274 0.01969
2286.09697 0.01929
2284.81121 0.01876
2283.52544 0.01838
2282.23967 0.01831
2280.95390 0.01854
2279.66813 0.01890
2278.38236 0.01910
2277.09659 0.01891
2275.81082 0.01839
2274.52505 0.01778
2273.23929 0.01737
2271.95352 0.01711
2270.66775 0.01673
2269.38198 0.01609
2268.09621 0.01540
2266.81044 0.01507
2265.52467 0.01524
2264.23890 0.01566
2262.95314 0.01592
2261.66737 0.01574
2260.38160 0.01516
2259.09583 0.01444
2257.81006 0.01385
2256.52429 0.01350
2255.23852 0.01340
2253.95275 0.01354
2252.66698 0.01383
2251.38122 0.01392
2250.09545 0.01402
2248.80968 0.01535
2247.52391 0.01548
2246.23814 0.01546
2244.95237 0.01535
2243.66660 0.01506
2242.38083 0.01464
2241.09507 0.01424
2239.80930 0.01396
2238.52353 0.01381
2237.23776 0.01381
2235.95199 0.01401
2234.66622 0.01440
2233.38045 0.01488
2232.09468 0.01530
2230.80891 0.01553
2229.52315 0.01548
2228.23738 0.01518
2226.95161 0.01474
2225.66584 0.01420
2224.38007 0.01357
2223.09430 0.01295
2221.80853 0.01257
2220.52276 0.01258
2219.23700 0.01291
2217.95123 0.01345
2216.66546 0.01408
2215.37969 0.01464
2214.09392 0.01493
2212.80815 0.01499
2211.52238 0.01496
2210.23661 0.01493
2208.95084 0.01480
2207.66508 0.01444
2206.37931 0.01383
2205.09354 0.01311
2203.80777 0.01243
2202.52200 0.01176
2201.23623 0.01086
2199.95046 0.00977
2198.66469 0.00896
2197.37893 0.00885
2196.09316 0.00930
2194.80739 0.00982
2193.52162 0.01025
2192.23585 0.01073
2190.95008 0.01125
2189.66431 0.01155
2188.37854 0.01142
2187.09277 0.01093
2185.80701 0.01033
2184.52124 0.00999
2183.23547 0.01027
2181.94970 0.01128
2180.66393 0.01247
2179.37816 0.01288
2178.09239 0.01190
2176.80662 0.00984
2175.52085 0.00786
2174.23509 0.00705
2172.94932 0.00760
2171.66355 0.00885
2170.37778 0.00997
2169.09201 0.01059
2167.80624 0.01068
2166.52047 0.01018
2165.23470 0.00889
2163.94894 0.00693
2162.66317 0.00492
2161.37740 0.00352
2160.09163 0.00284
2158.80586 0.00270
2157.52009 0.00306
2156.23432 0.00392
2154.94855 0.00478
2153.66278 0.00500
2152.37702 0.00456
2151.09125 0.00428
2149.80548 0.00505
2148.51971 0.00692
2147.23394 0.00908
2145.94817 0.01072
2144.66240 0.01145
2143.37663 0.01128
2142.09087 0.01032
2140.80510 0.00893
2139.51933 0.00773
2138.23356 0.00726
2136.94779 0.00757
2135.66202 0.00828
2134.37625 0.00900
2133.09048 0.00955
2131.80471 0.00993
2130.51895 0.01023
2129.23318 0.01053
2127.94741 0.01081
2126.66164 0.01105
2125.37587 0.01131
2124.09010 0.01161
2122.80433 0.01186
2121.51856 0.01184
2120.23280 0.01155
2118.94703 0.01125
2117.66126 0.01127
2116.37549 0.01165
2115.08972 0.01208
2113.80395 0.01218
2112.51818 0.01181
2111.23241 0.01124
2109.94664 0.01095
2108.66088 0.01120
2107.37511 0.01183
2106.08934 0.01237
2104.80357 0.01253
2103.51780 0.01232
2102.23203 0.01194
2100.94626 0.01150
2099.66049 0.01069
2098.37473 0.01054
2097.08896 0.01049
2095.80319 0.01037
2094.51742 0.01031
2093.23165 0.01049
2091.94588 0.01089
2090.66011 0.01130
2089.37434 0.01139
2088.08857 0.01116
2086.80281 0.01088
2085.51704 0.01078
2084.23127 0.01083
2082.94550 0.01076
2081.65973 0.01048
2080.37396 0.01012
2079.08819 0.00982
2077.80242 0.00955
2076.51666 0.00919
2075.23089 0.00882
2073.94512 0.00870
2072.65935 0.00894
2071.37358 0.00927
2070.08781 0.00923
2068.80204 0.00860
2067.51627 0.00765
2066.23050 0.00683
2064.94474 0.00635
2063.65897 0.00617
2062.37320 0.00615
2061.08743 0.00628
2059.80166 0.00658
2058.51589 0.00705
2057.23012 0.00751
2055.94435 0.00766
2054.65859 0.00736
2053.37282 0.00685
2052.08705 0.00655
2050.80128 0.00666
2049.51551 0.00697
2048.22974 0.00712
2046.94397 0.00690
2045.65820 0.00635
2044.37243 0.00565
2043.08667 0.00515
2041.80090 0.00522
2040.51513 0.00596
2039.22936 0.00692
2037.94359 0.00734
2036.65782 0.00679
2035.37205 0.00568
2034.08628 0.00495
2032.80052 0.00500
2031.51475 0.00524
2030.22898 0.00494
2028.94321 0.00423
2027.65744 0.00400
2026.37167 0.00475
2025.08590 0.00595
2023.80013 0.00662
2022.51436 0.00633
2021.22860 0.00551
2019.94283 0.00498
2018.65706 0.00525
2017.37129 0.00618
2016.08552 0.00711
2014.79975 0.00746
2013.51398 0.00709
2012.22821 0.00635
2010.94245 0.00572
2009.65668 0.00550
2008.37091 0.00573
2007.08514 0.00625
2005.79937 0.00688
2004.51360 0.00740
2003.22783 0.00769
2001.94206 0.00786
2000.65629 0.00823
1999.37053 0.00890
1998.08476 0.00954
1996.79899 0.00963
1995.51322 0.00902
1994.22745 0.00820
1992.94168 0.00779
1991.65591 0.00802
1990.37014 0.00858
1989.08438 0.00905
1987.79861 0.00929
1986.51284 0.00943
1985.22707 0.00949
1983.94130 0.00932
1982.65553 0.00872
1981.36976 0.00768
1980.08399 0.00636
1978.79822 0.00502
1977.51246 0.00390
1976.22669 0.00326
1974.94092 0.00323
1973.65515 0.00384
1972.36938 0.00501
1971.08361 0.00663
1969.79784 0.00842
1968.51207 0.00980
1967.22631 0.01022
1965.94054 0.00963
1964.65477 0.00863
1963.36900 0.00787
1962.08323 0.00754
1960.79746 0.00747
1959.51169 0.00756
1958.22592 0.00783
1956.94015 0.00817
1955.65439 0.00834
1954.36862 0.00824
1953.08285 0.00808
1951.79708 0.00813
1950.51131 0.00840
1949.22554 0.00872
1947.93977 0.00898
1946.65400 0.00920
1945.36823 0.00950
1944.08247 0.00986
1942.79670 0.01025
1941.51093 0.01066
1940.22516 0.01110
1938.93939 0.01147
1937.65362 0.01156
1936.36785 0.01128
1935.08208 0.01072
1933.79632 0.01015
1932.51055 0.00973
1931.22478 0.00955
1929.93901 0.00963
1928.65324 0.01000
1927.36747 0.01058
1926.08170 0.01114
1924.79593 0.01147
1923.51016 0.01162
1922.22440 0.01177
1920.93863 0.01203
1919.65286 0.01229
1918.36709 0.01237
1917.08132 0.01225
1915.79555 0.01209
1914.50978 0.01209
1913.22401 0.01225
1911.93825 0.01236
1910.65248 0.01221
1909.36671 0.01180
1908.08094 0.01126
1906.79517 0.01075
1905.50940 0.01032
1904.22363 0.01006
1902.93786 0.01004
1901.65209 0.01029
1900.36633 0.01071
1899.08056 0.01119
1897.79479 0.01163
1896.50902 0.01192
1895.22325 0.01201
1893.93748 0.01195
1892.65171 0.01188
1891.36594 0.01189
1890.08018 0.01196
1888.79441 0.01202
1887.50864 0.01200
1886.22287 0.01187
1884.93710 0.01168
1883.65133 0.01151
1882.36556 0.01142
1881.07979 0.01143
1879.79402 0.01149
1878.50826 0.01157
1877.22249 0.01168
1875.93672 0.01181
1874.65095 0.01190
1873.36518 0.01197
1872.07941 0.01203
1870.79364 0.01204
1869.50787 0.01187
1868.22211 0.01152
1866.93634 0.01115
1865.65057 0.01101
1864.36480 0.01113
1863.07903 0.01131
1861.79326 0.01132
1860.50749 0.01112
1859.22172 0.01087
1857.93595 0.01079
1856.65019 0.01093
1855.36442 0.01119
1854.07865 0.01146
1852.79288 0.01167
1851.50711 0.01178
1850.22134 0.01177
1848.93557 0.01163
1847.64980 0.01147
1846.36404 0.01147
1845.07827 0.01166
1843.79250 0.01192
1842.50673 0.01212
1841.22096 0.01225
1839.93519 0.01235
1838.64942 0.01234
1837.36365 0.01219
1836.07788 0.01198
1834.79212 0.01185
1833.50635 0.01186
1832.22058 0.01192
1830.93481 0.01195
1829.64904 0.01190
1828.36327 0.01185
1827.07750 0.01192
1825.79173 0.01210
1824.50597 0.01224
1823.22020 0.01221
1821.93443 0.01203
1820.64866 0.01181
1819.36289 0.01169
1818.07712 0.01170
1816.79135 0.01180
1815.50558 0.01190
1814.21981 0.01195
1812.93405 0.01194
1811.64828 0.01194
1810.36251 0.01199
1809.07674 0.01209
1807.79097 0.01223
1806.50520 0.01240
1805.21943 0.01258
1803.93366 0.01273
1802.64790 0.01277
1801.36213 0.01268
1800.07636 0.01255
1798.79059 0.01245
1797.50482 0.01242
1796.21905 0.01246
1794.93328 0.01253
1793.64751 0.01262
1792.36174 0.01269
1791.07598 0.01272
1789.79021 0.01275
1788.50444 0.01276
1787.21867 0.01271
1785.93290 0.01261
1784.64713 0.01249
1783.36136 0.01244
1782.07559 0.01249
1780.78983 0.01263
1779.50406 0.01275
1778.21829 0.01276
1776.93252 0.01266
1775.64675 0.01250
1774.36098 0.01240
1773.07521 0.01236
1771.78944 0.01235
1770.50367 0.01237
1769.21791 0.01244
1767.93214 0.01249
1766.64637 0.01251
1765.36060 0.01256
1764.07483 0.01274
1762.78906 0.01301
1761.50329 0.01322
1760.21752 0.01327
1758.93176 0.01319
1757.64599 0.01307
1756.36022 0.01297
1755.07445 0.01289
1753.78868 0.01287
1752.50291 0.01292
1751.21714 0.01299
1749.93137 0.01304
1748.64560 0.01308
1747.35984 0.01314
1746.07407 0.01323
1744.78830 0.01335
1743.50253 0.01348
1742.21676 0.01362
1740.93099 0.01375
1739.64522 0.01382
1738.35945 0.01375
1737.07369 0.01361
1735.78792 0.01355
1734.50215 0.01360
1733.21638 0.01369
1731.93061 0.01377
1730.64484 0.01385
1729.35907 0.01396
1728.07330 0.01409
1726.78753 0.01422
1725.50177 0.01435
1724.21600 0.01445
1722.93023 0.01453
1721.64446 0.01465
1720.35869 0.01487
1719.07292 0.01518
1717.78715 0.01554
1716.50138 0.01588
1715.21561 0.01623
1713.92985 0.01661
1712.64408 0.01701
1711.35831 0.01742
1710.07254 0.01788
1708.78677 0.01838
1707.50100 0.01891
1706.21523 0.01942
1704.92946 0.01987
1703.64370 0.02034
1702.35793 0.02094
1701.07216 0.02167
1699.78639 0.02240
1698.50062 0.02318
1697.21485 0.02410
1695.92908 0.02509
1694.64331 0.02599
1693.35754 0.02676
1692.07178 0.02754
1690.78601 0.02833
1689.50024 0.02907
1688.21447 0.02974
1686.92870 0.03046
1685.64293 0.03130
1684.35716 0.03217
1683.07139 0.03299
1681.78563 0.03377
1680.49986 0.03457
1679.21409 0.03536
1677.92832 0.03616
1676.64255 0.03699
1675.35678 0.03781
1674.07101 0.03858
1672.78524 0.03936
1671.49947 0.04024
1670.21371 0.04119
1668.92794 0.04212
1667.64217 0.04295
1666.35640 0.04372
1665.07063 0.04452
1663.78486 0.04539
1662.49909 0.04626
1661.21332 0.04706
1659.92756 0.04777
1658.64179 0.04839
1657.35602 0.04896
1656.07025 0.04960
1654.78448 0.05040
1653.49871 0.05126
1652.21294 0.05194
1650.92717 0.05234
1649.64140 0.05258
1648.35564 0.05280
1647.06987 0.05301
1645.78410 0.05319
1644.49833 0.05334
1643.21256 0.05344
1641.92679 0.05346
1640.64102 0.05336
1639.35525 0.05318
1638.06949 0.05304
1636.78372 0.05296
1635.49795 0.05284
1634.21218 0.05252
1632.92641 0.05201
1631.64064 0.05144
1630.35487 0.05090
1629.06910 0.05043
1627.78333 0.04999
1626.49757 0.04952
1625.21180 0.04900
1623.92603 0.04841
1622.64026 0.04776
1621.35449 0.04707
1620.06872 0.04643
1618.78295 0.04591
1617.49718 0.04553
1616.21142 0.04520
1614.92565 0.04484
1613.63988 0.04447
1612.35411 0.04413
1611.06834 0.04385
1609.78257 0.04366
1608.49680 0.04353
1607.21103 0.04341
1605.92526 0.04327
1604.63950 0.04313
1603.35373 0.04303
1602.06796 0.04301
1600.78219 0.04304
1599.49642 0.04308
1598.21065 0.04312
1596.92488 0.04316
1595.63911 0.04325
1594.35335 0.04337
1593.06758 0.04348
1591.78181 0.04355
1590.49604 0.04361
1589.21027 0.04370
1587.92450 0.04386
1586.63873 0.04406
1585.35296 0.04426
1584.06719 0.04445
1582.78143 0.04465
1581.49566 0.04489
1580.20989 0.04517
1578.92412 0.04552
1577.63835 0.04594
1576.35258 0.04632
1575.06681 0.04661
1573.78104 0.04689
1572.49528 0.04727
1571.20951 0.04777
1569.92374 0.04829
1568.63797 0.04875
1567.35220 0.04917
1566.06643 0.04959
1564.78066 0.04994
1563.49489 0.05020
1562.20912 0.05045
1560.92336 0.05078
1559.63759 0.05118
1558.35182 0.05157
1557.06605 0.05192
1555.78028 0.05225
1554.49451 0.05253
1553.20874 0.05269
1551.92297 0.05276
1550.63721 0.05282
1549.35144 0.05287
1548.06567 0.05288
1546.77990 0.05283
1545.49413 0.05272
1544.20836 0.05256
1542.92259 0.05239
1541.63682 0.05223
1540.35105 0.05206
1539.06529 0.05178
1537.77952 0.05137
1536.49375 0.05095
1535.20798 0.05063
1533.92221 0.05044
1532.63644 0.05032
1531.35067 0.05021
1530.06490 0.05007
1528.77914 0.04992
1527.49337 0.04976
1526.20760 0.04963
1524.92183 0.04956
1523.63606 0.04958
1522.35029 0.04968
1521.06452 0.04980
1519.77875 0.04990
1518.49298 0.05006
1517.20722 0.05028
1515.92145 0.05055
1514.63568 0.05083
1513.34991 0.05115
1512.06414 0.05151
1510.77837 0.05190
1509.49260 0.05232
1508.20683 0.05280
1506.92107 0.05328
1505.63530 0.05367
1504.34953 0.05397
1503.06376 0.05427
1501.77799 0.05458
1500.49222 0.05489
1499.20645 0.05515
1497.92068 0.05535
1496.63491 0.05549
1495.34915 0.05556
1494.06338 0.05563
1492.77761 0.05576
1491.49184 0.05602
1490.20607 0.05637
1488.92030 0.05678
1487.63453 0.05723
1486.34876 0.05768
1485.06299 0.05814
1483.77723 0.05862
1482.49146 0.05916
1481.20569 0.05977
1479.91992 0.06045
1478.63415 0.06119
1477.34838 0.06197
1476.06261 0.06274
1474.77684 0.06350
1473.49108 0.06424
1472.20531 0.06495
1470.91954 0.06558
1469.63377 0.06613
1468.34800 0.06664
1467.06223 0.06713
1465.77646 0.06760
1464.49069 0.06807
1463.20492 0.06854
1461.91916 0.06905
1460.63339 0.06964
1459.34762 0.07031
1458.06185 0.07105
1456.77608 0.07178
1455.49031 0.07243
1454.20454 0.07301
1452.91877 0.07355
1451.63301 0.07402
1450.34724 0.07440
1449.06147 0.07470
1447.77570 0.07490
1446.48993 0.07501
1445.20416 0.07506
1443.91839 0.07507
1442.63262 0.07506
1441.34685 0.07502
1440.06109 0.07493
1438.77532 0.07483
1437.48955 0.07474
1436.20378 0.07468
1434.91801 0.07466
1433.63224 0.07475
1432.34647 0.07498
1431.06070 0.07534
1429.77494 0.07581
1428.48917 0.07635
1427.20340 0.07698
1425.91763 0.07770
1424.63186 0.07850
1423.34609 0.07933
1422.06032 0.08014
1420.77455 0.08093
1419.48878 0.08169
1418.20302 0.08236
1416.91725 0.08294
1415.63148 0.08343
1414.34571 0.08382
1413.05994 0.08410
1411.77417 0.08426
1410.48840 0.08431
1409.20263 0.08421
1407.91687 0.08397
1406.63110 0.08357
1405.34533 0.08305
1404.05956 0.08239
1402.77379 0.08161
1401.48802 0.08074
1400.20225 0.07978
1398.91648 0.07870
1397.63071 0.07753
1396.34495 0.07630
1395.05918 0.07507
1393.77341 0.07385
1392.48764 0.07263
1391.20187 0.07143
1389.91610 0.07026
1388.63033 0.06912
1387.34456 0.06795
1386.05880 0.06676
1384.77303 0.06555
1383.48726 0.06436
1382.20149 0.06318
1380.91572 0.06200
1379.62995 0.06084
1378.34418 0.05964
1377.05841 0.05840
1375.77264 0.05711
1374.48688 0.05580
1373.20111 0.05450
1371.91534 0.05323
1370.62957 0.05199
1369.34380 0.05077
1368.05803 0.04956
1366.77226 0.04838
1365.48649 0.04727
1364.20073 0.04625
1362.91496 0.04532
1361.62919 0.04448
1360.34342 0.04372
1359.05765 0.04305
1357.77188 0.04247
1356.48611 0.04193
1355.20034 0.04138
1353.91457 0.04083
1352.62881 0.04031
1351.34304 0.03988
1350.05727 0.03954
1348.77150 0.03920
1347.48573 0.03883
1346.19996 0.03842
1344.91419 0.03804
1343.62842 0.03773
1342.34266 0.03746
1341.05689 0.03717
1339.77112 0.03683
1338.48535 0.03646
1337.19958 0.03610
1335.91381 0.03575
1334.62804 0.03542
1333.34227 0.03512
1332.05650 0.03485
1330.77074 0.03457
1329.48497 0.03425
1328.19920 0.03384
1326.91343 0.03339
1325.62766 0.03296
1324.34189 0.03260
1323.05612 0.03232
1321.77035 0.03208
1320.48459 0.03183
1319.19882 0.03156
1317.91305 0.03127
1316.62728 0.03100
1315.34151 0.03075
1314.05574 0.03053
1312.76997 0.03032
1311.48420 0.03010
1310.19843 0.02985
1308.91267 0.02955
1307.62690 0.02923
1306.34113 0.02894
1305.05536 0.02867
1303.76959 0.02845
1302.48382 0.02824
1301.19805 0.02805
1299.91228 0.02783
1298.62652 0.02755
1297.34075 0.02723
1296.05498 0.02693
1294.76921 0.02670
1293.48344 0.02657
1292.19767 0.02652
1290.91190 0.02652
1289.62613 0.02652
1288.34036 0.02648
1287.05460 0.02639
1285.76883 0.02628
1284.48306 0.02621
1283.19729 0.02620
1281.91152 0.02621
1280.62575 0.02619
1279.33998 0.02612
1278.05421 0.02601
1276.76845 0.02587
1275.48268 0.02573
1274.19691 0.02562
1272.91114 0.02553
1271.62537 0.02547
1270.33960 0.02542
1269.05383 0.02541
1267.76806 0.02544
1266.48229 0.02546
1265.19653 0.02543
1263.91076 0.02534
1262.62499 0.02523
1261.33922 0.02516
1260.05345 0.02515
1258.76768 0.02517
1257.48191 0.02521
1256.19614 0.02525
1254.91037 0.02529
1253.62461 0.02533
1252.33884 0.02537
1251.05307 0.02540
1249.76730 0.02539
1248.48153 0.02534
1247.19576 0.02527
1245.90999 0.02523
1244.62422 0.02524
1243.33846 0.02530
1242.05269 0.02535
1240.76692 0.02535
1239.48115 0.02530
1238.19538 0.02523
1236.90961 0.02517
1235.62384 0.02511
1234.33807 0.02504
1233.05230 0.02494
1231.76654 0.02481
1230.48077 0.02464
1229.19500 0.02442
1227.90923 0.02418
1226.62346 0.02393
1225.33769 0.02372
1224.05192 0.02354
1222.76615 0.02334
1221.48039 0.02309
1220.19462 0.02279
1218.90885 0.02249
1217.62308 0.02220
1216.33731 0.02194
1215.05154 0.02171
1213.76577 0.02153
1212.48000 0.02140
1211.19423 0.02134
1209.90847 0.02133
1208.62270 0.02133
1207.33693 0.02133
1206.05116 0.02130
1204.76539 0.02124
1203.47962 0.02116
1202.19385 0.02101
1200.90808 0.02086
1199.62232 0.02097
1198.33655 0.02086
1197.05078 0.02070
1195.76501 0.02052
1194.47924 0.02034
1193.19347 0.02019
1191.90770 0.02005
1190.62193 0.01991
1189.33616 0.01976
1188.05040 0.01962
1186.76463 0.01951
1185.47886 0.01943
1184.19309 0.01937
1182.90732 0.01931
1181.62155 0.01926
1180.33578 0.01921
1179.05001 0.01916
1177.76425 0.01913
1176.47848 0.01912
1175.19271 0.01915
1173.90694 0.01921
1172.62117 0.01929
1171.33540 0.01938
1170.04963 0.01945
1168.76386 0.01949
1167.47809 0.01955
1166.19233 0.01962
1164.90656 0.01970
1163.62079 0.01976
1162.33502 0.01977
1161.04925 0.01974
1159.76348 0.01969
1158.47771 0.01966
1157.19194 0.01970
1155.90618 0.01983
1154.62041 0.02002
1153.33464 0.02020
1152.04887 0.02036
1150.76310 0.02048
1149.47733 0.02057
1148.19156 0.02063
1146.90579 0.02071
1145.62002 0.02086
1144.33426 0.02112
1143.04849 0.02150
1141.76272 0.02195
1140.47695 0.02244
1139.19118 0.02299
1137.90541 0.02362
1136.61964 0.02438
1135.33387 0.02529
1134.04811 0.02630
1132.76234 0.02735
1131.47657 0.02844
1130.19080 0.02962
1128.90503 0.03100
1127.61926 0.03263
1126.33349 0.03450
1125.04772 0.03652
1123.76195 0.03861
1122.47619 0.04073
1121.19042 0.04289
1119.90465 0.04509
1118.61888 0.04735
1117.33311 0.04964
1116.04734 0.05196
1114.76157 0.05427
1113.47580 0.05653
1112.19004 0.05870
1110.90427 0.06077
1109.61850 0.06275
1108.33273 0.06467
1107.04696 0.06656
1105.76119 0.06840
1104.47542 0.07019
1103.18965 0.07193
1101.90388 0.07359
1100.61812 0.07509
1099.33235 0.07644
1098.04658 0.07773
1096.76081 0.07900
1095.47504 0.08025
1094.18927 0.08142
1092.90350 0.08247
1091.61773 0.08338
1090.33197 0.08423
1089.04620 0.08511
1087.76043 0.08607
1086.47466 0.08707
1085.18889 0.08804
1083.90312 0.08898
1082.61735 0.08991
1081.33158 0.09090
1080.04581 0.09200
1078.76005 0.09321
1077.47428 0.09456
1076.18851 0.09603
1074.90274 0.09758
1073.61697 0.09912
1072.33120 0.10065
1071.04543 0.10224
1069.75966 0.10396
1068.47390 0.10579
1067.18813 0.10768
1065.90236 0.10956
1064.61659 0.11143
1063.33082 0.11327
1062.04505 0.11511
1060.75928 0.11697
1059.47351 0.11884
1058.18774 0.12067
1056.90198 0.12239
1055.61621 0.12404
1054.33044 0.12569
1053.04467 0.12741
1051.75890 0.12920
1050.47313 0.13102
1049.18736 0.13284
1047.90159 0.13467
1046.61583 0.13651
1045.33006 0.13840
1044.04429 0.14035
1042.75852 0.14235
1041.47275 0.14439
1040.18698 0.14645
1038.90121 0.14856
1037.61544 0.15069
1036.32967 0.15282
1035.04391 0.15490
1033.75814 0.15691
1032.47237 0.15878
1031.18660 0.16048
1029.90083 0.16203
1028.61506 0.16348
1027.32929 0.16481
1026.04352 0.16597
1024.75775 0.16689
1023.47199 0.16758
1022.18622 0.16814
1020.90045 0.16863
1019.61468 0.16904
1018.32891 0.16923
1017.04314 0.16908
1015.75737 0.16860
1014.47160 0.16791
1013.18584 0.16706
1011.90007 0.16605
1010.61430 0.16481
1009.32853 0.16335
1008.04276 0.16166
1006.75699 0.15973
1005.47122 0.15757
1004.18545 0.15519
1002.89968 0.15258
1001.61392 0.14973
1000.32815 0.14667
999.04238 0.14349
997.75661 0.14025
996.47084 0.13696
995.18507 0.13357
993.89930 0.13005
992.61353 0.12637
991.32777 0.12257
990.04200 0.11878
988.75623 0.11510
987.47046 0.11161
986.18469 0.10826
984.89892 0.10504
983.61315 0.10192
982.32738 0.09891
981.04161 0.09598
979.75585 0.09312
978.47008 0.09034
977.18431 0.08773
975.89854 0.08537
974.61277 0.08330
973.32700 0.08155
972.04123 0.08014
970.75546 0.07908
969.46970 0.07840
968.18393 0.07807
966.89816 0.07804
965.61239 0.07824
964.32662 0.07855
963.04085 0.07888
961.75508 0.07911
960.46931 0.07911
959.18354 0.07878
957.89778 0.07801
956.61201 0.07684
955.32624 0.07539
954.04047 0.07385
952.75470 0.07230
951.46893 0.07074
950.18316 0.06913
948.89739 0.06749
947.61163 0.06585
946.32586 0.06428
945.04009 0.06279
943.75432 0.06137
942.46855 0.06001
941.18278 0.05867
939.89701 0.05736
938.61124 0.05614
937.32547 0.05502
936.03971 0.05399
934.75394 0.05304
933.46817 0.05215
932.18240 0.05129
930.89663 0.05044
929.61086 0.04957
928.32509 0.04874
927.03932 0.04800
925.75356 0.04735
924.46779 0.04677
923.18202 0.04621
921.89625 0.04566
920.61048 0.04507
919.32471 0.04441
918.03894 0.04369
916.75317 0.04300
915.46740 0.04246
914.18164 0.04214
912.89587 0.04193
911.61010 0.04168
910.32433 0.04128
909.03856 0.04074
907.75279 0.04017
906.46702 0.03964
905.18125 0.03920
903.89549 0.03882
902.60972 0.03849
901.32395 0.03821
900.03818 0.03795
898.75241 0.03765
897.46664 0.03729
896.18087 0.03687
894.89510 0.03645
893.60933 0.03610
892.32357 0.03587
891.03780 0.03577
889.75203 0.03583
888.46626 0.03608
887.18049 0.03656
885.89472 0.03738
884.60895 0.03865
883.32318 0.04045
882.03742 0.04261
880.75165 0.04479
879.46588 0.04661
878.18011 0.04795
876.89434 0.04897
875.60857 0.04993
874.32280 0.05093
873.03703 0.05181
871.75126 0.05232
870.46550 0.05232
869.17973 0.05177
867.89396 0.05076
866.60819 0.04932
865.32242 0.04758
864.03665 0.04571
862.75088 0.04389
861.46511 0.04224
860.17935 0.04079
858.89358 0.03954
857.60781 0.03851
856.32204 0.03766
855.03627 0.03696
853.75050 0.03635
852.46473 0.03585
851.17896 0.03546
849.89319 0.03512
848.60743 0.03479
847.32166 0.03445
846.03589 0.03409
844.75012 0.03370
843.46435 0.03329
842.17858 0.03295
840.89281 0.03274
839.60704 0.03263
838.32128 0.03247
837.03551 0.03220
835.74974 0.03184
834.46397 0.03152
833.17820 0.03130
831.89243 0.03114
830.60666 0.03098
829.32089 0.03087
828.03512 0.03084
826.74936 0.03092
825.46359 0.03104
824.17782 0.03112
822.89205 0.03117
821.60628 0.03121
820.32051 0.03122
819.03474 0.03118
817.74897 0.03103
816.46321 0.03082
815.17744 0.03062
813.89167 0.03048
812.60590 0.03044
811.32013 0.03045
810.03436 0.03047
808.74859 0.03048
807.46282 0.03047
806.17705 0.03045
804.89129 0.03043
803.60552 0.03042
802.31975 0.03048
801.03398 0.03060
799.74821 0.03073
798.46244 0.03076
797.17667 0.03068
795.89090 0.03057
794.60513 0.03051
793.31937 0.03051
792.03360 0.03053
790.74783 0.03053
789.46206 0.03050
788.17629 0.03050
786.89052 0.03058
785.60475 0.03071
784.31898 0.03081
783.03322 0.03077
781.74745 0.03058
780.46168 0.03038
779.17591 0.03028
777.89014 0.03029
776.60437 0.03032
775.31860 0.03033
774.03283 0.03033
772.74706 0.03037
771.46130 0.03048
770.17553 0.03062
768.88976 0.03075
767.60399 0.03084
766.31822 0.03090
765.03245 0.03097
763.74668 0.03101
762.46091 0.03100
761.17515 0.03091
759.88938 0.03079
758.60361 0.03068
757.31784 0.03063
756.03207 0.03061
754.74630 0.03065
753.46053 0.03073
752.17476 0.03076
750.88899 0.03064
749.60323 0.03039
748.31746 0.03018
747.03169 0.03016
745.74592 0.03028
744.46015 0.03041
743.17438 0.03046
741.88861 0.03039
740.60284 0.03026
739.31708 0.03016
738.03131 0.03010
736.74554 0.03009
735.45977 0.03012
734.17400 0.03022
732.88823 0.03038
731.60246 0.03055
730.31669 0.03066
729.03092 0.03067
727.74516 0.03060
726.45939 0.03050
725.17362 0.03045
723.88785 0.03067
722.60208 0.03067
721.31631 0.03077
720.03054 0.03096
718.74477 0.03110
717.45901 0.03117
716.17324 0.03117
714.88747 0.03110
713.60170 0.03098
712.31593 0.03085
711.03016 0.03074
709.74439 0.03066
708.45862 0.03059
707.17285 0.03054
705.88709 0.03051
704.60132 0.03052
703.31555 0.03059
702.02978 0.03069
700.74401 0.03075
699.45824 0.03075
698.17247 0.03070
696.88670 0.03063
695.60094 0.03061
694.31517 0.03061
693.02940 0.03063
691.74363 0.03065
690.45786 0.03068
689.17209 0.03073
687.88632 0.03079
686.60055 0.03081
685.31478 0.03074
684.02902 0.03055
682.74325 0.03033
681.45748 0.03014
680.17171 0.03003
678.88594 0.02999
677.60017 0.02998
676.31440 0.03002
675.02863 0.03011
673.74287 0.03024
672.45710 0.03040
671.17133 0.03057
669.88556 0.03075
668.59979 0.03091
667.31402 0.03099
666.02825 0.03097
664.74248 0.03084
663.45671 0.03065
662.17095 0.03047
660.88518 0.03035
659.59941 0.03030
658.31364 0.03025
657.02787 0.03015
655.74210 0.02996
654.45633 0.02974
653.17056 0.02954
651.88480 0.02935
650.59903 0.02919
649.31326 0.02904
648.02749 0.02892
646.74172 0.02887
645.45595 0.02885
644.17018 0.02880
642.88441 0.02868
641.59864 0.02851
640.31288 0.02836
639.02711 0.02825
637.74134 0.02817
636.45557 0.02811
635.16980 0.02811
633.88403 0.02823
632.59826 0.02837
631.31249 0.02781
630.02673 0.02603
628.74096 0.02579
627.45519 0.02824
626.16942 0.02956
624.88365 0.03002
623.59788 0.03057
622.31211 0.03150
621.02634 0.03305
619.74057 0.03528
618.45481 0.03767
617.16904 0.03942
615.88327 0.04051
614.59750 0.04193
613.31173 0.04475
612.02596 0.04892
610.74019 0.05339
609.45442 0.05742
608.16866 0.06111
606.88289 0.06476
605.59712 0.06806
604.31135 0.07050
603.02558 0.07177
601.73981 0.07191
600.45404 0.07116
599.16827 0.06988
597.88250 0.06845
596.59674 0.06707
595.31097 0.06572
594.02520 0.06431
592.73943 0.06290
591.45366 0.06169
590.16789 0.06086
588.88212 0.06045
587.59635 0.06038
586.31059 0.06065
585.02482 0.06132
583.73905 0.06244
582.45328 0.06393
581.16751 0.06560
579.88174 0.06725
578.59597 0.06878
577.31020 0.07023
576.02443 0.07166
574.73867 0.07310
573.45290 0.07458
572.16713 0.07612
570.88136 0.07776
569.59559 0.07964
568.30982 0.08188
567.02405 0.08446
565.73828 0.08712
564.45251 0.08952
563.16675 0.09136
561.88098 0.09244
560.59521 0.09259
559.30944 0.09172
558.02367 0.08991
556.73790 0.08739
555.45213 0.08446
554.16636 0.08134
552.88060 0.07814
551.59483 0.07483
550.30906 0.07144
549.02329 0.06807
547.73752 0.06488
546.45175 0.06205
545.16598 0.05972
543.88021 0.05791
542.59444 0.05648
541.30868 0.05522
540.02291 0.05393
538.73714 0.05252
537.45137 0.05106
536.16560 0.04966
534.87983 0.04845
533.59406 0.04747
532.30829 0.04669
531.02253 0.04602
529.73676 0.04534
528.45099 0.04456
527.16522 0.04365
525.87945 0.04269
524.59368 0.04182
523.30791 0.04111
522.02214 0.04054
520.73637 0.04000
519.45061 0.03943
518.16484 0.03882
516.87907 0.03819
515.59330 0.03755
514.30753 0.03691
513.02176 0.03633
511.73599 0.03588
510.45022 0.03559
509.16446 0.03538
507.87869 0.03516
506.59292 0.03489
505.30715 0.03459
504.02138 0.03426
502.73561 0.03388
501.44984 0.03347
500.16407 0.03306
498.87830 0.03269
497.59254 0.03231
496.30677 0.03190
495.02100 0.03147
493.73523 0.03110
492.44946 0.03087
491.16369 0.03079
489.87792 0.03075
488.59215 0.03066
487.30639 0.03048
486.02062 0.03025
484.73485 0.03005
483.44908 0.02994
482.16331 0.02996
480.87754 0.03008
479.59177 0.03025
478.30600 0.03041
477.02023 0.03055
475.73447 0.03069
474.44870 0.03085
473.16293 0.03105
471.87716 0.03121
470.59139 0.03127
469.30562 0.03123
468.01985 0.03111
466.73408 0.03095
465.44832 0.03074
464.16255 0.03043
462.87678 0.03003
461.59101 0.02956
460.30524 0.02912
459.01947 0.02877
457.73370 0.02852
456.44793 0.02829
455.16216 0.02796
453.87640 0.02755
452.59063 0.02717
451.30486 0.02692
450.01909 0.02674
448.73332 0.02651
447.44755 0.02618
446.16178 0.02583
444.87601 0.02555
443.59025 0.02536
442.30448 0.02518
441.01871 0.02499
439.73294 0.02482
438.44717 0.02470
437.16140 0.02464
435.87563 0.02462
434.58986 0.02462
433.30409 0.02461
432.01833 0.02455
430.73256 0.02444
429.44679 0.02430
428.16102 0.02415
426.87525 0.02398
425.58948 0.02380
424.30371 0.02362
423.01794 0.02348
421.73218 0.02342
420.44641 0.02339
419.16064 0.02333
417.87487 0.02318
416.58910 0.02295
415.30333 0.02272
414.01756 0.02254
412.73179 0.02243
411.44602 0.02239
410.16026 0.02235
408.87449 0.02228
407.58872 0.02216
406.30295 0.02206
405.01718 0.02202
403.73141 0.02207
402.44564 0.02216
401.15987 0.02226
399.87411 0.02233
