3997.45528 0.03863
3996.16951 0.03855
3994.88374 0.03878
3993.59798 0.03875
3992.31221 0.03819
3991.02644 0.03744
3989.74067 0.03716
3988.45490 0.03774
3987.16913 0.03896
3985.88336 0.04016
3984.59759 0.04073
3983.31183 0.04052
3982.02606 0.03991
3980.74029 0.03934
3979.45452 0.03900
3978.16875 0.03859
3976.88298 0.03778
3975.59721 0.03664
3974.31144 0.03567
3973.02567 0.03532
3971.73991 0.03555
3970.45414 0.03594
3969.16837 0.03611
3967.88260 0.03601
3966.59683 0.03592
3965.31106 0.03614
3964.02529 0.03657
3962.73952 0.03678
3961.45376 0.03651
3960.16799 0.03617
3958.88222 0.03640
3957.59645 0.03738
3956.31068 0.03848
3955.02491 0.03897
3953.73914 0.03872
3952.45337 0.03812
3951.16760 0.03750
3949.88184 0.03689
3948.59607 0.03632
3947.31030 0.03604
3946.02453 0.03634
3944.73876 0.03712
3943.45299 0.03795
3942.16722 0.03833
3940.88145 0.03795
3939.59569 0.03689
3938.30992 0.03567
3937.02415 0.03487
3935.73838 0.03472
3934.45261 0.03498
3933.16684 0.03530
3931.88107 0.03557
3930.59530 0.03585
3929.30953 0.03622
3928.02377 0.03665
3926.73800 0.03695
3925.45223 0.03695
3924.16646 0.03654
3922.88069 0.03582
3921.59492 0.03515
3920.30915 0.03514
3919.02338 0.03607
3917.73762 0.03753
3916.45185 0.03872
3915.16608 0.03918
3913.88031 0.03920
3912.59454 0.03940
3911.30877 0.04007
3910.02300 0.04097
3908.73723 0.04168
3907.45146 0.04203
3906.16570 0.04212
3904.87993 0.04204
3903.59416 0.04162
3902.30839 0.04055
3901.02262 0.03888
3899.73685 0.03727
3898.45108 0.03645
3897.16531 0.03641
3895.87955 0.03649
3894.59378 0.03620
3893.30801 0.03568
3892.02224 0.03537
3890.73647 0.03537
3889.45070 0.03534
3888.16493 0.03498
3886.87916 0.03453
3885.59339 0.03444
3884.30763 0.03472
3883.02186 0.03503
3881.73609 0.03538
3880.45032 0.03621
3879.16455 0.03763
3877.87878 0.03909
3876.59301 0.03995
3875.30724 0.04002
3874.02148 0.03940
3872.73571 0.03817
3871.44994 0.03649
3870.16417 0.03499
3868.87840 0.03426
3867.59263 0.03430
3866.30686 0.03473
3865.02109 0.03524
3863.73532 0.03561
3862.44956 0.03563
3861.16379 0.03535
3859.87802 0.03506
3858.59225 0.03501
3857.30648 0.03508
3856.02071 0.03502
3854.73494 0.03488
3853.44917 0.03520
3852.16341 0.03624
3850.87764 0.03753
3849.59187 0.03828
3848.30610 0.03811
3847.02033 0.03722
3845.73456 0.03599
3844.44879 0.03475
3843.16302 0.03379
3841.87725 0.03345
3840.59149 0.03395
3839.30572 0.03502
3838.01995 0.03605
3836.73418 0.03650
3835.44841 0.03636
3834.16264 0.03600
3832.87687 0.03575
3831.59110 0.03554
3830.30534 0.03506
3829.01957 0.03419
3827.73380 0.03322
3826.44803 0.03270
3825.16226 0.03295
3823.87649 0.03373
3822.59072 0.03460
3821.30495 0.03547
3820.01918 0.03641
3818.73342 0.03707
3817.44765 0.03692
3816.16188 0.03590
3814.87611 0.03447
3813.59034 0.03306
3812.30457 0.03204
3811.01880 0.03175
3809.73303 0.03222
3808.44726 0.03307
3807.16150 0.03388
3805.87573 0.03433
3804.58996 0.03423
3803.30419 0.03365
3802.01842 0.03294
3800.73265 0.03242
3799.44688 0.03208
3798.16111 0.03187
3796.87535 0.03201
3795.58958 0.03257
3794.30381 0.03323
3793.01804 0.03368
3791.73227 0.03403
3790.44650 0.03456
3789.16073 0.03537
3787.87496 0.03623
3786.58919 0.03686
3785.30343 0.03699
3784.01766 0.03652
3782.73189 0.03561
3781.44612 0.03465
3780.16035 0.03401
3778.87458 0.03367
3777.58881 0.03330
3776.30304 0.03267
3775.01728 0.03211
3773.73151 0.03214
3772.44574 0.03290
3771.15997 0.03389
3769.87420 0.03437
3768.58843 0.03395
3767.30266 0.03298
3766.01689 0.03249
3764.73112 0.03322
3763.44536 0.03475
3762.15959 0.03574
3760.87382 0.03517
3759.58805 0.03330
3758.30228 0.03136
3757.01651 0.03057
3755.73074 0.03126
3754.44497 0.03282
3753.15921 0.03427
3751.87344 0.03491
3750.58767 0.03474
3749.30190 0.03446
3748.01613 0.03464
3746.73036 0.03495
3745.44459 0.03476
3744.15882 0.03408
3742.87305 0.03338
3741.58729 0.03297
3740.30152 0.03300
3739.01575 0.03340
3737.72998 0.03377
3736.44421 0.03367
3735.15844 0.03291
3733.87267 0.03160
3732.58690 0.03028
3731.30114 0.02967
3730.01537 0.03004
3728.72960 0.03099
3727.44383 0.03202
3726.15806 0.03293
3724.87229 0.03360
3723.58652 0.03383
3722.30075 0.03346
3721.01498 0.03268
3719.72922 0.03199
3718.44345 0.03186
3717.15768 0.03234
3715.87191 0.03296
3714.58614 0.03308
3713.30037 0.03251
3712.01460 0.03177
3710.72883 0.03172
3709.44307 0.03273
3708.15730 0.03434
3706.87153 0.03566
3705.58576 0.03617
3704.29999 0.03609
3703.01422 0.03601
3701.72845 0.03628
3700.44268 0.03665
3699.15691 0.03650
3697.87115 0.03560
3696.58538 0.03434
3695.29961 0.03331
3694.01384 0.03281
3692.72807 0.03275
3691.44230 0.03277
3690.15653 0.03250
3688.87076 0.03195
3687.58500 0.03154
3686.29923 0.03154
3685.01346 0.03181
3683.72769 0.03201
3682.44192 0.03195
3681.15615 0.03190
3679.87038 0.03230
3678.58461 0.03312
3677.29884 0.03373
3676.01308 0.03373
3674.72731 0.03340
3673.44154 0.03310
3672.15577 0.03286
3670.87000 0.03266
3669.58423 0.03264
3668.29846 0.03293
3667.01269 0.03350
3665.72693 0.03413
3664.44116 0.03443
3663.15539 0.03417
3661.86962 0.03364
3660.58385 0.03335
3659.29808 0.03358
3658.01231 0.03415
3656.72654 0.03479
3655.44077 0.03534
3654.15501 0.03574
3652.86924 0.03587
3651.58347 0.03569
3650.29770 0.03526
3649.01193 0.03477
3647.72616 0.03438
3646.44039 0.03421
3645.15462 0.03430
3643.86886 0.03464
3642.58309 0.03511
3641.29732 0.03547
3640.01155 0.03559
3638.72578 0.03560
3637.44001 0.03573
3636.15424 0.03593
3634.86847 0.03603
3633.58270 0.03603
3632.29694 0.03620
3631.01117 0.03665
3629.72540 0.03710
3628.43963 0.03708
3627.15386 0.03625
3625.86809 0.03488
3624.58232 0.03374
3623.29655 0.03333
3622.01079 0.03340
3620.72502 0.03346
3619.43925 0.03338
3618.15348 0.03344
3616.86771 0.03381
3615.58194 0.03440
3614.29617 0.03508
3613.01040 0.03581
3611.72463 0.03658
3610.43887 0.03735
3609.15310 0.03803
3607.86733 0.03857
3606.58156 0.03888
3605.29579 0.03884
3604.01002 0.03840
3602.72425 0.03770
3601.43848 0.03713
3600.15272 0.03702
3598.86695 0.03731
3597.58118 0.03764
3596.29541 0.03768
3595.00964 0.03745
3593.72387 0.03721
3592.43810 0.03727
3591.15233 0.03787
3589.86656 0.03894
3588.58080 0.04005
3587.29503 0.04057
3586.00926 0.04003
3584.72349 0.03847
3583.43772 0.03649
3582.15195 0.03485
3580.86618 0.03409
3579.58041 0.03438
3578.29464 0.03545
3577.00888 0.03673
3575.72311 0.03770
3574.43734 0.03815
3573.15157 0.03824
3571.86580 0.03822
3570.58003 0.03819
3569.29426 0.03812
3568.00849 0.03815
3566.72273 0.03854
3565.43696 0.03927
3564.15119 0.03981
3562.86542 0.03959
3561.57965 0.03855
3560.29388 0.03725
3559.00811 0.03647
3557.72234 0.03672
3556.43657 0.03783
3555.15081 0.03917
3553.86504 0.04006
3552.57927 0.04019
3551.29350 0.03975
3550.00773 0.03921
3548.72196 0.03888
3547.43619 0.03885
3546.15042 0.03913
3544.86466 0.03974
3543.57889 0.04063
3542.29312 0.04144
3541.00735 0.04164
3539.72158 0.04106
3538.43581 0.04013
3537.15004 0.03954
3535.86427 0.03960
3534.57850 0.04004
3533.29274 0.04031
3532.00697 0.04018
3530.72120 0.03992
3529.43543 0.03999
3528.14966 0.04053
3526.86389 0.04118
3525.57812 0.04146
3524.29235 0.04128
3523.00659 0.04098
3521.72082 0.04086
3520.43505 0.04085
3519.14928 0.04082
3517.86351 0.04082
3516.57774 0.04102
3515.29197 0.04143
3514.00620 0.04184
3512.72043 0.04208
3511.43467 0.04212
3510.14890 0.04208
3508.86313 0.04216
3507.57736 0.04247
3506.29159 0.04287
3505.00582 0.04297
3503.72005 0.04248
3502.43428 0.04146
3501.14852 0.04043
3499.86275 0.04009
3498.57698 0.04073
3497.29121 0.04191
3496.00544 0.04285
3494.71967 0.04317
3493.43390 0.04313
3492.14813 0.04318
3490.86236 0.04351
3489.57660 0.04397
3488.29083 0.04440
3487.00506 0.04472
3485.71929 0.04499
3484.43352 0.04523
3483.14775 0.04534
3481.86198 0.04518
3480.57621 0.04468
3479.29045 0.04403
3478.00468 0.04350
3476.71891 0.04328
3475.43314 0.04330
3474.14737 0.04346
3472.86160 0.04373
3471.57583 0.04411
3470.29006 0.04442
3469.00429 0.04439
3467.71853 0.04401
3466.43276 0.04356
3465.14699 0.04334
3463.86122 0.04338
3462.57545 0.04354
3461.28968 0.04366
3460.00391 0.04365
3458.71814 0.04350
3457.43238 0.04325
3456.14661 0.04296
3454.86084 0.04261
3453.57507 0.04219
3452.28930 0.04186
3451.00353 0.04186
3449.71776 0.04229
3448.43199 0.04301
3447.14622 0.04370
3445.86046 0.04413
3444.57469 0.04436
3443.28892 0.04460
3442.00315 0.04497
3440.71738 0.04534
3439.43161 0.04552
3438.14584 0.04549
3436.86007 0.04539
3435.57431 0.04524
3434.28854 0.04490
3433.00277 0.04439
3431.71700 0.04402
3430.43123 0.04416
3429.14546 0.04478
3427.85969 0.04546
3426.57392 0.04578
3425.28815 0.04576
3424.00239 0.04564
3422.71662 0.04564
3421.43085 0.04578
3420.14508 0.04592
3418.85931 0.04585
3417.57354 0.04552
3416.28777 0.04514
3415.00200 0.04497
3413.71624 0.04498
3412.43047 0.04486
3411.14470 0.04443
3409.85893 0.04387
3408.57316 0.04355
3407.28739 0.04372
3406.00162 0.04434
3404.71585 0.04513
3403.43008 0.04575
3402.14432 0.04614
3400.85855 0.04639
3399.57278 0.04622
3398.28701 0.04591
3397.00124 0.04620
3395.71547 0.04684
3394.42970 0.04725
3393.14393 0.04722
3391.85817 0.04692
3390.57240 0.04672
3389.28663 0.04678
3388.00086 0.04702
3386.71509 0.04727
3385.42932 0.04745
3384.14355 0.04766
3382.85778 0.04793
3381.57201 0.04806
3380.28625 0.04780
3379.00048 0.04714
3377.71471 0.04639
3376.42894 0.04592
3375.14317 0.04598
3373.85740 0.04654
3372.57163 0.04735
3371.28586 0.04800
3370.00010 0.04805
3368.71433 0.04743
3367.42856 0.04645
3366.14279 0.04561
3364.85702 0.04519
3363.57125 0.04510
3362.28548 0.04512
3360.99971 0.04514
3359.71394 0.04524
3358.42818 0.04553
3357.14241 0.04599
3355.85664 0.04644
3354.57087 0.04659
3353.28510 0.04635
3351.99933 0.04603
3350.71356 0.04605
3349.42779 0.04645
3348.14202 0.04682
3346.85626 0.04677
3345.57049 0.04652
3344.28472 0.04664
3342.99895 0.04741
3341.71318 0.04844
3340.42741 0.04909
3339.14164 0.04907
3337.85587 0.04864
3336.57011 0.04828
3335.28434 0.04827
3333.99857 0.04858
3332.71280 0.04893
3331.42703 0.04903
3330.14126 0.04872
3328.85549 0.04807
3327.56972 0.04733
3326.28395 0.04677
3324.99819 0.04655
3323.71242 0.04666
3322.42665 0.04699
3321.14088 0.04735
3319.85511 0.04756
3318.56934 0.04746
3317.28357 0.04707
3315.99780 0.04667
3314.71204 0.04666
3313.42627 0.04708
3312.14050 0.04757
3310.85473 0.04776
3309.56896 0.04775
3308.28319 0.04791
3306.99742 0.04837
3305.71165 0.04880
3304.42588 0.04886
3303.14012 0.04859
3301.85435 0.04834
3300.56858 0.04835
3299.28281 0.04852
3297.99704 0.04855
3296.71127 0.04828
3295.42550 0.04793
3294.13973 0.04795
3292.85397 0.04854
3291.56820 0.04940
3290.28243 0.04992
3288.99666 0.04974
3287.71089 0.04896
3286.42512 0.04803
3285.13935 0.04748
3283.85358 0.04759
3282.56781 0.04823
3281.28205 0.04888
3279.99628 0.04910
3278.71051 0.04880
3277.42474 0.04826
3276.13897 0.04779
3274.85320 0.04755
3273.56743 0.04758
3272.28166 0.04785
3270.99590 0.04830
3269.71013 0.04878
3268.42436 0.04913
3267.13859 0.04930
3265.85282 0.04932
3264.56705 0.04925
3263.28128 0.04916
3261.99551 0.04916
3260.70974 0.04924
3259.42398 0.04926
3258.13821 0.04903
3256.85244 0.04854
3255.56667 0.04806
3254.28090 0.04782
3252.99513 0.04784
3251.70936 0.04798
3250.42359 0.04811
3249.13783 0.04819
3247.85206 0.04820
3246.56629 0.04801
3245.28052 0.04763
3243.99475 0.04723
3242.70898 0.04699
3241.42321 0.04701
3240.13744 0.04724
3238.85167 0.04755
3237.56591 0.04774
3236.28014 0.04767
3234.99437 0.04737
3233.70860 0.04703
3232.42283 0.04680
3231.13706 0.04674
3229.85129 0.04675
3228.56552 0.04670
3227.27976 0.04650
3225.99399 0.04621
3224.70822 0.04605
3223.42245 0.04613
3222.13668 0.04634
3220.85091 0.04641
3219.56514 0.04625
3218.27937 0.04602
3216.99360 0.04592
3215.70784 0.04600
3214.42207 0.04618
3213.13630 0.04639
3211.85053 0.04664
3210.56476 0.04685
3209.27899 0.04693
3207.99322 0.04677
3206.70745 0.04644
3205.42169 0.04614
3204.13592 0.04612
3202.85015 0.04644
3201.56438 0.04696
3200.27861 0.04741
3198.99284 0.04761
3197.70707 0.04762
3196.42130 0.04759
3195.13553 0.04750
3193.84977 0.04728
3192.56400 0.04698
3191.27823 0.04686
3189.99246 0.04712
3188.70669 0.04760
3187.42092 0.04793
3186.13515 0.04786
3184.84938 0.04742
3183.56362 0.04689
3182.27785 0.04657
3180.99208 0.04657
3179.70631 0.04674
3178.42054 0.04677
3177.13477 0.04648
3175.84900 0.04597
3174.56323 0.04549
3173.27746 0.04525
3171.99170 0.04519
3170.70593 0.04517
3169.42016 0.04509
3168.13439 0.04495
3166.84862 0.04477
3165.56285 0.04465
3164.27708 0.04480
3162.99131 0.04527
3161.70555 0.04580
3160.41978 0.04595
3159.13401 0.04556
3157.84824 0.04488
3156.56247 0.04422
3155.27670 0.04372
3153.99093 0.04338
3152.70516 0.04321
3151.41939 0.04320
3150.13363 0.04328
3148.84786 0.04344
3147.56209 0.04374
3146.27632 0.04423
3144.99055 0.04483
3143.70478 0.04533
3142.41901 0.04557
3141.13324 0.04551
3139.84748 0.04531
3138.56171 0.04519
3137.27594 0.04535
3135.99017 0.04576
3134.70440 0.04618
3133.41863 0.04632
3132.13286 0.04605
3130.84709 0.04550
3129.56132 0.04482
3128.27556 0.04422
3126.98979 0.04389
3125.70402 0.04391
3124.41825 0.04418
3123.13248 0.04448
3121.84671 0.04469
3120.56094 0.04483
3119.27517 0.04494
3117.98940 0.04503
3116.70364 0.04512
3115.41787 0.04516
3114.13210 0.04508
3112.84633 0.04485
3111.56056 0.04450
3110.27479 0.04412
3108.98902 0.04374
3107.70325 0.04342
3106.41749 0.04320
3105.13172 0.04312
3103.84595 0.04315
3102.56018 0.04321
3101.27441 0.04320
3099.98864 0.04307
3098.70287 0.04288
3097.41710 0.04273
3096.13133 0.04274
3094.84557 0.04289
3093.55980 0.04313
3092.27403 0.04337
3090.98826 0.04351
3089.70249 0.04347
3088.41672 0.04328
3087.13095 0.04311
3085.84518 0.04312
3084.55942 0.04333
3083.27365 0.04352
3081.98788 0.04344
3080.70211 0.04307
3079.41634 0.04263
3078.13057 0.04240
3076.84480 0.04249
3075.55903 0.04282
3074.27326 0.04319
3072.98750 0.04338
3071.70173 0.04338
3070.41596 0.04331
3069.13019 0.04323
3067.84442 0.04307
3066.55865 0.04283
3065.27288 0.04272
3063.98711 0.04290
3062.70135 0.04320
3061.41558 0.04327
3060.12981 0.04298
3058.84404 0.04262
3057.55827 0.04245
3056.27250 0.04247
3054.98673 0.04245
3053.70096 0.04224
3052.41519 0.04187
3051.12943 0.04148
3049.84366 0.04118
3048.55789 0.04098
3047.27212 0.04087
3045.98635 0.04079
3044.70058 0.04074
3043.41481 0.04068
3042.12904 0.04062
3040.84328 0.04065
3039.55751 0.04084
3038.27174 0.04112
3036.98597 0.04132
3035.70020 0.04138
3034.41443 0.04138
3033.12866 0.04143
3031.84289 0.04150
3030.55712 0.04150
3029.27136 0.04138
3027.98559 0.04116
3026.69982 0.04082
3025.41405 0.04038
3024.12828 0.03996
3022.84251 0.03978
3021.55674 0.03988
3020.27097 0.04013
3018.98521 0.04035
3017.69944 0.04048
3016.41367 0.04057
3015.12790 0.04065
3013.84213 0.04068
3012.55636 0.04061
3011.27059 0.04039
3009.98482 0.04004
3008.69905 0.03971
3007.41329 0.03953
3006.12752 0.03949
3004.84175 0.03950
3003.55598 0.03952
3002.27021 0.03973
3000.98444 0.04007
2999.69867 0.03994
2998.41290 0.04015
2997.12714 0.04034
2995.84137 0.04051
2994.55560 0.04059
2993.26983 0.04054
2991.98406 0.04042
2990.69829 0.04037
2989.41252 0.04046
2988.12675 0.04058
2986.84098 0.04057
2985.55522 0.04049
2984.26945 0.04057
2982.98368 0.04095
2981.69791 0.04146
2980.41214 0.04183
2979.12637 0.04192
2977.84060 0.04171
2976.55483 0.04135
2975.26907 0.04098
2973.98330 0.04083
2972.69753 0.04105
2971.41176 0.04166
2970.12599 0.04247
2968.84022 0.04324
2967.55445 0.04387
2966.26868 0.04445
2964.98291 0.04505
2963.69715 0.04559
2962.41138 0.04599
2961.12561 0.04627
2959.83984 0.04655
2958.55407 0.04690
2957.26830 0.04733
2955.98253 0.04779
2954.69676 0.04820
2953.41100 0.04851
2952.12523 0.04874
2950.83946 0.04898
2949.55369 0.04924
2948.26792 0.04932
2946.98215 0.04899
2945.69638 0.04827
2944.41061 0.04748
2943.12484 0.04704
2941.83908 0.04713
2940.55331 0.04763
2939.26754 0.04821
2937.98177 0.04857
2936.69600 0.04868
2935.41023 0.04872
2934.12446 0.04896
2932.83869 0.04956
2931.55293 0.05038
2930.26716 0.05108
2928.98139 0.05147
2927.69562 0.05164
2926.40985 0.05181
2925.12408 0.05198
2923.83831 0.05194
2922.55254 0.05157
2921.26677 0.05108
2919.98101 0.05070
2918.69524 0.05050
2917.40947 0.05036
2916.12370 0.05015
2914.83793 0.04981
2913.55216 0.04937
2912.26639 0.04894
2910.98062 0.04873
2909.69486 0.04878
2908.40909 0.04886
2907.12332 0.04864
2905.83755 0.04809
2904.55178 0.04750
2903.26601 0.04720
2901.98024 0.04721
2900.69447 0.04730
2899.40870 0.04717
2898.12294 0.04669
2896.83717 0.04601
2895.55140 0.04539
2894.26563 0.04502
2892.97986 0.04489
2891.69409 0.04482
2890.40832 0.04463
2889.12255 0.04424
2887.83678 0.04369
2886.55102 0.04310
2885.26525 0.04262
2883.97948 0.04233
2882.69371 0.04232
2881.40794 0.04256
2880.12217 0.04285
2878.83640 0.04295
2877.55063 0.04289
2876.26487 0.04295
2874.97910 0.04332
2873.69333 0.04384
2872.40756 0.04420
2871.12179 0.04428
2869.83602 0.04426
2868.55025 0.04428
2867.26448 0.04429
2865.97871 0.04416
2864.69295 0.04394
2863.40718 0.04379
2862.12141 0.04382
2860.83564 0.04397
2859.54987 0.04411
2858.26410 0.04413
2856.97833 0.04398
2855.69256 0.04373
2854.40680 0.04356
2853.12103 0.04357
2851.83526 0.04366
2850.54949 0.04362
2849.26372 0.04331
2847.97795 0.04281
2846.69218 0.04233
2845.40641 0.04206
2844.12064 0.04198
2842.83488 0.04192
2841.54911 0.04158
2840.26334 0.04087
2838.97757 0.03998
2837.69180 0.03922
2836.40603 0.03877
2835.12026 0.03855
2833.83449 0.03841
2832.54873 0.03824
2831.26296 0.03804
2829.97719 0.03779
2828.69142 0.03749
2827.40565 0.03718
2826.11988 0.03694
2824.83411 0.03683
2823.54834 0.03679
2822.26257 0.03674
2820.97681 0.03666
2819.69104 0.03659
2818.40527 0.03654
2817.11950 0.03646
2815.83373 0.03636
2814.54796 0.03627
2813.26219 0.03620
2811.97642 0.03615
2810.69066 0.03604
2809.40489 0.03583
2808.11912 0.03560
2806.83335 0.03543
2805.54758 0.03533
2804.26181 0.03522
2802.97604 0.03507
2801.69027 0.03497
2800.40450 0.03503
2799.11874 0.03522
2797.83297 0.03542
2796.54720 0.03551
2795.26143 0.03544
2793.97566 0.03520
2792.68989 0.03480
2791.40412 0.03441
2790.11835 0.03425
2788.83259 0.03439
2787.54682 0.03465
2786.26105 0.03475
2784.97528 0.03460
2783.68951 0.03432
2782.40374 0.03410
2781.11797 0.03400
2779.83220 0.03399
2778.54643 0.03401
2777.26067 0.03406
2775.97490 0.03411
2774.68913 0.03411
2773.40336 0.03401
2772.11759 0.03384
2770.83182 0.03369
2769.54605 0.03368
2768.26028 0.03381
2766.97452 0.03398
2765.68875 0.03408
2764.40298 0.03407
2763.11721 0.03395
2761.83144 0.03377
2760.54567 0.03355
2759.25990 0.03335
2757.97413 0.03321
2756.68836 0.03314
2755.40260 0.03313
2754.11683 0.03318
2752.83106 0.03324
2751.54529 0.03325
2750.25952 0.03318
2748.97375 0.03309
2747.68798 0.03303
2746.40221 0.03299
2745.11645 0.03291
2743.83068 0.03280
2742.54491 0.03269
2741.25914 0.03261
2739.97337 0.03260
2738.68760 0.03269
2737.40183 0.03285
2736.11606 0.03299
2734.83029 0.03297
2733.54453 0.03280
2732.25876 0.03266
2730.97299 0.03269
2729.68722 0.03280
2728.40145 0.03279
2727.11568 0.03259
2725.82991 0.03231
2724.54414 0.03205
2723.25838 0.03188
2721.97261 0.03184
2720.68684 0.03194
2719.40107 0.03211
2718.11530 0.03228
2716.82953 0.03241
2715.54376 0.03251
2714.25799 0.03258
2712.97222 0.03260
2711.68646 0.03252
2710.40069 0.03234
2709.11492 0.03209
2707.82915 0.03185
2706.54338 0.03165
2705.25761 0.03148
2703.97184 0.03136
2702.68607 0.03130
2701.40031 0.03130
2700.11454 0.03130
2698.82877 0.03127
2697.54300 0.03125
2696.25723 0.03133
2694.97146 0.03154
2693.68569 0.03178
2692.39992 0.03188
2691.11415 0.03174
2689.82839 0.03147
2688.54262 0.03127
2687.25685 0.03124
2685.97108 0.03129
2684.68531 0.03128
2683.39954 0.03118
2682.11377 0.03104
2680.82800 0.03090
2679.54224 0.03077
2678.25647 0.03064
2676.97070 0.03051
2675.68493 0.03037
2674.39916 0.03030
2673.11339 0.03038
2671.82762 0.03059
2670.54185 0.03082
2669.25608 0.03096
2667.97032 0.03098
2666.68455 0.03085
2665.39878 0.03061
2664.11301 0.03039
2662.82724 0.03040
2661.54147 0.03070
2660.25570 0.03117
2658.96993 0.03158
2657.68417 0.03184
2656.39840 0.03196
2655.11263 0.03199
2653.82686 0.03199
2652.54109 0.03195
2651.25532 0.03182
2649.96955 0.03151
2648.68378 0.03101
2647.39801 0.03050
2646.11225 0.03016
2644.82648 0.03007
2643.54071 0.03018
2642.25494 0.03037
2640.96917 0.03051
2639.68340 0.03051
2638.39763 0.03039
2637.11186 0.03024
2635.82609 0.03002
2634.54033 0.02966
2633.25456 0.02921
2631.96879 0.02887
2630.68302 0.02880
2629.39725 0.02902
2628.11148 0.02939
2626.82571 0.02980
2625.53994 0.03011
2624.25418 0.03017
2622.96841 0.02990
2621.68264 0.02937
2620.39687 0.02881
2619.11110 0.02841
2617.82533 0.02826
2616.53956 0.02830
2615.25379 0.02848
2613.96802 0.02871
2612.68226 0.02882
2611.39649 0.02863
2610.11072 0.02813
2608.82495 0.02755
2607.53918 0.02721
2606.25341 0.02721
2604.96764 0.02740
2603.68187 0.02751
2602.39611 0.02750
2601.11034 0.02748
2599.82457 0.02746
2598.53880 0.02728
2597.25303 0.02684
2595.96726 0.02625
2594.68149 0.02572
2593.39572 0.02538
2592.10995 0.02524
2590.82419 0.02529
2589.53842 0.02546
2588.25265 0.02568
2586.96688 0.02585
2585.68111 0.02588
2584.39534 0.02572
2583.10957 0.02546
2581.82380 0.02532
2580.53804 0.02548
2579.25227 0.02585
2577.96650 0.02613
2576.68073 0.02614
2575.39496 0.02597
2574.10919 0.02583
2572.82342 0.02582
2571.53765 0.02583
2570.25188 0.02586
2568.96612 0.02603
2567.68035 0.02637
2566.39458 0.02667
2565.10881 0.02664
2563.82304 0.02615
2562.53727 0.02534
2561.25150 0.02453
2559.96573 0.02400
2558.67997 0.02381
2557.39420 0.02384
2556.10843 0.02401
2554.82266 0.02436
2553.53689 0.02482
2552.25112 0.02509
2550.96535 0.02496
2549.67958 0.02447
2548.39381 0.02388
2547.10805 0.02340
2545.82228 0.02310
2544.53651 0.02293
2543.25074 0.02285
2541.96497 0.02291
2540.67920 0.02319
2539.39343 0.02358
2538.10766 0.02389
2536.82190 0.02392
2535.53613 0.02372
2534.25036 0.02350
2532.96459 0.02352
2531.67882 0.02378
2530.39305 0.02399
2529.10728 0.02386
2527.82151 0.02346
2526.53574 0.02310
2525.24998 0.02302
2523.96421 0.02326
2522.67844 0.02375
2521.39267 0.02431
2520.10690 0.02467
2518.82113 0.02462
2517.53536 0.02422
2516.24959 0.02373
2514.96383 0.02336
2513.67806 0.02318
2512.39229 0.02324
2511.10652 0.02352
2509.82075 0.02387
2508.53498 0.02396
2507.24921 0.02364
2505.96344 0.02309
2504.67767 0.02268
2503.39191 0.02259
2502.10614 0.02268
2500.82037 0.02280
2499.53460 0.02292
2498.24883 0.02312
2496.96306 0.02341
2495.67729 0.02365
2494.39152 0.02370
2493.10576 0.02359
2491.81999 0.02346
2490.53422 0.02347
2489.24845 0.02358
2487.96268 0.02368
2486.67691 0.02367
2485.39114 0.02356
2484.10537 0.02342
2482.81960 0.02337
2481.53384 0.02345
2480.24807 0.02354
2478.96230 0.02351
2477.67653 0.02337
2476.39076 0.02331
2475.10499 0.02344
2473.81922 0.02371
2472.53345 0.02393
2471.24769 0.02388
2469.96192 0.02353
2468.67615 0.02307
2467.39038 0.02274
2466.10461 0.02264
2464.81884 0.02266
2463.53307 0.02267
2462.24730 0.02263
2460.96153 0.02260
2459.67577 0.02271
2458.39000 0.02293
2457.10423 0.02308
2455.81846 0.02298
2454.53269 0.02270
2453.24692 0.02250
2451.96115 0.02263
2450.67538 0.02309
2449.38962 0.02365
2448.10385 0.02393
2446.81808 0.02372
2445.53231 0.02316
2444.24654 0.02265
2442.96077 0.02256
2441.67500 0.02282
2440.38923 0.02309
2439.10346 0.02304
2437.81770 0.02272
2436.53193 0.02239
2435.24616 0.02230
2433.96039 0.02251
2432.67462 0.02291
2431.38885 0.02328
2430.10308 0.02343
2428.81731 0.02338
2427.53155 0.02324
2426.24578 0.02307
2424.96001 0.02285
2423.67424 0.02254
2422.38847 0.02219
2421.10270 0.02179
2419.81693 0.02137
2418.53116 0.02101
2417.24539 0.02081
2415.95963 0.02080
2414.67386 0.02094
2413.38809 0.02125
2412.10232 0.02166
2410.81655 0.02200
2409.53078 0.02209
2408.24501 0.02184
2406.95924 0.02134
2405.67347 0.02078
2404.38771 0.02042
2403.10194 0.02041
2401.81617 0.02066
2400.53040 0.02103
2399.24463 0.02228
2397.95886 0.02202
2396.67309 0.02182
2395.38732 0.02195
2394.10156 0.02207
2392.81579 0.02213
2391.53002 0.02211
2390.24425 0.02192
2388.95848 0.02160
2387.67271 0.02131
2386.38694 0.02123
2385.10117 0.02136
2383.81540 0.02155
2382.52964 0.02168
2381.24387 0.02163
2379.95810 0.02135
2378.67233 0.02089
2377.38656 0.02042
2376.10079 0.02016
2374.81502 0.02020
2373.52925 0.02048
2372.24349 0.02084
2370.95772 0.02111
2369.67195 0.02118
2368.38618 0.02115
2367.10041 0.02121
2365.81464 0.02142
2364.52887 0.02171
2363.24310 0.02196
2361.95733 0.02216
2360.67157 0.02238
2359.38580 0.02256
2358.10003 0.02260
2356.81426 0.02254
2355.52849 0.02245
2354.24272 0.02235
2352.95695 0.02227
2351.67118 0.02227
2350.38542 0.02228
2349.09965 0.02220
2347.81388 0.02212
2346.52811 0.02226
2345.24234 0.02243
2343.95657 0.02229
2342.67080 0.02194
2341.38503 0.02197
2340.09926 0.02236
2338.81350 0.02238
2337.52773 0.02207
2336.24196 0.02232
2334.95619 0.02287
2333.67042 0.02267
2332.38465 0.02210
2331.09888 0.02223
2329.81311 0.02253
2328.52735 0.02244
2327.24158 0.02302
2325.95581 0.02403
2324.67004 0.02451
2323.38427 0.02480
2322.09850 0.02503
2320.81273 0.02473
2319.52696 0.02444
2318.24119 0.02418
2316.95543 0.02362
2315.66966 0.02320
2314.38389 0.02297
2313.09812 0.02271
2311.81235 0.02248
2310.52658 0.02212
2309.24081 0.02173
2307.95504 0.02152
2306.66928 0.02138
2305.38351 0.02131
2304.09774 0.02124
2302.81197 0.02125
2301.52620 0.02148
2300.24043 0.02185
2298.95466 0.02221
2297.66889 0.02241
2296.38312 0.02246
2295.09736 0.02243
2293.81159 0.02238
2292.52582 0.02231
2291.24005 0.02228
2289.95428 0.02239
2288.66851 0.02254
2287.38274 0.02249
2286.09697 0.02206
2284.81121 0.02138
2283.52544 0.02086
2282.23967 0.02085
2280.95390 0.02125
2279.66813 0.02165
2278.38236 0.02164
2277.09659 0.02122
2275.81082 0.02069
2274.52505 0.02036
2273.23929 0.02030
2271.95352 0.02041
2270.66775 0.02043
2269.38198 0.02011
2268.09621 0.01940
2266.81044 0.01860
2265.52467 0.01814
2264.23890 0.01815
2262.95314 0.01825
2261.66737 0.01791
2260.38160 0.01695
2259.09583 0.01569
2257.81006 0.01471
2256.52429 0.01426
2255.23852 0.01427
2253.95275 0.01461
2252.66698 0.01514
2251.38122 0.01551
2250.09545 0.01590
2248.80968 0.01742
2247.52391 0.01747
2246.23814 0.01741
2244.95237 0.01768
2243.66660 0.01818
2242.38083 0.01854
2241.09507 0.01855
2239.80930 0.01831
2238.52353 0.01790
2237.23776 0.01728
2235.95199 0.01661
2234.66622 0.01628
2233.38045 0.01655
2232.09468 0.01721
2230.80891 0.01771
2229.52315 0.01765
2228.23738 0.01708
2226.95161 0.01634
2225.66584 0.01564
2224.38007 0.01484
2223.09430 0.01379
2221.80853 0.01281
2220.52276 0.01252
2219.23700 0.01328
2217.95123 0.01481
2216.66546 0.01631
2215.37969 0.01703
2214.09392 0.01678
2212.80815 0.01589
2211.52238 0.01485
2210.23661 0.01394
2208.95084 0.01325
2207.66508 0.01276
2206.37931 0.01239
2205.09354 0.01207
2203.80777 0.01200
2202.52200 0.01243
2201.23623 0.01321
2199.95046 0.01382
2198.66469 0.01394
2197.37893 0.01364
2196.09316 0.01312
2194.80739 0.01251
2193.52162 0.01199
2192.23585 0.01183
2190.95008 0.01196
2189.66431 0.01195
2188.37854 0.01135
2187.09277 0.01023
2185.80701 0.00920
2184.52124 0.00886
2183.23547 0.00939
2181.94970 0.01042
2180.66393 0.01143
2179.37816 0.01190
2178.09239 0.01144
2176.80662 0.01001
2175.52085 0.00826
2174.23509 0.00722
2172.94932 0.00756
2171.66355 0.00919
2170.37778 0.01144
2169.09201 0.01331
2167.80624 0.01391
2166.52047 0.01299
2165.23470 0.01109
2163.94894 0.00900
2162.66317 0.00711
2161.37740 0.00515
2160.09163 0.00296
2158.80586 0.00111
2157.52009 0.00056
2156.23432 0.00148
2154.94855 0.00296
2153.66278 0.00396
2152.37702 0.00430
2151.09125 0.00459
2149.80548 0.00541
2148.51971 0.00677
2147.23394 0.00818
2145.94817 0.00918
2144.66240 0.00953
2143.37663 0.00926
2142.09087 0.00857
2140.80510 0.00786
2139.51933 0.00750
2138.23356 0.00762
2136.94779 0.00801
2135.66202 0.00838
2134.37625 0.00860
2133.09048 0.00870
2131.80471 0.00878
2130.51895 0.00887
2129.23318 0.00895
2127.94741 0.00895
2126.66164 0.00898
2125.37587 0.00925
2124.09010 0.00978
2122.80433 0.01032
2121.51856 0.01059
2120.23280 0.01071
2118.94703 0.01100
2117.66126 0.01163
2116.37549 0.01230
2115.08972 0.01253
2113.80395 0.01211
2112.51818 0.01138
2111.23241 0.01095
2109.94664 0.01116
2108.66088 0.01176
2107.37511 0.01214
2106.08934 0.01199
2104.80357 0.01157
2103.51780 0.01135
2102.23203 0.01149
2100.94626 0.01183
2099.66049 0.01324
2098.37473 0.01424
2097.08896 0.01415
2095.80319 0.01324
2094.51742 0.01193
2093.23165 0.01083
2091.94588 0.01046
2090.66011 0.01085
2089.37434 0.01151
2088.08857 0.01186
2086.80281 0.01163
2085.51704 0.01103
2084.23127 0.01054
2082.94550 0.01059
2081.65973 0.01116
2080.37396 0.01178
2079.08819 0.01197
2077.80242 0.01163
2076.51666 0.01103
2075.23089 0.01046
2073.94512 0.01019
2072.65935 0.01034
2071.37358 0.01087
2070.08781 0.01150
2068.80204 0.01182
2067.51627 0.01157
2066.23050 0.01078
2064.94474 0.00976
2063.65897 0.00894
2062.37320 0.00863
2061.08743 0.00886
2059.80166 0.00945
2058.51589 0.01010
2057.23012 0.01046
2055.94435 0.01033
2054.65859 0.00987
2053.37282 0.00963
2052.08705 0.01007
2050.80128 0.01103
2049.51551 0.01177
2048.22974 0.01181
2046.94397 0.01130
2045.65820 0.01070
2044.37243 0.01015
2043.08667 0.00955
2041.80090 0.00900
2040.51513 0.00886
2039.22936 0.00924
2037.94359 0.00982
2036.65782 0.01008
2035.37205 0.00980
2034.08628 0.00916
2032.80052 0.00848
2031.51475 0.00780
2030.22898 0.00690
2028.94321 0.00575
2027.65744 0.00472
2026.37167 0.00415
2025.08590 0.00400
2023.80013 0.00411
2022.51436 0.00448
2021.22860 0.00512
2019.94283 0.00578
2018.65706 0.00616
2017.37129 0.00632
2016.08552 0.00648
2014.79975 0.00666
2013.51398 0.00672
2012.22821 0.00673
2010.94245 0.00686
2009.65668 0.00711
2008.37091 0.00721
2007.08514 0.00713
2005.79937 0.00704
2004.51360 0.00707
2003.22783 0.00714
2001.94206 0.00718
2000.65629 0.00729
1999.37053 0.00750
1998.08476 0.00767
1996.79899 0.00762
1995.51322 0.00743
1994.22745 0.00736
1992.94168 0.00748
1991.65591 0.00758
1990.37014 0.00744
1989.08438 0.00719
1987.79861 0.00723
1986.51284 0.00780
1985.22707 0.00879
1983.94130 0.00985
1982.65553 0.01060
1981.36976 0.01075
1980.08399 0.01038
1978.79822 0.00987
1977.51246 0.00962
1976.22669 0.00969
1974.94092 0.00992
1973.65515 0.01012
1972.36938 0.01023
1971.08361 0.01040
1969.79784 0.01080
1968.51207 0.01132
1967.22631 0.01154
1965.94054 0.01123
1964.65477 0.01073
1963.36900 0.01064
1962.08323 0.01106
1960.79746 0.01147
1959.51169 0.01136
1958.22592 0.01072
1956.94015 0.00991
1955.65439 0.00925
1954.36862 0.00894
1953.08285 0.00910
1951.79708 0.00969
1950.51131 0.01045
1949.22554 0.01104
1947.93977 0.01137
1946.65400 0.01160
1945.36823 0.01185
1944.08247 0.01205
1942.79670 0.01206
1941.51093 0.01192
1940.22516 0.01188
1938.93939 0.01212
1937.65362 0.01252
1936.36785 0.01271
1935.08208 0.01252
1933.79632 0.01216
1932.51055 0.01197
1931.22478 0.01207
1929.93901 0.01230
1928.65324 0.01247
1927.36747 0.01248
1926.08170 0.01232
1924.79593 0.01208
1923.51016 0.01198
1922.22440 0.01223
1920.93863 0.01271
1919.65286 0.01314
1918.36709 0.01336
1917.08132 0.01346
1915.79555 0.01356
1914.50978 0.01365
1913.22401 0.01366
1911.93825 0.01356
1910.65248 0.01341
1909.36671 0.01329
1908.08094 0.01323
1906.79517 0.01317
1905.50940 0.01300
1904.22363 0.01267
1902.93786 0.01231
1901.65209 0.01209
1900.36633 0.01211
1899.08056 0.01231
1897.79479 0.01257
1896.50902 0.01282
1895.22325 0.01304
1893.93748 0.01326
1892.65171 0.01340
1891.36594 0.01337
1890.08018 0.01313
1888.79441 0.01284
1887.50864 0.01269
1886.22287 0.01276
1884.93710 0.01295
1883.65133 0.01312
1882.36556 0.01317
1881.07979 0.01307
1879.79402 0.01292
1878.50826 0.01284
1877.22249 0.01292
1875.93672 0.01310
1874.65095 0.01327
1873.36518 0.01334
1872.07941 0.01334
1870.79364 0.01325
1869.50787 0.01308
1868.22211 0.01286
1866.93634 0.01271
1865.65057 0.01272
1864.36480 0.01285
1863.07903 0.01296
1861.79326 0.01292
1860.50749 0.01279
1859.22172 0.01271
1857.93595 0.01277
1856.65019 0.01292
1855.36442 0.01308
1854.07865 0.01321
1852.79288 0.01327
1851.50711 0.01325
1850.22134 0.01317
1848.93557 0.01311
1847.64980 0.01311
1846.36404 0.01315
1845.07827 0.01320
1843.79250 0.01328
1842.50673 0.01340
1841.22096 0.01353
1839.93519 0.01365
1838.64942 0.01372
1837.36365 0.01368
1836.07788 0.01353
1834.79212 0.01333
1833.50635 0.01320
1832.22058 0.01322
1830.93481 0.01338
1829.64904 0.01366
1828.36327 0.01404
1827.07750 0.01439
1825.79173 0.01460
1824.50597 0.01464
1823.22020 0.01457
1821.93443 0.01443
1820.64866 0.01421
1819.36289 0.01390
1818.07712 0.01354
1816.79135 0.01319
1815.50558 0.01291
1814.21981 0.01270
1812.93405 0.01259
1811.64828 0.01260
1810.36251 0.01272
1809.07674 0.01289
1807.79097 0.01306
1806.50520 0.01324
1805.21943 0.01343
1803.93366 0.01359
1802.64790 0.01366
1801.36213 0.01362
1800.07636 0.01353
1798.79059 0.01344
1797.50482 0.01343
1796.21905 0.01354
1794.93328 0.01376
1793.64751 0.01399
1792.36174 0.01417
1791.07598 0.01434
1789.79021 0.01448
1788.50444 0.01456
1787.21867 0.01456
1785.93290 0.01454
1784.64713 0.01455
1783.36136 0.01458
1782.07559 0.01454
1780.78983 0.01441
1779.50406 0.01427
1778.21829 0.01422
1776.93252 0.01429
1775.64675 0.01440
1774.36098 0.01443
1773.07521 0.01433
1771.78944 0.01416
1770.50367 0.01401
1769.21791 0.01393
1767.93214 0.01397
1766.64637 0.01416
1765.36060 0.01443
1764.07483 0.01468
1762.78906 0.01487
1761.50329 0.01498
1760.21752 0.01501
1758.93176 0.01494
1757.64599 0.01483
1756.36022 0.01480
1755.07445 0.01488
1753.78868 0.01499
1752.50291 0.01510
1751.21714 0.01525
1749.93137 0.01542
1748.64560 0.01554
1747.35984 0.01561
1746.07407 0.01567
1744.78830 0.01577
1743.50253 0.01591
1742.21676 0.01603
1740.93099 0.01613
1739.64522 0.01624
1738.35945 0.01640
1737.07369 0.01655
1735.78792 0.01658
1734.50215 0.01656
1733.21638 0.01658
1731.93061 0.01661
1730.64484 0.01660
1729.35907 0.01658
1728.07330 0.01662
1726.78753 0.01669
1725.50177 0.01674
1724.21600 0.01680
1722.93023 0.01700
1721.64446 0.01738
1720.35869 0.01781
1719.07292 0.01814
1717.78715 0.01835
1716.50138 0.01852
1715.21561 0.01866
1713.92985 0.01877
1712.64408 0.01891
1711.35831 0.01913
1710.07254 0.01945
1708.78677 0.01979
1707.50100 0.02008
1706.21523 0.02034
1704.92946 0.02066
1703.64370 0.02106
1702.35793 0.02140
1701.07216 0.02161
1699.78639 0.02184
1698.50062 0.02211
1697.21485 0.02231
1695.92908 0.02245
1694.64331 0.02260
1693.35754 0.02270
1692.07178 0.02267
1690.78601 0.02267
1689.50024 0.02287
1688.21447 0.02325
1686.92870 0.02365
1685.64293 0.02395
1684.35716 0.02419
1683.07139 0.02446
1681.78563 0.02469
1680.49986 0.02487
1679.21409 0.02509
1677.92832 0.02536
1676.64255 0.02563
1675.35678 0.02591
1674.07101 0.02627
1672.78524 0.02665
1671.49947 0.02696
1670.21371 0.02722
1668.92794 0.02748
1667.64217 0.02778
1666.35640 0.02809
1665.07063 0.02836
1663.78486 0.02863
1662.49909 0.02890
1661.21332 0.02918
1659.92756 0.02948
1658.64179 0.02986
1657.35602 0.03042
1656.07025 0.03103
1654.78448 0.03145
1653.49871 0.03164
1652.21294 0.03176
1650.92717 0.03185
1649.64140 0.03184
1648.35564 0.03176
1647.06987 0.03174
1645.78410 0.03182
1644.49833 0.03190
1643.21256 0.03190
1641.92679 0.03186
1640.64102 0.03187
1639.35525 0.03196
1638.06949 0.03207
1636.78372 0.03211
1635.49795 0.03213
1634.21218 0.03216
1632.92641 0.03218
1631.64064 0.03218
1630.35487 0.03219
1629.06910 0.03225
1627.78333 0.03236
1626.49757 0.03246
1625.21180 0.03253
1623.92603 0.03259
1622.64026 0.03268
1621.35449 0.03284
1620.06872 0.03302
1618.78295 0.03313
1617.49718 0.03320
1616.21142 0.03331
1614.92565 0.03346
1613.63988 0.03357
1612.35411 0.03363
1611.06834 0.03370
1609.78257 0.03380
1608.49680 0.03395
1607.21103 0.03412
1605.92526 0.03432
1604.63950 0.03453
1603.35373 0.03471
1602.06796 0.03486
1600.78219 0.03498
1599.49642 0.03510
1598.21065 0.03524
1596.92488 0.03541
1595.63911 0.03561
1594.35335 0.03580
1593.06758 0.03597
1591.78181 0.03613
1590.49604 0.03630
1589.21027 0.03646
1587.92450 0.03660
1586.63873 0.03669
1585.35296 0.03672
1584.06719 0.03676
1582.78143 0.03688
1581.49566 0.03715
1580.20989 0.03754
1578.92412 0.03792
1577.63835 0.03816
1576.35258 0.03829
1575.06681 0.03843
1573.78104 0.03861
1572.49528 0.03876
1571.20951 0.03888
1569.92374 0.03902
1568.63797 0.03921
1567.35220 0.03939
1566.06643 0.03954
1564.78066 0.03972
1563.49489 0.03997
1562.20912 0.04022
1560.92336 0.04033
1559.63759 0.04036
1558.35182 0.04043
1557.06605 0.04055
1555.78028 0.04059
1554.49451 0.04052
1553.20874 0.04040
1551.92297 0.04026
1550.63721 0.04009
1549.35144 0.03996
1548.06567 0.03989
1546.77990 0.03986
1545.49413 0.03985
1544.20836 0.03988
1542.92259 0.03988
1541.63682 0.03974
1540.35105 0.03943
1539.06529 0.03905
1537.77952 0.03869
1536.49375 0.03832
1535.20798 0.03794
1533.92221 0.03762
1532.63644 0.03745
1531.35067 0.03740
1530.06490 0.03742
1528.77914 0.03747
1527.49337 0.03756
1526.20760 0.03768
1524.92183 0.03783
1523.63606 0.03799
1522.35029 0.03814
1521.06452 0.03838
1519.77875 0.03871
1518.49298 0.03904
1517.20722 0.03934
1515.92145 0.03968
1514.63568 0.04011
1513.34991 0.04064
1512.06414 0.04127
1510.77837 0.04202
1509.49260 0.04277
1508.20683 0.04341
1506.92107 0.04394
1505.63530 0.04444
1504.34953 0.04490
1503.06376 0.04529
1501.77799 0.04565
1500.49222 0.04606
1499.20645 0.04650
1497.92068 0.04689
1496.63491 0.04718
1495.34915 0.04743
1494.06338 0.04769
1492.77761 0.04797
1491.49184 0.04829
1490.20607 0.04869
1488.92030 0.04913
1487.63453 0.04956
1486.34876 0.04997
1485.06299 0.05037
1483.77723 0.05078
1482.49146 0.05119
1481.20569 0.05165
1479.91992 0.05219
1478.63415 0.05282
1477.34838 0.05352
1476.06261 0.05424
1474.77684 0.05488
1473.49108 0.05541
1472.20531 0.05590
1470.91954 0.05637
1469.63377 0.05682
1468.34800 0.05719
1467.06223 0.05748
1465.77646 0.05776
1464.49069 0.05807
1463.20492 0.05847
1461.91916 0.05895
1460.63339 0.05946
1459.34762 0.05992
1458.06185 0.06029
1456.77608 0.06062
1455.49031 0.06096
1454.20454 0.06127
1452.91877 0.06150
1451.63301 0.06169
1450.34724 0.06187
1449.06147 0.06202
1447.77570 0.06213
1446.48993 0.06220
1445.20416 0.06221
1443.91839 0.06219
1442.63262 0.06219
1441.34685 0.06225
1440.06109 0.06236
1438.77532 0.06244
1437.48955 0.06248
1436.20378 0.06258
1434.91801 0.06278
1433.63224 0.06306
1432.34647 0.06338
1431.06070 0.06377
1429.77494 0.06428
1428.48917 0.06492
1427.20340 0.06566
1425.91763 0.06645
1424.63186 0.06730
1423.34609 0.06819
1422.06032 0.06903
1420.77455 0.06975
1419.48878 0.07036
1418.20302 0.07090
1416.91725 0.07134
1415.63148 0.07167
1414.34571 0.07191
1413.05994 0.07209
1411.77417 0.07216
1410.48840 0.07209
1409.20263 0.07184
1407.91687 0.07142
1406.63110 0.07086
1405.34533 0.07023
1404.05956 0.06956
1402.77379 0.06883
1401.48802 0.06798
1400.20225 0.06698
1398.91648 0.06592
1397.63071 0.06485
1396.34495 0.06377
1395.05918 0.06265
1393.77341 0.06148
1392.48764 0.06030
1391.20187 0.05914
1389.91610 0.05802
1388.63033 0.05696
1387.34456 0.05596
1386.05880 0.05500
1384.77303 0.05400
1383.48726 0.05294
1382.20149 0.05184
1380.91572 0.05075
1379.62995 0.04970
1378.34418 0.04868
1377.05841 0.04767
1375.77264 0.04660
1374.48688 0.04548
1373.20111 0.04433
1371.91534 0.04320
1370.62957 0.04209
1369.34380 0.04103
1368.05803 0.04003
1366.77226 0.03911
1365.48649 0.03825
1364.20073 0.03744
1362.91496 0.03667
1361.62919 0.03593
1360.34342 0.03520
1359.05765 0.03449
1357.77188 0.03382
1356.48611 0.03323
1355.20034 0.03267
1353.91457 0.03212
1352.62881 0.03157
1351.34304 0.03106
1350.05727 0.03059
1348.77150 0.03017
1347.48573 0.02976
1346.19996 0.02937
1344.91419 0.02903
1343.62842 0.02872
1342.34266 0.02842
1341.05689 0.02808
1339.77112 0.02771
1338.48535 0.02735
1337.19958 0.02703
1335.91381 0.02676
1334.62804 0.02654
1333.34227 0.02635
1332.05650 0.02621
1330.77074 0.02608
1329.48497 0.02591
1328.19920 0.02567
1326.91343 0.02541
1325.62766 0.02519
1324.34189 0.02501
1323.05612 0.02484
1321.77035 0.02465
1320.48459 0.02443
1319.19882 0.02419
1317.91305 0.02395
1316.62728 0.02373
1315.34151 0.02354
1314.05574 0.02339
1312.76997 0.02328
1311.48420 0.02319
1310.19843 0.02309
1308.91267 0.02297
1307.62690 0.02281
1306.34113 0.02264
1305.05536 0.02249
1303.76959 0.02236
1302.48382 0.02225
1301.19805 0.02211
1299.91228 0.02193
1298.62652 0.02173
1297.34075 0.02153
1296.05498 0.02137
1294.76921 0.02123
1293.48344 0.02112
1292.19767 0.02103
1290.91190 0.02097
1289.62613 0.02094
1288.34036 0.02090
1287.05460 0.02078
1285.76883 0.02059
1284.48306 0.02039
1283.19729 0.02026
1281.91152 0.02020
1280.62575 0.02018
1279.33998 0.02011
1278.05421 0.02000
1276.76845 0.01989
1275.48268 0.01981
1274.19691 0.01978
1272.91114 0.01975
1271.62537 0.01970
1270.33960 0.01964
1269.05383 0.01959
1267.76806 0.01956
1266.48229 0.01955
1265.19653 0.01953
1263.91076 0.01950
1262.62499 0.01943
1261.33922 0.01933
1260.05345 0.01924
1258.76768 0.01916
1257.48191 0.01913
1256.19614 0.01915
1254.91037 0.01920
1253.62461 0.01926
1252.33884 0.01931
1251.05307 0.01932
1249.76730 0.01930
1248.48153 0.01926
1247.19576 0.01921
1245.90999 0.01918
1244.62422 0.01917
1243.33846 0.01918
1242.05269 0.01919
1240.76692 0.01919
1239.48115 0.01919
1238.19538 0.01920
1236.90961 0.01923
1235.62384 0.01930
1234.33807 0.01937
1233.05230 0.01944
1231.76654 0.01949
1230.48077 0.01950
1229.19500 0.01948
1227.90923 0.01943
1226.62346 0.01937
1225.33769 0.01934
1224.05192 0.01935
1222.76615 0.01936
1221.48039 0.01933
1220.19462 0.01928
1218.90885 0.01924
1217.62308 0.01925
1216.33731 0.01930
1215.05154 0.01937
1213.76577 0.01946
1212.48000 0.01958
1211.19423 0.01973
1209.90847 0.01990
1208.62270 0.02006
1207.33693 0.02023
1206.05116 0.02038
1204.76539 0.02050
1203.47962 0.02058
1202.19385 0.02054
1200.90808 0.02040
1199.62232 0.02045
1198.33655 0.02058
1197.05078 0.02074
1195.76501 0.02089
1194.47924 0.02103
1193.19347 0.02114
1191.90770 0.02125
1190.62193 0.02136
1189.33616 0.02147
1188.05040 0.02160
1186.76463 0.02175
1185.47886 0.02193
1184.19309 0.02209
1182.90732 0.02221
1181.62155 0.02232
1180.33578 0.02245
1179.05001 0.02262
1177.76425 0.02285
1176.47848 0.02313
1175.19271 0.02343
1173.90694 0.02374
1172.62117 0.02402
1171.33540 0.02426
1170.04963 0.02448
1168.76386 0.02470
1167.47809 0.02493
1166.19233 0.02516
1164.90656 0.02534
1163.62079 0.02548
1162.33502 0.02560
1161.04925 0.02569
1159.76348 0.02575
1158.47771 0.02583
1157.19194 0.02602
1155.90618 0.02637
1154.62041 0.02686
1153.33464 0.02736
1152.04887 0.02779
1150.76310 0.02813
1149.47733 0.02842
1148.19156 0.02872
1146.90579 0.02905
1145.62002 0.02946
1144.33426 0.02997
1143.04849 0.03057
1141.76272 0.03123
1140.47695 0.03194
1139.19118 0.03271
1137.90541 0.03354
1136.61964 0.03445
1135.33387 0.03544
1134.04811 0.03649
1132.76234 0.03758
1131.47657 0.03869
1130.19080 0.03987
1128.90503 0.04124
1127.61926 0.04285
1126.33349 0.04466
1125.04772 0.04659
1123.76195 0.04859
1122.47619 0.05066
1121.19042 0.05277
1119.90465 0.05488
1118.61888 0.05700
1117.33311 0.05913
1116.04734 0.06132
1114.76157 0.06357
1113.47580 0.06583
1112.19004 0.06802
1110.90427 0.07006
1109.61850 0.07200
1108.33273 0.07393
1107.04696 0.07592
1105.76119 0.07792
1104.47542 0.07984
1103.18965 0.08164
1101.90388 0.08333
1100.61812 0.08497
1099.33235 0.08658
1098.04658 0.08821
1096.76081 0.08984
1095.47504 0.09141
1094.18927 0.09284
1092.90350 0.09407
1091.61773 0.09510
1090.33197 0.09602
1089.04620 0.09696
1087.76043 0.09801
1086.47466 0.09921
1085.18889 0.10049
1083.90312 0.10177
1082.61735 0.10303
1081.33158 0.10427
1080.04581 0.10556
1078.76005 0.10696
1077.47428 0.10851
1076.18851 0.11019
1074.90274 0.11195
1073.61697 0.11374
1072.33120 0.11554
1071.04543 0.11739
1069.75966 0.11933
1068.47390 0.12141
1067.18813 0.12361
1065.90236 0.12593
1064.61659 0.12832
1063.33082 0.13072
1062.04505 0.13313
1060.75928 0.13552
1059.47351 0.13784
1058.18774 0.14003
1056.90198 0.14208
1055.61621 0.14409
1054.33044 0.14616
1053.04467 0.14834
1051.75890 0.15062
1050.47313 0.15294
1049.18736 0.15527
1047.90159 0.15759
1046.61583 0.15988
1045.33006 0.16215
1044.04429 0.16446
1042.75852 0.16683
1041.47275 0.16919
1040.18698 0.17152
1038.90121 0.17382
1037.61544 0.17613
1036.32967 0.17843
1035.04391 0.18068
1033.75814 0.18282
1032.47237 0.18482
1031.18660 0.18659
1029.90083 0.18813
1028.61506 0.18947
1027.32929 0.19068
1026.04352 0.19180
1024.75775 0.19280
1023.47199 0.19366
1022.18622 0.19432
1020.90045 0.19474
1019.61468 0.19488
1018.32891 0.19475
1017.04314 0.19439
1015.75737 0.19387
1014.47160 0.19320
1013.18584 0.19230
1011.90007 0.19108
1010.61430 0.18950
1009.32853 0.18762
1008.04276 0.18549
1006.75699 0.18316
1005.47122 0.18059
1004.18545 0.17775
1002.89968 0.17464
1001.61392 0.17130
1000.32815 0.16782
999.04238 0.16426
997.75661 0.16062
996.47084 0.15685
995.18507 0.15295
993.89930 0.14898
992.61353 0.14501
991.32777 0.14110
990.04200 0.13725
988.75623 0.13345
987.47046 0.12976
986.18469 0.12618
984.89892 0.12272
983.61315 0.11934
982.32738 0.11601
981.04161 0.11274
979.75585 0.10962
978.47008 0.10669
977.18431 0.10398
975.89854 0.10150
974.61277 0.09928
973.32700 0.09734
972.04123 0.09567
970.75546 0.09425
969.46970 0.09310
968.18393 0.09228
966.89816 0.09178
965.61239 0.09155
964.32662 0.09147
963.04085 0.09137
961.75508 0.09111
960.46931 0.09057
959.18354 0.08972
957.89778 0.08860
956.61201 0.08727
955.32624 0.08582
954.04047 0.08432
952.75470 0.08281
951.46893 0.08126
950.18316 0.07963
948.89739 0.07789
947.61163 0.07615
946.32586 0.07452
945.04009 0.07302
943.75432 0.07161
942.46855 0.07026
941.18278 0.06897
939.89701 0.06773
938.61124 0.06653
937.32547 0.06533
936.03971 0.06417
934.75394 0.06311
933.46817 0.06217
932.18240 0.06133
930.89663 0.06054
929.61086 0.05976
928.32509 0.05901
927.03932 0.05827
925.75356 0.05748
924.46779 0.05666
923.18202 0.05587
921.89625 0.05515
920.61048 0.05451
919.32471 0.05390
918.03894 0.05332
916.75317 0.05280
915.46740 0.05237
914.18164 0.05198
912.89587 0.05156
911.61010 0.05107
910.32433 0.05050
909.03856 0.04991
907.75279 0.04934
906.46702 0.04879
905.18125 0.04829
903.89549 0.04779
902.60972 0.04727
901.32395 0.04670
900.03818 0.04613
898.75241 0.04562
897.46664 0.04520
896.18087 0.04476
894.89510 0.04423
893.60933 0.04368
892.32357 0.04324
891.03780 0.04299
889.75203 0.04292
888.46626 0.04295
887.18049 0.04309
885.89472 0.04345
884.60895 0.04418
883.32318 0.04538
882.03742 0.04695
880.75165 0.04861
879.46588 0.05001
878.18011 0.05102
876.89434 0.05182
875.60857 0.05268
874.32280 0.05365
873.03703 0.05451
871.75126 0.05493
870.46550 0.05474
869.17973 0.05402
867.89396 0.05292
866.60819 0.05155
865.32242 0.04999
864.03665 0.04830
862.75088 0.04662
861.46511 0.04505
860.17935 0.04362
858.89358 0.04235
857.60781 0.04125
856.32204 0.04032
855.03627 0.03953
853.75050 0.03884
852.46473 0.03824
851.17896 0.03775
849.89319 0.03740
848.60743 0.03713
847.32166 0.03685
846.03589 0.03651
844.75012 0.03614
843.46435 0.03582
842.17858 0.03557
840.89281 0.03536
839.60704 0.03520
838.32128 0.03506
837.03551 0.03491
835.74974 0.03469
834.46397 0.03439
833.17820 0.03406
831.89243 0.03375
830.60666 0.03351
829.32089 0.03335
828.03512 0.03327
826.74936 0.03324
825.46359 0.03320
824.17782 0.03312
822.89205 0.03298
821.60628 0.03283
820.32051 0.03271
819.03474 0.03259
817.74897 0.03244
816.46321 0.03220
815.17744 0.03195
813.89167 0.03181
812.60590 0.03184
811.32013 0.03201
810.03436 0.03220
808.74859 0.03237
807.46282 0.03253
806.17705 0.03273
804.89129 0.03299
803.60552 0.03332
802.31975 0.03373
801.03398 0.03413
799.74821 0.03445
798.46244 0.03464
797.17667 0.03469
795.89090 0.03466
794.60513 0.03460
793.31937 0.03454
792.03360 0.03449
790.74783 0.03446
789.46206 0.03445
788.17629 0.03448
786.89052 0.03456
785.60475 0.03466
784.31898 0.03474
783.03322 0.03477
781.74745 0.03474
780.46168 0.03471
779.17591 0.03471
777.89014 0.03471
776.60437 0.03469
775.31860 0.03462
774.03283 0.03451
772.74706 0.03433
771.46130 0.03410
770.17553 0.03388
768.88976 0.03374
767.60399 0.03370
766.31822 0.03369
765.03245 0.03369
763.74668 0.03372
762.46091 0.03376
761.17515 0.03380
759.88938 0.03381
758.60361 0.03378
757.31784 0.03371
756.03207 0.03359
754.74630 0.03346
753.46053 0.03334
752.17476 0.03321
750.88899 0.03299
749.60323 0.03270
748.31746 0.03245
747.03169 0.03235
745.74592 0.03232
744.46015 0.03225
743.17438 0.03207
741.88861 0.03183
740.60284 0.03161
739.31708 0.03146
738.03131 0.03136
736.74554 0.03127
735.45977 0.03123
734.17400 0.03130
732.88823 0.03149
731.60246 0.03166
730.31669 0.03171
729.03092 0.03162
727.74516 0.03149
726.45939 0.03139
725.17362 0.03136
723.88785 0.03161
722.60208 0.03155
721.31631 0.03158
720.03054 0.03169
718.74477 0.03175
717.45901 0.03171
716.17324 0.03154
714.88747 0.03128
713.60170 0.03100
712.31593 0.03079
711.03016 0.03068
709.74439 0.03064
708.45862 0.03062
707.17285 0.03060
705.88709 0.03057
704.60132 0.03057
703.31555 0.03059
702.02978 0.03064
700.74401 0.03070
699.45824 0.03078
698.17247 0.03088
696.88670 0.03101
695.60094 0.03115
694.31517 0.03122
693.02940 0.03121
691.74363 0.03110
690.45786 0.03093
689.17209 0.03075
687.88632 0.03061
686.60055 0.03049
685.31478 0.03037
684.02902 0.03022
682.74325 0.03005
681.45748 0.02989
680.17171 0.02977
678.88594 0.02969
677.60017 0.02963
676.31440 0.02960
675.02863 0.02959
673.74287 0.02962
672.45710 0.02965
671.17133 0.02968
669.88556 0.02970
668.59979 0.02967
667.31402 0.02957
666.02825 0.02950
664.74248 0.02943
663.45671 0.02939
662.17095 0.02938
660.88518 0.02941
659.59941 0.02947
658.31364 0.02949
657.02787 0.02942
655.74210 0.02926
654.45633 0.02906
653.17056 0.02889
651.88480 0.02880
650.59903 0.02880
649.31326 0.02889
648.02749 0.02901
646.74172 0.02911
645.45595 0.02916
644.17018 0.02916
642.88441 0.02913
641.59864 0.02908
640.31288 0.02906
639.02711 0.02910
637.74134 0.02921
636.45557 0.02940
635.16980 0.02967
633.88403 0.03003
632.59826 0.03033
631.31249 0.03002
630.02673 0.02950
628.74096 0.03134
627.45519 0.03309
626.16942 0.03678
624.88365 0.04172
623.59788 0.04614
622.31211 0.04887
621.02634 0.04981
619.74057 0.04979
618.45481 0.04945
617.16904 0.04863
615.88327 0.04730
614.59750 0.04659
613.31173 0.04823
612.02596 0.05275
610.74019 0.05879
609.45442 0.06443
608.16866 0.06905
606.88289 0.07316
605.59712 0.07688
604.31135 0.07954
603.02558 0.08050
601.73981 0.07966
600.45404 0.07752
599.16827 0.07475
597.88250 0.07195
596.59674 0.06950
595.31097 0.06752
594.02520 0.06597
592.73943 0.06479
591.45366 0.06394
590.16789 0.06345
588.88212 0.06335
587.59635 0.06364
586.31059 0.06430
585.02482 0.06531
583.73905 0.06666
582.45328 0.06826
581.16751 0.06996
579.88174 0.07160
578.59597 0.07309
577.31020 0.07453
576.02443 0.07603
574.73867 0.07764
573.45290 0.07934
572.16713 0.08114
570.88136 0.08312
569.59559 0.08530
568.30982 0.08759
567.02405 0.08973
565.73828 0.09150
564.45251 0.09278
563.16675 0.09352
561.88098 0.09366
560.59521 0.09312
559.30944 0.09185
558.02367 0.08988
556.73790 0.08733
555.45213 0.08435
554.16636 0.08111
552.88060 0.07780
551.59483 0.07458
550.30906 0.07159
549.02329 0.06889
547.73752 0.06649
546.45175 0.06439
545.16598 0.06258
543.88021 0.06110
542.59444 0.05995
541.30868 0.05902
540.02291 0.05813
538.73714 0.05717
537.45137 0.05615
536.16560 0.05521
534.87983 0.05446
533.59406 0.05388
532.30829 0.05341
531.02253 0.05292
529.73676 0.05235
528.45099 0.05165
527.16522 0.05083
525.87945 0.04997
524.59368 0.04919
523.30791 0.04859
522.02214 0.04814
520.73637 0.04771
519.45061 0.04720
518.16484 0.04662
516.87907 0.04607
515.59330 0.04559
514.30753 0.04514
513.02176 0.04471
511.73599 0.04430
510.45022 0.04393
509.16446 0.04356
507.87869 0.04316
506.59292 0.04274
505.30715 0.04238
504.02138 0.04210
502.73561 0.04188
501.44984 0.04163
500.16407 0.04133
498.87830 0.04098
497.59254 0.04062
496.30677 0.04027
495.02100 0.03996
493.73523 0.03975
492.44946 0.03967
491.16369 0.03972
489.87792 0.03986
488.59215 0.04004
487.30639 0.04023
486.02062 0.04045
484.73485 0.04072
483.44908 0.04105
482.16331 0.04144
480.87754 0.04192
479.59177 0.04251
478.30600 0.04319
477.02023 0.04392
475.73447 0.04466
474.44870 0.04539
473.16293 0.04608
471.87716 0.04667
470.59139 0.04706
469.30562 0.04721
468.01985 0.04719
466.73408 0.04709
465.44832 0.04693
464.16255 0.04671
462.87678 0.04639
461.59101 0.04597
460.30524 0.04553
459.01947 0.04512
457.73370 0.04478
456.44793 0.04444
455.16216 0.04405
453.87640 0.04359
452.59063 0.04316
451.30486 0.04280
450.01909 0.04248
448.73332 0.04209
447.44755 0.04166
446.16178 0.04128
444.87601 0.04105
443.59025 0.04092
442.30448 0.04081
441.01871 0.04068
439.73294 0.04055
438.44717 0.04045
437.16140 0.04038
435.87563 0.04031
434.58986 0.04022
433.30409 0.04016
432.01833 0.04016
430.73256 0.04020
429.44679 0.04021
428.16102 0.04015
426.87525 0.04004
425.58948 0.03990
424.30371 0.03978
423.01794 0.03965
421.73218 0.03949
420.44641 0.03925
419.16064 0.03893
417.87487 0.03854
416.58910 0.03811
415.30333 0.03766
414.01756 0.03723
412.73179 0.03681
411.44602 0.03641
410.16026 0.03599
408.87449 0.03557
407.58872 0.03517
406.30295 0.03481
405.01718 0.03456
403.73141 0.03450
402.44564 0.03462
401.15987 0.03486
399.87411 0.03513
