3997.45528	0.07075
3996.16951	0.06977
3994.88374	0.06877
3993.59798	0.06819
3992.31221	0.06851
3991.02644	0.06978
3989.74067	0.07138
3988.45490	0.07249
3987.16913	0.07281
3985.88336	0.07267
3984.59759	0.07258
3983.31183	0.07277
3982.02606	0.07314
3980.74029	0.07353
3979.45452	0.07385
3978.16875	0.07398
3976.88298	0.07377
3975.59721	0.07320
3974.31144	0.07229
3973.02567	0.07115
3971.73991	0.06998
3970.45414	0.06908
3969.16837	0.06872
3967.88260	0.06895
3966.59683	0.06953
3965.31106	0.07002
3964.02529	0.07007
3962.73952	0.06974
3961.45376	0.06948
3960.16799	0.06976
3958.88222	0.07063
3957.59645	0.07170
3956.31068	0.07255
3955.02491	0.07300
3953.73914	0.07306
3952.45337	0.07272
3951.16760	0.07206
3949.88184	0.07133
3948.59607	0.07091
3947.31030	0.07100
3946.02453	0.07148
3944.73876	0.07198
3943.45299	0.07226
3942.16722	0.07227
3940.88145	0.07213
3939.59569	0.07186
3938.30992	0.07130
3937.02415	0.07035
3935.73838	0.06915
3934.45261	0.06802
3933.16684	0.06742
3931.88107	0.06771
3930.59530	0.06897
3929.30953	0.07068
3928.02377	0.07194
3926.73800	0.07214
3925.45223	0.07145
3924.16646	0.07071
3922.88069	0.07070
3921.59492	0.07156
3920.30915	0.07276
3919.02338	0.07361
3917.73762	0.07375
3916.45185	0.07322
3915.16608	0.07213
3913.88031	0.07061
3912.59454	0.06895
3911.30877	0.06758
3910.02300	0.06686
3908.73723	0.06678
3907.45146	0.06707
3906.16570	0.06740
3904.87993	0.06771
3903.59416	0.06819
3902.30839	0.06890
3901.02262	0.06947
3899.73685	0.06940
3898.45108	0.06852
3897.16531	0.06722
3895.87955	0.06614
3894.59378	0.06559
3893.30801	0.06539
3892.02224	0.06516
3890.73647	0.06478
3889.45070	0.06440
3888.16493	0.06420
3886.87916	0.06439
3885.59339	0.06505
3884.30763	0.06584
3883.02186	0.06622
3881.73609	0.06614
3880.45032	0.06613
3879.16455	0.06659
3877.87878	0.06730
3876.59301	0.06781
3875.30724	0.06811
3874.02148	0.06853
3872.73571	0.06913
3871.44994	0.06947
3870.16417	0.06905
3868.87840	0.06779
3867.59263	0.06606
3866.30686	0.06451
3865.02109	0.06360
3863.73532	0.06327
3862.44956	0.06317
3861.16379	0.06314
3859.87802	0.06346
3858.59225	0.06440
3857.30648	0.06576
3856.02071	0.06696
3854.73494	0.06750
3853.44917	0.06740
3852.16341	0.06700
3850.87764	0.06652
3849.59187	0.06611
3848.30610	0.06582
3847.02033	0.06549
3845.73456	0.06497
3844.44879	0.06441
3843.16302	0.06421
3841.87725	0.06460
3840.59149	0.06522
3839.30572	0.06546
3838.01995	0.06507
3836.73418	0.06434
3835.44841	0.06370
3834.16264	0.06336
3832.87687	0.06331
3831.59110	0.06341
3830.30534	0.06345
3829.01957	0.06338
3827.73380	0.06333
3826.44803	0.06347
3825.16226	0.06369
3823.87649	0.06371
3822.59072	0.06335
3821.30495	0.06285
3820.01918	0.06254
3818.73342	0.06262
3817.44765	0.06312
3816.16188	0.06401
3814.87611	0.06503
3813.59034	0.06579
3812.30457	0.06614
3811.01880	0.06621
3809.73303	0.06605
3808.44726	0.06559
3807.16150	0.06502
3805.87573	0.06469
3804.58996	0.06464
3803.30419	0.06453
3802.01842	0.06413
3800.73265	0.06348
3799.44688	0.06269
3798.16111	0.06192
3796.87535	0.06147
3795.58958	0.06156
3794.30381	0.06199
3793.01804	0.06235
3791.73227	0.06241
3790.44650	0.06230
3789.16073	0.06224
3787.87496	0.06229
3786.58919	0.06241
3785.30343	0.06258
3784.01766	0.06284
3782.73189	0.06310
3781.44612	0.06307
3780.16035	0.06254
3778.87458	0.06170
3777.58881	0.06106
3776.30304	0.06104
3775.01728	0.06150
3773.73151	0.06195
3772.44574	0.06193
3771.15997	0.06152
3769.87420	0.06120
3768.58843	0.06142
3767.30266	0.06213
3766.01689	0.06289
3764.73112	0.06326
3763.44536	0.06306
3762.15959	0.06243
3760.87382	0.06164
3759.58805	0.06085
3758.30228	0.06009
3757.01651	0.05941
3755.73074	0.05893
3754.44497	0.05869
3753.15921	0.05871
3751.87344	0.05890
3750.58767	0.05904
3749.30190	0.05902
3748.01613	0.05888
3746.73036	0.05860
3745.44459	0.05824
3744.15882	0.05795
3742.87305	0.05772
3741.58729	0.05738
3740.30152	0.05694
3739.01575	0.05664
3737.72998	0.05668
3736.44421	0.05702
3735.15844	0.05753
3733.87267	0.05804
3732.58690	0.05869
3731.30114	0.05961
3730.01537	0.06054
3728.72960	0.06104
3727.44383	0.06103
3726.15806	0.06088
3724.87229	0.06090
3723.58652	0.06100
3722.30075	0.06103
3721.01498	0.06081
3719.72922	0.06024
3718.44345	0.05943
3717.15768	0.05870
3715.87191	0.05839
3714.58614	0.05857
3713.30037	0.05901
3712.01460	0.05930
3710.72883	0.05910
3709.44307	0.05854
3708.15730	0.05829
3706.87153	0.05875
3705.58576	0.05960
3704.29999	0.06004
3703.01422	0.05959
3701.72845	0.05845
3700.44268	0.05715
3699.15691	0.05618
3697.87115	0.05579
3696.58538	0.05604
3695.29961	0.05673
3694.01384	0.05755
3692.72807	0.05841
3691.44230	0.05934
3690.15653	0.06016
3688.87076	0.06058
3687.58500	0.06027
3686.29923	0.05913
3685.01346	0.05767
3683.72769	0.05658
3682.44192	0.05614
3681.15615	0.05607
3679.87038	0.05598
3678.58461	0.05594
3677.29884	0.05641
3676.01308	0.05760
3674.72731	0.05912
3673.44154	0.06033
3672.15577	0.06098
3670.87000	0.06137
3669.58423	0.06167
3668.29846	0.06158
3667.01269	0.06083
3665.72693	0.05974
3664.44116	0.05879
3663.15539	0.05823
3661.86962	0.05805
3660.58385	0.05813
3659.29808	0.05820
3658.01231	0.05809
3656.72654	0.05792
3655.44077	0.05805
3654.15501	0.05845
3652.86924	0.05869
3651.58347	0.05852
3650.29770	0.05830
3649.01193	0.05846
3647.72616	0.05890
3646.44039	0.05911
3645.15462	0.05892
3643.86886	0.05883
3642.58309	0.05936
3641.29732	0.06045
3640.01155	0.06141
3638.72578	0.06145
3637.44001	0.06046
3636.15424	0.05912
3634.86847	0.05846
3633.58270	0.05895
3632.29694	0.06003
3631.01117	0.06081
3629.72540	0.06114
3628.43963	0.06158
3627.15386	0.06240
3625.86809	0.06311
3624.58232	0.06320
3623.29655	0.06279
3622.01079	0.06255
3620.72502	0.06299
3619.43925	0.06410
3618.15348	0.06547
3616.86771	0.06666
3615.58194	0.06729
3614.29617	0.06718
3613.01040	0.06641
3611.72463	0.06541
3610.43887	0.06468
3609.15310	0.06432
3607.86733	0.06392
3606.58156	0.06312
3605.29579	0.06222
3604.01002	0.06191
3602.72425	0.06257
3601.43848	0.06386
3600.15272	0.06513
3598.86695	0.06589
3597.58118	0.06606
3596.29541	0.06603
3595.00964	0.06628
3593.72387	0.06702
3592.43810	0.06793
3591.15233	0.06832
3589.86656	0.06787
3588.58080	0.06699
3587.29503	0.06625
3586.00926	0.06598
3584.72349	0.06610
3583.43772	0.06639
3582.15195	0.06647
3580.86618	0.06610
3579.58041	0.06540
3578.29464	0.06486
3577.00888	0.06494
3575.72311	0.06574
3574.43734	0.06704
3573.15157	0.06856
3571.86580	0.06999
3570.58003	0.07098
3569.29426	0.07124
3568.00849	0.07092
3566.72273	0.07057
3565.43696	0.07065
3564.15119	0.07111
3562.86542	0.07154
3561.57965	0.07156
3560.29388	0.07109
3559.00811	0.07032
3557.72234	0.06968
3556.43657	0.06957
3555.15081	0.07019
3553.86504	0.07126
3552.57927	0.07220
3551.29350	0.07270
3550.00773	0.07293
3548.72196	0.07327
3547.43619	0.07385
3546.15042	0.07443
3544.86466	0.07474
3543.57889	0.07475
3542.29312	0.07462
3541.00735	0.07449
3539.72158	0.07447
3538.43581	0.07469
3537.15004	0.07512
3535.86427	0.07557
3534.57850	0.07586
3533.29274	0.07600
3532.00697	0.07613
3530.72120	0.07630
3529.43543	0.07647
3528.14966	0.07668
3526.86389	0.07704
3525.57812	0.07744
3524.29235	0.07749
3523.00659	0.07692
3521.72082	0.07604
3520.43505	0.07561
3519.14928	0.07616
3517.86351	0.07746
3516.57774	0.07873
3515.29197	0.07928
3514.00620	0.07909
3512.72043	0.07858
3511.43467	0.07822
3510.14890	0.07808
3508.86313	0.07800
3507.57736	0.07782
3506.29159	0.07749
3505.00582	0.07709
3503.72005	0.07680
3502.43428	0.07694
3501.14852	0.07775
3499.86275	0.07896
3498.57698	0.07989
3497.29121	0.08006
3496.00544	0.07965
3494.71967	0.07922
3493.43390	0.07914
3492.14813	0.07946
3490.86236	0.08002
3489.57660	0.08069
3488.29083	0.08131
3487.00506	0.08169
3485.71929	0.08171
3484.43352	0.08142
3483.14775	0.08091
3481.86198	0.08033
3480.57621	0.07993
3479.29045	0.07996
3478.00468	0.08050
3476.71891	0.08134
3475.43314	0.08211
3474.14737	0.08246
3472.86160	0.08225
3471.57583	0.08163
3470.29006	0.08114
3469.00429	0.08128
3467.71853	0.08213
3466.43276	0.08323
3465.14699	0.08399
3463.86122	0.08421
3462.57545	0.08408
3461.28968	0.08390
3460.00391	0.08380
3458.71814	0.08378
3457.43238	0.08380
3456.14661	0.08389
3454.86084	0.08406
3453.57507	0.08421
3452.28930	0.08424
3451.00353	0.08416
3449.71776	0.08420
3448.43199	0.08448
3447.14622	0.08482
3445.86046	0.08493
3444.57469	0.08486
3443.28892	0.08504
3442.00315	0.08576
3440.71738	0.08682
3439.43161	0.08769
3438.14584	0.08805
3436.86007	0.08795
3435.57431	0.08769
3434.28854	0.08751
3433.00277	0.08741
3431.71700	0.08723
3430.43123	0.08696
3429.14546	0.08671
3427.85969	0.08654
3426.57392	0.08632
3425.28815	0.08594
3424.00239	0.08555
3422.71662	0.08554
3421.43085	0.08607
3420.14508	0.08693
3418.85931	0.08770
3417.57354	0.08803
3416.28777	0.08781
3415.00200	0.08726
3413.71624	0.08673
3412.43047	0.08653
3411.14470	0.08674
3409.85893	0.08726
3408.57316	0.08797
3407.28739	0.08878
3406.00162	0.08960
3404.71585	0.09019
3403.43008	0.09031
3402.14432	0.08992
3400.85855	0.08933
3399.57278	0.08892
3398.28701	0.08896
3397.00124	0.08930
3395.71547	0.08958
3394.42970	0.08954
3393.14393	0.08930
3391.85817	0.08933
3390.57240	0.08994
3389.28663	0.09096
3388.00086	0.09177
3386.71509	0.09188
3385.42932	0.09139
3384.14355	0.09089
3382.85778	0.09089
3381.57201	0.09131
3380.28625	0.09167
3379.00048	0.09162
3377.71471	0.09122
3376.42894	0.09076
3375.14317	0.09043
3373.85740	0.09023
3372.57163	0.09011
3371.28586	0.09000
3370.00010	0.08988
3368.71433	0.08987
3367.42856	0.09019
3366.14279	0.09100
3364.85702	0.09217
3363.57125	0.09329
3362.28548	0.09392
3360.99971	0.09391
3359.71394	0.09347
3358.42818	0.09289
3357.14241	0.09228
3355.85664	0.09160
3354.57087	0.09083
3353.28510	0.09025
3351.99933	0.09024
3350.71356	0.09091
3349.42779	0.09196
3348.14202	0.09281
3346.85626	0.09307
3345.57049	0.09274
3344.28472	0.09222
3342.99895	0.09193
3341.71318	0.09214
3340.42741	0.09284
3339.14164	0.09372
3337.85587	0.09439
3336.57011	0.09465
3335.28434	0.09465
3333.99857	0.09462
3332.71280	0.09464
3331.42703	0.09457
3330.14126	0.09430
3328.85549	0.09396
3327.56972	0.09375
3326.28395	0.09377
3324.99819	0.09391
3323.71242	0.09406
3322.42665	0.09413
3321.14088	0.09406
3319.85511	0.09385
3318.56934	0.09357
3317.28357	0.09339
3315.99780	0.09341
3314.71204	0.09359
3313.42627	0.09374
3312.14050	0.09365
3310.85473	0.09335
3309.56896	0.09316
3308.28319	0.09340
3306.99742	0.09400
3305.71165	0.09456
3304.42588	0.09469
3303.14012	0.09433
3301.85435	0.09369
3300.56858	0.09301
3299.28281	0.09255
3297.99704	0.09249
3296.71127	0.09276
3295.42550	0.09304
3294.13973	0.09311
3292.85397	0.09304
3291.56820	0.09310
3290.28243	0.09345
3288.99666	0.09399
3287.71089	0.09447
3286.42512	0.09464
3285.13935	0.09442
3283.85358	0.09396
3282.56781	0.09357
3281.28205	0.09347
3279.99628	0.09360
3278.71051	0.09375
3277.42474	0.09374
3276.13897	0.09351
3274.85320	0.09313
3273.56743	0.09277
3272.28166	0.09257
3270.99590	0.09262
3269.71013	0.09284
3268.42436	0.09306
3267.13859	0.09314
3265.85282	0.09307
3264.56705	0.09287
3263.28128	0.09260
3261.99551	0.09225
3260.70974	0.09184
3259.42398	0.09147
3258.13821	0.09131
3256.85244	0.09148
3255.56667	0.09196
3254.28090	0.09252
3252.99513	0.09283
3251.70936	0.09274
3250.42359	0.09230
3249.13783	0.09166
3247.85206	0.09094
3246.56629	0.09028
3245.28052	0.08986
3243.99475	0.08975
3242.70898	0.08987
3241.42321	0.09003
3240.13744	0.09015
3238.85167	0.09020
3237.56591	0.09013
3236.28014	0.08985
3234.99437	0.08939
3233.70860	0.08890
3232.42283	0.08856
3231.13706	0.08839
3229.85129	0.08828
3228.56552	0.08806
3227.27976	0.08770
3225.99399	0.08733
3224.70822	0.08718
3223.42245	0.08738
3222.13668	0.08787
3220.85091	0.08839
3219.56514	0.08859
3218.27937	0.08823
3216.99360	0.08743
3215.70784	0.08672
3214.42207	0.08660
3213.13630	0.08703
3211.85053	0.08752
3210.56476	0.08760
3209.27899	0.08723
3207.99322	0.08673
3206.70745	0.08630
3205.42169	0.08595
3204.13592	0.08566
3202.85015	0.08548
3201.56438	0.08550
3200.27861	0.08561
3198.99284	0.08559
3197.70707	0.08536
3196.42130	0.08507
3195.13553	0.08495
3193.84977	0.08506
3192.56400	0.08526
3191.27823	0.08544
3189.99246	0.08556
3188.70669	0.08563
3187.42092	0.08563
3186.13515	0.08553
3184.84938	0.08530
3183.56362	0.08495
3182.27785	0.08455
3180.99208	0.08424
3179.70631	0.08420
3178.42054	0.08439
3177.13477	0.08458
3175.84900	0.08451
3174.56323	0.08408
3173.27746	0.08344
3171.99170	0.08286
3170.70593	0.08252
3169.42016	0.08248
3168.13439	0.08266
3166.84862	0.08289
3165.56285	0.08300
3164.27708	0.08285
3162.99131	0.08247
3161.70555	0.08203
3160.41978	0.08172
3159.13401	0.08158
3157.84824	0.08153
3156.56247	0.08150
3155.27670	0.08153
3153.99093	0.08162
3152.70516	0.08161
3151.41939	0.08134
3150.13363	0.08084
3148.84786	0.08042
3147.56209	0.08030
3146.27632	0.08040
3144.99055	0.08036
3143.70478	0.07985
3142.41901	0.07889
3141.13324	0.07780
3139.84748	0.07709
3138.56171	0.07705
3137.27594	0.07760
3135.99017	0.07833
3134.70440	0.07884
3133.41863	0.07896
3132.13286	0.07880
3130.84709	0.07864
3129.56132	0.07864
3128.27556	0.07879
3126.98979	0.07886
3125.70402	0.07867
3124.41825	0.07825
3123.13248	0.07778
3121.84671	0.07738
3120.56094	0.07697
3119.27517	0.07646
3117.98940	0.07592
3116.70364	0.07554
3115.41787	0.07548
3114.13210	0.07573
3112.84633	0.07613
3111.56056	0.07650
3110.27479	0.07672
3108.98902	0.07672
3107.70325	0.07647
3106.41749	0.07601
3105.13172	0.07550
3103.84595	0.07517
3102.56018	0.07518
3101.27441	0.07546
3099.98864	0.07583
3098.70287	0.07607
3097.41710	0.07603
3096.13133	0.07576
3094.84557	0.07544
3093.55980	0.07527
3092.27403	0.07527
3090.98826	0.07532
3089.70249	0.07528
3088.41672	0.07512
3087.13095	0.07500
3085.84518	0.07506
3084.55942	0.07535
3083.27365	0.07573
3081.98788	0.07602
3080.70211	0.07614
3079.41634	0.07618
3078.13057	0.07626
3076.84480	0.07643
3075.55903	0.07658
3074.27326	0.07648
3072.98750	0.07601
3071.70173	0.07525
3070.41596	0.07453
3069.13019	0.07416
3067.84442	0.07426
3066.55865	0.07463
3065.27288	0.07500
3063.98711	0.07515
3062.70135	0.07503
3061.41558	0.07476
3060.12981	0.07448
3058.84404	0.07431
3057.55827	0.07424
3056.27250	0.07419
3054.98673	0.07412
3053.70096	0.07401
3052.41519	0.07382
3051.12943	0.07358
3049.84366	0.07336
3048.55789	0.07323
3047.27212	0.07317
3045.98635	0.07313
3044.70058	0.07308
3043.41481	0.07308
3042.12904	0.07319
3040.84328	0.07337
3039.55751	0.07351
3038.27174	0.07353
3036.98597	0.07341
3035.70020	0.07317
3034.41443	0.07286
3033.12866	0.07253
3031.84289	0.07222
3030.55712	0.07195
3029.27136	0.07166
3027.98559	0.07127
3026.69982	0.07084
3025.41405	0.07048
3024.12828	0.07029
3022.84251	0.07023
3021.55674	0.07023
3020.27097	0.07019
3018.98521	0.07004
3017.69944	0.06978
3016.41367	0.06945
3015.12790	0.06919
3013.84213	0.06910
3012.55636	0.06920
3011.27059	0.06939
3009.98482	0.06955
3008.69905	0.06958
3007.41329	0.06947
3006.12752	0.06925
3004.84175	0.06893
3003.55598	0.06864
3002.27021	0.06846
3000.98444	0.06844
2999.69867	0.06849
2998.41290	0.06853
2997.12714	0.06850
2995.84137	0.06853
2994.55560	0.06871
2993.26983	0.06898
2991.98406	0.06917
2990.69829	0.06921
2989.41252	0.06920
2988.12675	0.06918
2986.84098	0.06918
2985.55522	0.06927
2984.26945	0.06957
2982.98368	0.07008
2981.69791	0.07069
2980.41214	0.07129
2979.12637	0.07174
2977.84060	0.07190
2976.55483	0.07177
2975.26907	0.07153
2973.98330	0.07149
2972.69753	0.07186
2971.41176	0.07269
2970.12599	0.07386
2968.84022	0.07518
2967.55445	0.07643
2966.26868	0.07753
2964.98291	0.07857
2963.69715	0.07960
2962.41138	0.08053
2961.12561	0.08126
2959.83984	0.08184
2958.55407	0.08243
2957.26830	0.08307
2955.98253	0.08366
2954.69676	0.08408
2953.41100	0.08432
2952.12523	0.08442
2950.83946	0.08442
2949.55369	0.08438
2948.26792	0.08440
2946.98215	0.08452
2945.69638	0.08478
2944.41061	0.08515
2943.12484	0.08556
2941.83908	0.08590
2940.55331	0.08612
2939.26754	0.08641
2937.98177	0.08701
2936.69600	0.08791
2935.41023	0.08883
2934.12446	0.08950
2932.83869	0.08994
2931.55293	0.09029
2930.26716	0.09070
2928.98139	0.09122
2927.69562	0.09189
2926.40985	0.09260
2925.12408	0.09314
2923.83831	0.09330
2922.55254	0.09305
2921.26677	0.09254
2919.98101	0.09201
2918.69524	0.09160
2917.40947	0.09128
2916.12370	0.09096
2914.83793	0.09065
2913.55216	0.09044
2912.26639	0.09029
2910.98062	0.08995
2909.69486	0.08912
2908.40909	0.08786
2907.12332	0.08658
2905.83755	0.08576
2904.55178	0.08544
2903.26601	0.08523
2901.98024	0.08473
2900.69447	0.08394
2899.40870	0.08316
2898.12294	0.08264
2896.83717	0.08233
2895.55140	0.08206
2894.26563	0.08179
2892.97986	0.08150
2891.69409	0.08118
2890.40832	0.08074
2889.12255	0.08015
2887.83678	0.07949
2886.55102	0.07886
2885.26525	0.07839
2883.97948	0.07814
2882.69371	0.07807
2881.40794	0.07803
2880.12217	0.07788
2878.83640	0.07759
2877.55063	0.07734
2876.26487	0.07732
2874.97910	0.07762
2873.69333	0.07818
2872.40756	0.07882
2871.12179	0.07935
2869.83602	0.07961
2868.55025	0.07961
2867.26448	0.07950
2865.97871	0.07948
2864.69295	0.07959
2863.40718	0.07967
2862.12141	0.07956
2860.83564	0.07930
2859.54987	0.07905
2858.26410	0.07889
2856.97833	0.07875
2855.69256	0.07857
2854.40680	0.07837
2853.12103	0.07825
2851.83526	0.07819
2850.54949	0.07805
2849.26372	0.07774
2847.97795	0.07725
2846.69218	0.07665
2845.40641	0.07602
2844.12064	0.07543
2842.83488	0.07487
2841.54911	0.07422
2840.26334	0.07333
2838.97757	0.07226
2837.69180	0.07127
2836.40603	0.07058
2835.12026	0.07010
2833.83449	0.06963
2832.54873	0.06904
2831.26296	0.06843
2829.97719	0.06789
2828.69142	0.06742
2827.40565	0.06700
2826.11988	0.06669
2824.83411	0.06645
2823.54834	0.06615
2822.26257	0.06570
2820.97681	0.06516
2819.69104	0.06469
2818.40527	0.06430
2817.11950	0.06391
2815.83373	0.06350
2814.54796	0.06320
2813.26219	0.06310
2811.97642	0.06317
2810.69066	0.06329
2809.40489	0.06331
2808.11912	0.06314
2806.83335	0.06287
2805.54758	0.06268
2804.26181	0.06267
2802.97604	0.06271
2801.69027	0.06259
2800.40450	0.06227
2799.11874	0.06189
2797.83297	0.06162
2796.54720	0.06142
2795.26143	0.06122
2793.97566	0.06102
2792.68989	0.06086
2791.40412	0.06073
2790.11835	0.06051
2788.83259	0.06020
2787.54682	0.05992
2786.26105	0.05986
2784.97528	0.06003
2783.68951	0.06030
2782.40374	0.06047
2781.11797	0.06043
2779.83220	0.06016
2778.54643	0.05971
2777.26067	0.05922
2775.97490	0.05886
2774.68913	0.05877
2773.40336	0.05890
2772.11759	0.05912
2770.83182	0.05929
2769.54605	0.05930
2768.26028	0.05916
2766.97452	0.05894
2765.68875	0.05871
2764.40298	0.05848
2763.11721	0.05827
2761.83144	0.05808
2760.54567	0.05797
2759.25990	0.05793
2757.97413	0.05792
2756.68836	0.05793
2755.40260	0.05794
2754.11683	0.05793
2752.83106	0.05785
2751.54529	0.05770
2750.25952	0.05757
2748.97375	0.05760
2747.68798	0.05779
2746.40221	0.05798
2745.11645	0.05801
2743.83068	0.05786
2742.54491	0.05763
2741.25914	0.05743
2739.97337	0.05736
2738.68760	0.05739
2737.40183	0.05744
2736.11606	0.05741
2734.83029	0.05727
2733.54453	0.05704
2732.25876	0.05675
2730.97299	0.05648
2729.68722	0.05638
2728.40145	0.05653
2727.11568	0.05682
2725.82991	0.05695
2724.54414	0.05676
2723.25838	0.05632
2721.97261	0.05589
2720.68684	0.05569
2719.40107	0.05576
2718.11530	0.05591
2716.82953	0.05589
2715.54376	0.05560
2714.25799	0.05525
2712.97222	0.05507
2711.68646	0.05510
2710.40069	0.05522
2709.11492	0.05526
2707.82915	0.05516
2706.54338	0.05489
2705.25761	0.05449
2703.97184	0.05406
2702.68607	0.05376
2701.40031	0.05363
2700.11454	0.05365
2698.82877	0.05375
2697.54300	0.05388
2696.25723	0.05399
2694.97146	0.05406
2693.68569	0.05409
2692.39992	0.05407
2691.11415	0.05401
2689.82839	0.05390
2688.54262	0.05374
2687.25685	0.05351
2685.97108	0.05326
2684.68531	0.05306
2683.39954	0.05301
2682.11377	0.05312
2680.82800	0.05330
2679.54224	0.05342
2678.25647	0.05341
2676.97070	0.05332
2675.68493	0.05320
2674.39916	0.05306
2673.11339	0.05288
2671.82762	0.05273
2670.54185	0.05272
2669.25608	0.05283
2667.97032	0.05295
2666.68455	0.05298
2665.39878	0.05296
2664.11301	0.05294
2662.82724	0.05299
2661.54147	0.05307
2660.25570	0.05305
2658.96993	0.05280
2657.68417	0.05237
2656.39840	0.05198
2655.11263	0.05177
2653.82686	0.05164
2652.54109	0.05137
2651.25532	0.05093
2649.96955	0.05051
2648.68378	0.05033
2647.39801	0.05035
2646.11225	0.05045
2644.82648	0.05056
2643.54071	0.05067
2642.25494	0.05071
2640.96917	0.05057
2639.68340	0.05021
2638.39763	0.04976
2637.11186	0.04940
2635.82609	0.04919
2634.54033	0.04906
2633.25456	0.04885
2631.96879	0.04854
2630.68302	0.04823
2629.39725	0.04802
2628.11148	0.04789
2626.82571	0.04777
2625.53994	0.04766
2624.25418	0.04768
2622.96841	0.04794
2621.68264	0.04830
2620.39687	0.04845
2619.11110	0.04818
2617.82533	0.04762
2616.53956	0.04705
2615.25379	0.04660
2613.96802	0.04624
2612.68226	0.04602
2611.39649	0.04607
2610.11072	0.04631
2608.82495	0.04641
2607.53918	0.04615
2606.25341	0.04557
2604.96764	0.04487
2603.68187	0.04426
2602.39611	0.04395
2601.11034	0.04407
2599.82457	0.04456
2598.53880	0.04511
2597.25303	0.04545
2595.96726	0.04545
2594.68149	0.04524
2593.39572	0.04496
2592.10995	0.04471
2590.82419	0.04451
2589.53842	0.04443
2588.25265	0.04452
2586.96688	0.04465
2585.68111	0.04458
2584.39534	0.04420
2583.10957	0.04377
2581.82380	0.04361
2580.53804	0.04372
2579.25227	0.04377
2577.96650	0.04346
2576.68073	0.04292
2575.39496	0.04254
2574.10919	0.04255
2572.82342	0.04274
2571.53765	0.04270
2570.25188	0.04224
2568.96612	0.04161
2567.68035	0.04127
2566.39458	0.04151
2565.10881	0.04226
2563.82304	0.04309
2562.53727	0.04348
2561.25150	0.04312
2559.96573	0.04218
2558.67997	0.04114
2557.39420	0.04056
2556.10843	0.04069
2554.82266	0.04135
2553.53689	0.04209
2552.25112	0.04253
2550.96535	0.04268
2549.67958	0.04278
2548.39381	0.04293
2547.10805	0.04303
2545.82228	0.04295
2544.53651	0.04263
2543.25074	0.04218
2541.96497	0.04175
2540.67920	0.04150
2539.39343	0.04149
2538.10766	0.04161
2536.82190	0.04162
2535.53613	0.04133
2534.25036	0.04083
2532.96459	0.04038
2531.67882	0.04024
2530.39305	0.04049
2529.10728	0.04097
2527.82151	0.04144
2526.53574	0.04170
2525.24998	0.04167
2523.96421	0.04139
2522.67844	0.04098
2521.39267	0.04063
2520.10690	0.04058
2518.82113	0.04087
2517.53536	0.04123
2516.24959	0.04127
2514.96383	0.04084
2513.67806	0.04012
2512.39229	0.03943
2511.10652	0.03901
2509.82075	0.03895
2508.53498	0.03921
2507.24921	0.03965
2505.96344	0.04004
2504.67767	0.04031
2503.39191	0.04051
2502.10614	0.04073
2500.82037	0.04091
2499.53460	0.04082
2498.24883	0.04032
2496.96306	0.03960
2495.67729	0.03905
2494.39152	0.03888
2493.10576	0.03901
2491.81999	0.03930
2490.53422	0.03970
2489.24845	0.04015
2487.96268	0.04051
2486.67691	0.04058
2485.39114	0.04036
2484.10537	0.04007
2482.81960	0.03990
2481.53384	0.03988
2480.24807	0.03985
2478.96230	0.03969
2477.67653	0.03945
2476.39076	0.03923
2475.10499	0.03910
2473.81922	0.03905
2472.53345	0.03907
2471.24769	0.03903
2469.96192	0.03878
2468.67615	0.03833
2467.39038	0.03788
2466.10461	0.03772
2464.81884	0.03792
2463.53307	0.03837
2462.24730	0.03881
2460.96153	0.03904
2459.67577	0.03900
2458.39000	0.03874
2457.10423	0.03842
2455.81846	0.03822
2454.53269	0.03824
2453.24692	0.03838
2451.96115	0.03837
2450.67538	0.03814
2449.38962	0.03793
2448.10385	0.03797
2446.81808	0.03816
2445.53231	0.03822
2444.24654	0.03799
2442.96077	0.03763
2441.67500	0.03738
2440.38923	0.03737
2439.10346	0.03753
2437.81770	0.03768
2436.53193	0.03769
2435.24616	0.03756
2433.96039	0.03734
2432.67462	0.03710
2431.38885	0.03696
2430.10308	0.03704
2428.81731	0.03725
2427.53155	0.03735
2426.24578	0.03723
2424.96001	0.03713
2423.67424	0.03737
2422.38847	0.03795
2421.10270	0.03850
2419.81693	0.03867
2418.53116	0.03840
2417.24539	0.03798
2415.95963	0.03771
2414.67386	0.03772
2413.38809	0.03785
2412.10232	0.03790
2410.81655	0.03776
2409.53078	0.03748
2408.24501	0.03714
2406.95924	0.03687
2405.67347	0.03674
2404.38771	0.03683
2403.10194	0.03713
2401.81617	0.03756
2400.53040	0.03799
2399.24463	0.03825
2397.95886	0.03827
2396.67309	0.03805
2395.38732	0.03769
2394.10156	0.03736
2392.81579	0.03713
2391.53002	0.03699
2390.24425	0.03691
2388.95848	0.03691
2387.67271	0.03701
2386.38694	0.03717
2385.10117	0.03732
2383.81540	0.03745
2382.52964	0.03758
2381.24387	0.03774
2379.95810	0.03775
2378.67233	0.03751
2377.38656	0.03711
2376.10079	0.03655
2374.81502	0.03599
2373.52925	0.03571
2372.24349	0.03564
2370.95772	0.03608
2369.67195	0.03642
2368.38618	0.03661
2367.10041	0.03702
2365.81464	0.03761
2364.52887	0.03750
2363.24310	0.03719
2361.95733	0.03725
2360.67157	0.03764
2359.38580	0.03737
2358.10003	0.03697
2356.81426	0.03673
2355.52849	0.03665
2354.24272	0.03691
2352.95695	0.03702
2351.67118	0.03742
2350.38542	0.03849
2349.09965	0.03905
2347.81388	0.03815
2346.52811	0.03707
2345.24234	0.03672
2343.95657	0.03699
2342.67080	0.03674
2341.38503	0.03637
2340.09926	0.03621
2338.81350	0.03589
2337.52773	0.03595
2336.24196	0.03592
2334.95619	0.03590
2333.67042	0.03657
2332.38465	0.03654
2331.09888	0.03656
2329.81311	0.03692
2328.52735	0.03642
2327.24158	0.03672
2325.95581	0.03757
2324.67004	0.03756
2323.38427	0.03771
2322.09850	0.03806
2320.81273	0.03729
2319.52696	0.03711
2318.24119	0.03735
2316.95543	0.03706
2315.66966	0.03707
2314.38389	0.03700
2313.09812	0.03669
2311.81235	0.03669
2310.52658	0.03636
2309.24081	0.03601
2307.95504	0.03576
2306.66928	0.03532
2305.38351	0.03524
2304.09774	0.03534
2302.81197	0.03541
2301.52620	0.03546
2300.24043	0.03532
2298.95466	0.03518
2297.66889	0.03500
2296.38312	0.03479
2295.09736	0.03453
2293.81159	0.03419
2292.52582	0.03389
2291.24005	0.03370
2289.95428	0.03376
2288.66851	0.03396
2287.38274	0.03412
2286.09697	0.03404
2284.81121	0.03372
2283.52544	0.03331
2282.23967	0.03301
2280.95390	0.03291
2279.66813	0.03284
2278.38236	0.03246
2277.09659	0.03158
2275.81082	0.03040
2274.52505	0.02938
2273.23929	0.02891
2271.95352	0.02894
2270.66775	0.02914
2269.38198	0.02926
2268.09621	0.02936
2266.81044	0.02971
2265.52467	0.03035
2264.23890	0.03101
2262.95314	0.03134
2261.66737	0.03123
2260.38160	0.03085
2259.09583	0.03041
2257.81006	0.02990
2256.52429	0.02918
2255.23852	0.02832
2253.95275	0.02771
2252.66698	0.02755
2251.38122	0.02760
2250.09545	0.02748
2248.80968	0.02706
2247.52391	0.02656
2246.23814	0.02621
2244.95237	0.02596
2243.66660	0.02581
2242.38083	0.02589
2241.09507	0.02625
2239.80930	0.02668
2238.52353	0.02687
2237.23776	0.02678
2235.95199	0.02659
2234.66622	0.02644
2233.38045	0.02636
2232.09468	0.02641
2230.80891	0.02668
2229.52315	0.02700
2228.23738	0.02705
2226.95161	0.02666
2225.66584	0.02604
2224.38007	0.02558
2223.09430	0.02544
2221.80853	0.02555
2220.52276	0.02558
2219.23700	0.02512
2217.95123	0.02395
2216.66546	0.02251
2215.37969	0.02170
2214.09392	0.02202
2212.80815	0.02300
2211.52238	0.02371
2210.23661	0.02361
2208.95084	0.02286
2207.66508	0.02204
2206.37931	0.02162
2205.09354	0.02170
2203.80777	0.02199
2202.52200	0.02219
2201.23623	0.02233
2199.95046	0.02259
2198.66469	0.02299
2197.37893	0.02323
2196.09316	0.02290
2194.80739	0.02179
2193.52162	0.02018
2192.23585	0.01894
2190.95008	0.01894
2189.66431	0.02019
2188.37854	0.02181
2187.09277	0.02280
2185.80701	0.02269
2184.52124	0.02159
2183.23547	0.02004
2181.94970	0.01885
2180.66393	0.01861
2179.37816	0.01917
2178.09239	0.01979
2176.80662	0.01992
2175.52085	0.01971
2174.23509	0.01986
2172.94932	0.02081
2171.66355	0.02209
2170.37778	0.02249
2169.09201	0.02128
2167.80624	0.01901
2166.52047	0.01717
2165.23470	0.01677
2163.94894	0.01750
2162.66317	0.01823
2161.37740	0.01811
2160.09163	0.01722
2158.80586	0.01629
2157.52009	0.01594
2156.23432	0.01618
2154.94855	0.01665
2153.66278	0.01713
2152.37702	0.01771
2151.09125	0.01843
2149.80548	0.01900
2148.51971	0.01908
2147.23394	0.01884
2145.94817	0.01878
2144.66240	0.01917
2143.37663	0.01976
2142.09087	0.02020
2140.80510	0.02036
2139.51933	0.02024
2138.23356	0.01983
2136.94779	0.01930
2135.66202	0.01908
2134.37625	0.01955
2133.09048	0.02067
2131.80471	0.02191
2130.51895	0.02265
2129.23318	0.02261
2127.94741	0.02204
2126.66164	0.02145
2125.37587	0.02124
2124.09010	0.02143
2122.80433	0.02175
2121.51856	0.02206
2120.23280	0.02247
2118.94703	0.02314
2117.66126	0.02394
2116.37549	0.02454
2115.08972	0.02474
2113.80395	0.02466
2112.51818	0.02451
2111.23241	0.02432
2109.94664	0.02404
2108.66088	0.02360
2107.37511	0.02308
2106.08934	0.02251
2104.80357	0.02194
2103.51780	0.02149
2102.23203	0.02130
2100.94626	0.02143
2099.66049	0.02219
2098.37473	0.02270
2097.08896	0.02285
2095.80319	0.02290
2094.51742	0.02302
2093.23165	0.02319
2091.94588	0.02316
2090.66011	0.02274
2089.37434	0.02197
2088.08857	0.02124
2086.80281	0.02099
2085.51704	0.02137
2084.23127	0.02202
2082.94550	0.02240
2081.65973	0.02224
2080.37396	0.02180
2079.08819	0.02149
2077.80242	0.02146
2076.51666	0.02142
2075.23089	0.02101
2073.94512	0.02020
2072.65935	0.01939
2071.37358	0.01916
2070.08781	0.01972
2068.80204	0.02062
2067.51627	0.02111
2066.23050	0.02084
2064.94474	0.02017
2063.65897	0.01957
2062.37320	0.01917
2061.08743	0.01890
2059.80166	0.01879
2058.51589	0.01889
2057.23012	0.01903
2055.94435	0.01892
2054.65859	0.01849
2053.37282	0.01793
2052.08705	0.01750
2050.80128	0.01745
2049.51551	0.01788
2048.22974	0.01857
2046.94397	0.01895
2045.65820	0.01855
2044.37243	0.01749
2043.08667	0.01637
2041.80090	0.01584
2040.51513	0.01599
2039.22936	0.01633
2037.94359	0.01624
2036.65782	0.01553
2035.37205	0.01441
2034.08628	0.01325
2032.80052	0.01241
2031.51475	0.01217
2030.22898	0.01265
2028.94321	0.01358
2027.65744	0.01449
2026.37167	0.01504
2025.08590	0.01513
2023.80013	0.01486
2022.51436	0.01438
2021.22860	0.01388
2019.94283	0.01350
2018.65706	0.01338
2017.37129	0.01368
2016.08552	0.01440
2014.79975	0.01525
2013.51398	0.01572
2012.22821	0.01544
2010.94245	0.01457
2009.65668	0.01374
2008.37091	0.01365
2007.08514	0.01441
2005.79937	0.01547
2004.51360	0.01605
2003.22783	0.01573
2001.94206	0.01477
2000.65629	0.01373
1999.37053	0.01305
1998.08476	0.01287
1996.79899	0.01311
1995.51322	0.01369
1994.22745	0.01437
1992.94168	0.01484
1991.65591	0.01489
1990.37014	0.01468
1989.08438	0.01457
1987.79861	0.01482
1986.51284	0.01543
1985.22707	0.01617
1983.94130	0.01677
1982.65553	0.01698
1981.36976	0.01677
1980.08399	0.01636
1978.79822	0.01610
1977.51246	0.01609
1976.22669	0.01622
1974.94092	0.01632
1973.65515	0.01633
1972.36938	0.01631
1971.08361	0.01647
1969.79784	0.01690
1968.51207	0.01748
1967.22631	0.01792
1965.94054	0.01813
1964.65477	0.01823
1963.36900	0.01838
1962.08323	0.01870
1960.79746	0.01934
1959.51169	0.02038
1958.22592	0.02156
1956.94015	0.02226
1955.65439	0.02211
1954.36862	0.02131
1953.08285	0.02046
1951.79708	0.01997
1950.51131	0.01981
1949.22554	0.01972
1947.93977	0.01958
1946.65400	0.01943
1945.36823	0.01927
1944.08247	0.01907
1942.79670	0.01884
1941.51093	0.01869
1940.22516	0.01869
1938.93939	0.01879
1937.65362	0.01882
1936.36785	0.01877
1935.08208	0.01888
1933.79632	0.01943
1932.51055	0.02028
1931.22478	0.02097
1929.93901	0.02115
1928.65324	0.02091
1927.36747	0.02057
1926.08170	0.02036
1924.79593	0.02030
1923.51016	0.02040
1922.22440	0.02068
1920.93863	0.02111
1919.65286	0.02154
1918.36709	0.02178
1917.08132	0.02170
1915.79555	0.02141
1914.50978	0.02113
1913.22401	0.02107
1911.93825	0.02125
1910.65248	0.02151
1909.36671	0.02163
1908.08094	0.02152
1906.79517	0.02128
1905.50940	0.02109
1904.22363	0.02108
1902.93786	0.02119
1901.65209	0.02132
1900.36633	0.02146
1899.08056	0.02157
1897.79479	0.02158
1896.50902	0.02143
1895.22325	0.02120
1893.93748	0.02113
1892.65171	0.02136
1891.36594	0.02178
1890.08018	0.02215
1888.79441	0.02230
1887.50864	0.02226
1886.22287	0.02212
1884.93710	0.02193
1883.65133	0.02173
1882.36556	0.02158
1881.07979	0.02149
1879.79402	0.02145
1878.50826	0.02148
1877.22249	0.02158
1875.93672	0.02177
1874.65095	0.02201
1873.36518	0.02227
1872.07941	0.02244
1870.79364	0.02246
1869.50787	0.02233
1868.22211	0.02216
1866.93634	0.02209
1865.65057	0.02215
1864.36480	0.02227
1863.07903	0.02236
1861.79326	0.02235
1860.50749	0.02229
1859.22172	0.02226
1857.93595	0.02230
1856.65019	0.02234
1855.36442	0.02233
1854.07865	0.02232
1852.79288	0.02234
1851.50711	0.02236
1850.22134	0.02226
1848.93557	0.02208
1847.64980	0.02200
1846.36404	0.02206
1845.07827	0.02216
1843.79250	0.02218
1842.50673	0.02214
1841.22096	0.02216
1839.93519	0.02229
1838.64942	0.02247
1837.36365	0.02258
1836.07788	0.02256
1834.79212	0.02246
1833.50635	0.02236
1832.22058	0.02230
1830.93481	0.02228
1829.64904	0.02225
1828.36327	0.02219
1827.07750	0.02216
1825.79173	0.02223
1824.50597	0.02245
1823.22020	0.02275
1821.93443	0.02302
1820.64866	0.02316
1819.36289	0.02311
1818.07712	0.02283
1816.79135	0.02238
1815.50558	0.02197
1814.21981	0.02175
1812.93405	0.02177
1811.64828	0.02191
1810.36251	0.02208
1809.07674	0.02218
1807.79097	0.02215
1806.50520	0.02204
1805.21943	0.02193
1803.93366	0.02194
1802.64790	0.02204
1801.36213	0.02212
1800.07636	0.02212
1798.79059	0.02208
1797.50482	0.02207
1796.21905	0.02211
1794.93328	0.02218
1793.64751	0.02221
1792.36174	0.02223
1791.07598	0.02227
1789.79021	0.02237
1788.50444	0.02250
1787.21867	0.02261
1785.93290	0.02266
1784.64713	0.02265
1783.36136	0.02262
1782.07559	0.02260
1780.78983	0.02259
1779.50406	0.02258
1778.21829	0.02255
1776.93252	0.02250
1775.64675	0.02249
1774.36098	0.02251
1773.07521	0.02254
1771.78944	0.02255
1770.50367	0.02253
1769.21791	0.02249
1767.93214	0.02248
1766.64637	0.02252
1765.36060	0.02253
1764.07483	0.02247
1762.78906	0.02242
1761.50329	0.02249
1760.21752	0.02267
1758.93176	0.02282
1757.64599	0.02285
1756.36022	0.02280
1755.07445	0.02276
1753.78868	0.02276
1752.50291	0.02277
1751.21714	0.02279
1749.93137	0.02280
1748.64560	0.02277
1747.35984	0.02270
1746.07407	0.02261
1744.78830	0.02254
1743.50253	0.02249
1742.21676	0.02249
1740.93099	0.02256
1739.64522	0.02271
1738.35945	0.02295
1737.07369	0.02317
1735.78792	0.02333
1734.50215	0.02345
1733.21638	0.02359
1731.93061	0.02371
1730.64484	0.02372
1729.35907	0.02365
1728.07330	0.02360
1726.78753	0.02362
1725.50177	0.02368
1724.21600	0.02377
1722.93023	0.02390
1721.64446	0.02410
1720.35869	0.02433
1719.07292	0.02459
1717.78715	0.02488
1716.50138	0.02521
1715.21561	0.02553
1713.92985	0.02585
1712.64408	0.02624
1711.35831	0.02673
1710.07254	0.02729
1708.78677	0.02789
1707.50100	0.02849
1706.21523	0.02911
1704.92946	0.02982
1703.64370	0.03060
1702.35793	0.03140
1701.07216	0.03224
1699.78639	0.03316
1698.50062	0.03409
1697.21485	0.03486
1695.92908	0.03548
1694.64331	0.03613
1693.35754	0.03683
1692.07178	0.03758
1690.78601	0.03841
1689.50024	0.03938
1688.21447	0.04042
1686.92870	0.04138
1685.64293	0.04221
1684.35716	0.04299
1683.07139	0.04381
1681.78563	0.04462
1680.49986	0.04542
1679.21409	0.04626
1677.92832	0.04714
1676.64255	0.04803
1675.35678	0.04894
1674.07101	0.04988
1672.78524	0.05081
1671.49947	0.05168
1670.21371	0.05252
1668.92794	0.05339
1667.64217	0.05432
1666.35640	0.05526
1665.07063	0.05618
1663.78486	0.05707
1662.49909	0.05792
1661.21332	0.05871
1659.92756	0.05944
1658.64179	0.06015
1657.35602	0.06090
1656.07025	0.06165
1654.78448	0.06228
1653.49871	0.06283
1652.21294	0.06335
1650.92717	0.06379
1649.64140	0.06405
1648.35564	0.06414
1647.06987	0.06425
1645.78410	0.06447
1644.49833	0.06473
1643.21256	0.06488
1641.92679	0.06491
1640.64102	0.06485
1639.35525	0.06477
1638.06949	0.06464
1636.78372	0.06441
1635.49795	0.06408
1634.21218	0.06366
1632.92641	0.06316
1631.64064	0.06259
1630.35487	0.06200
1629.06910	0.06139
1627.78333	0.06076
1626.49757	0.06011
1625.21180	0.05939
1623.92603	0.05866
1622.64026	0.05798
1621.35449	0.05739
1620.06872	0.05686
1618.78295	0.05626
1617.49718	0.05556
1616.21142	0.05485
1614.92565	0.05419
1613.63988	0.05359
1612.35411	0.05303
1611.06834	0.05254
1609.78257	0.05210
1608.49680	0.05172
1607.21103	0.05141
1605.92526	0.05116
1604.63950	0.05095
1603.35373	0.05076
1602.06796	0.05057
1600.78219	0.05038
1599.49642	0.05020
1598.21065	0.05003
1596.92488	0.04991
1595.63911	0.04984
1594.35335	0.04985
1593.06758	0.04992
1591.78181	0.05003
1590.49604	0.05015
1589.21027	0.05027
1587.92450	0.05038
1586.63873	0.05051
1585.35296	0.05067
1584.06719	0.05088
1582.78143	0.05115
1581.49566	0.05146
1580.20989	0.05179
1578.92412	0.05209
1577.63835	0.05234
1576.35258	0.05263
1575.06681	0.05302
1573.78104	0.05348
1572.49528	0.05392
1571.20951	0.05435
1569.92374	0.05479
1568.63797	0.05523
1567.35220	0.05561
1566.06643	0.05593
1564.78066	0.05628
1563.49489	0.05671
1562.20912	0.05717
1560.92336	0.05757
1559.63759	0.05791
1558.35182	0.05825
1557.06605	0.05853
1555.78028	0.05867
1554.49451	0.05875
1553.20874	0.05891
1551.92297	0.05916
1550.63721	0.05940
1549.35144	0.05954
1548.06567	0.05957
1546.77990	0.05950
1545.49413	0.05941
1544.20836	0.05937
1542.92259	0.05933
1541.63682	0.05918
1540.35105	0.05889
1539.06529	0.05853
1537.77952	0.05820
1536.49375	0.05792
1535.20798	0.05768
1533.92221	0.05751
1532.63644	0.05741
1531.35067	0.05735
1530.06490	0.05729
1528.77914	0.05727
1527.49337	0.05733
1526.20760	0.05745
1524.92183	0.05755
1523.63606	0.05758
1522.35029	0.05758
1521.06452	0.05766
1519.77875	0.05787
1518.49298	0.05816
1517.20722	0.05847
1515.92145	0.05880
1514.63568	0.05913
1513.34991	0.05948
1512.06414	0.05990
1510.77837	0.06046
1509.49260	0.06110
1508.20683	0.06174
1506.92107	0.06232
1505.63530	0.06286
1504.34953	0.06335
1503.06376	0.06372
1501.77799	0.06402
1500.49222	0.06432
1499.20645	0.06465
1497.92068	0.06496
1496.63491	0.06525
1495.34915	0.06548
1494.06338	0.06566
1492.77761	0.06577
1491.49184	0.06590
1490.20607	0.06617
1488.92030	0.06661
1487.63453	0.06714
1486.34876	0.06771
1485.06299	0.06829
1483.77723	0.06896
1482.49146	0.06975
1481.20569	0.07066
1479.91992	0.07161
1478.63415	0.07256
1477.34838	0.07352
1476.06261	0.07448
1474.77684	0.07541
1473.49108	0.07624
1472.20531	0.07696
1470.91954	0.07761
1469.63377	0.07822
1468.34800	0.07881
1467.06223	0.07940
1465.77646	0.07998
1464.49069	0.08054
1463.20492	0.08106
1461.91916	0.08158
1460.63339	0.08215
1459.34762	0.08281
1458.06185	0.08355
1456.77608	0.08434
1455.49031	0.08507
1454.20454	0.08566
1452.91877	0.08612
1451.63301	0.08653
1450.34724	0.08690
1449.06147	0.08718
1447.77570	0.08738
1446.48993	0.08751
1445.20416	0.08755
1443.91839	0.08747
1442.63262	0.08728
1441.34685	0.08703
1440.06109	0.08670
1438.77532	0.08627
1437.48955	0.08579
1436.20378	0.08535
1434.91801	0.08502
1433.63224	0.08483
1432.34647	0.08483
1431.06070	0.08504
1429.77494	0.08542
1428.48917	0.08592
1427.20340	0.08652
1425.91763	0.08724
1424.63186	0.08812
1423.34609	0.08914
1422.06032	0.09024
1420.77455	0.09129
1419.48878	0.09225
1418.20302	0.09307
1416.91725	0.09373
1415.63148	0.09424
1414.34571	0.09466
1413.05994	0.09497
1411.77417	0.09516
1410.48840	0.09521
1409.20263	0.09517
1407.91687	0.09506
1406.63110	0.09483
1405.34533	0.09445
1404.05956	0.09388
1402.77379	0.09315
1401.48802	0.09229
1400.20225	0.09133
1398.91648	0.09027
1397.63071	0.08912
1396.34495	0.08787
1395.05918	0.08657
1393.77341	0.08528
1392.48764	0.08403
1391.20187	0.08280
1389.91610	0.08159
1388.63033	0.08041
1387.34456	0.07930
1386.05880	0.07824
1384.77303	0.07719
1383.48726	0.07612
1382.20149	0.07505
1380.91572	0.07402
1379.62995	0.07303
1378.34418	0.07201
1377.05841	0.07087
1375.77264	0.06957
1374.48688	0.06816
1373.20111	0.06668
1371.91534	0.06519
1370.62957	0.06366
1369.34380	0.06213
1368.05803	0.06066
1366.77226	0.05930
1365.48649	0.05808
1364.20073	0.05695
1362.91496	0.05585
1361.62919	0.05474
1360.34342	0.05364
1359.05765	0.05260
1357.77188	0.05166
1356.48611	0.05086
1355.20034	0.05016
1353.91457	0.04952
1352.62881	0.04891
1351.34304	0.04832
1350.05727	0.04777
1348.77150	0.04727
1347.48573	0.04683
1346.19996	0.04645
1344.91419	0.04613
1343.62842	0.04583
1342.34266	0.04553
1341.05689	0.04519
1339.77112	0.04482
1338.48535	0.04445
1337.19958	0.04410
1335.91381	0.04377
1334.62804	0.04345
1333.34227	0.04312
1332.05650	0.04274
1330.77074	0.04231
1329.48497	0.04187
1328.19920	0.04147
1326.91343	0.04116
1325.62766	0.04092
1324.34189	0.04072
1323.05612	0.04051
1321.77035	0.04027
1320.48459	0.04000
1319.19882	0.03974
1317.91305	0.03948
1316.62728	0.03921
1315.34151	0.03892
1314.05574	0.03863
1312.76997	0.03835
1311.48420	0.03811
1310.19843	0.03791
1308.91267	0.03773
1307.62690	0.03755
1306.34113	0.03736
1305.05536	0.03713
1303.76959	0.03689
1302.48382	0.03663
1301.19805	0.03634
1299.91228	0.03603
1298.62652	0.03573
1297.34075	0.03544
1296.05498	0.03523
1294.76921	0.03510
1293.48344	0.03505
1292.19767	0.03500
1290.91190	0.03491
1289.62613	0.03477
1288.34036	0.03460
1287.05460	0.03445
1285.76883	0.03432
1284.48306	0.03420
1283.19729	0.03409
1281.91152	0.03398
1280.62575	0.03389
1279.33998	0.03380
1278.05421	0.03370
1276.76845	0.03357
1275.48268	0.03342
1274.19691	0.03328
1272.91114	0.03316
1271.62537	0.03304
1270.33960	0.03292
1269.05383	0.03277
1267.76806	0.03262
1266.48229	0.03251
1265.19653	0.03244
1263.91076	0.03239
1262.62499	0.03231
1261.33922	0.03218
1260.05345	0.03206
1258.76768	0.03200
1257.48191	0.03202
1256.19614	0.03213
1254.91037	0.03222
1253.62461	0.03225
1252.33884	0.03219
1251.05307	0.03208
1249.76730	0.03195
1248.48153	0.03185
1247.19576	0.03176
1245.90999	0.03170
1244.62422	0.03165
1243.33846	0.03160
1242.05269	0.03155
1240.76692	0.03148
1239.48115	0.03139
1238.19538	0.03130
1236.90961	0.03119
1235.62384	0.03107
1234.33807	0.03092
1233.05230	0.03076
1231.76654	0.03056
1230.48077	0.03033
1229.19500	0.03008
1227.90923	0.02985
1226.62346	0.02963
1225.33769	0.02938
1224.05192	0.02906
1222.76615	0.02872
1221.48039	0.02840
1220.19462	0.02816
1218.90885	0.02798
1217.62308	0.02782
1216.33731	0.02767
1215.05154	0.02752
1213.76577	0.02738
1212.48000	0.02722
1211.19423	0.02707
1209.90847	0.02694
1208.62270	0.02685
1207.33693	0.02681
1206.05116	0.02681
1204.76539	0.02683
1203.47962	0.02683
1202.19385	0.02678
1200.90808	0.02665
1199.62232	0.02649
1198.33655	0.02645
1197.05078	0.02642
1195.76501	0.02631
1194.47924	0.02610
1193.19347	0.02580
1191.90770	0.02552
1190.62193	0.02530
1189.33616	0.02518
1188.05040	0.02514
1186.76463	0.02512
1185.47886	0.02506
1184.19309	0.02495
1182.90732	0.02485
1181.62155	0.02475
1180.33578	0.02464
1179.05001	0.02447
1177.76425	0.02427
1176.47848	0.02411
1175.19271	0.02405
1173.90694	0.02405
1172.62117	0.02404
1171.33540	0.02400
1170.04963	0.02394
1168.76386	0.02390
1167.47809	0.02390
1166.19233	0.02394
1164.90656	0.02400
1163.62079	0.02407
1162.33502	0.02409
1161.04925	0.02405
1159.76348	0.02396
1158.47771	0.02390
1157.19194	0.02391
1155.90618	0.02398
1154.62041	0.02407
1153.33464	0.02413
1152.04887	0.02418
1150.76310	0.02429
1149.47733	0.02448
1148.19156	0.02467
1146.90579	0.02484
1145.62002	0.02498
1144.33426	0.02518
1143.04849	0.02546
1141.76272	0.02587
1140.47695	0.02638
1139.19118	0.02697
1137.90541	0.02761
1136.61964	0.02831
1135.33387	0.02913
1134.04811	0.03010
1132.76234	0.03122
1131.47657	0.03247
1130.19080	0.03388
1128.90503	0.03548
1127.61926	0.03734
1126.33349	0.03944
1125.04772	0.04171
1123.76195	0.04410
1122.47619	0.04658
1121.19042	0.04911
1119.90465	0.05166
1118.61888	0.05423
1117.33311	0.05684
1116.04734	0.05950
1114.76157	0.06216
1113.47580	0.06476
1112.19004	0.06725
1110.90427	0.06968
1109.61850	0.07206
1108.33273	0.07437
1107.04696	0.07655
1105.76119	0.07862
1104.47542	0.08063
1103.18965	0.08259
1101.90388	0.08447
1100.61812	0.08624
1099.33235	0.08789
1098.04658	0.08940
1096.76081	0.09078
1095.47504	0.09206
1094.18927	0.09329
1092.90350	0.09446
1091.61773	0.09555
1090.33197	0.09654
1089.04620	0.09746
1087.76043	0.09836
1086.47466	0.09926
1085.18889	0.10013
1083.90312	0.10099
1082.61735	0.10189
1081.33158	0.10292
1080.04581	0.10412
1078.76005	0.10548
1077.47428	0.10694
1076.18851	0.10844
1074.90274	0.10998
1073.61697	0.11157
1072.33120	0.11327
1071.04543	0.11513
1069.75966	0.11715
1068.47390	0.11928
1067.18813	0.12144
1065.90236	0.12359
1064.61659	0.12571
1063.33082	0.12784
1062.04505	0.12995
1060.75928	0.13207
1059.47351	0.13421
1058.18774	0.13639
1056.90198	0.13860
1055.61621	0.14080
1054.33044	0.14301
1053.04467	0.14524
1051.75890	0.14747
1050.47313	0.14968
1049.18736	0.15186
1047.90159	0.15407
1046.61583	0.15637
1045.33006	0.15881
1044.04429	0.16139
1042.75852	0.16408
1041.47275	0.16683
1040.18698	0.16959
1038.90121	0.17230
1037.61544	0.17497
1036.32967	0.17763
1035.04391	0.18034
1033.75814	0.18307
1032.47237	0.18575
1031.18660	0.18829
1029.90083	0.19065
1028.61506	0.19278
1027.32929	0.19464
1026.04352	0.19621
1024.75775	0.19750
1023.47199	0.19853
1022.18622	0.19932
1020.90045	0.19988
1019.61468	0.20022
1018.32891	0.20035
1017.04314	0.20026
1015.75737	0.19991
1014.47160	0.19925
1013.18584	0.19826
1011.90007	0.19690
1010.61430	0.19519
1009.32853	0.19319
1008.04276	0.19097
1006.75699	0.18846
1005.47122	0.18558
1004.18545	0.18230
1002.89968	0.17870
1001.61392	0.17491
1000.32815	0.17100
999.04238	0.16698
997.75661	0.16288
996.47084	0.15871
995.18507	0.15451
993.89930	0.15027
992.61353	0.14599
991.32777	0.14172
990.04200	0.13758
988.75623	0.13362
987.47046	0.12983
986.18469	0.12614
984.89892	0.12255
983.61315	0.11911
982.32738	0.11585
981.04161	0.11273
979.75585	0.10969
978.47008	0.10674
977.18431	0.10399
975.89854	0.10157
974.61277	0.09950
973.32700	0.09776
972.04123	0.09626
970.75546	0.09496
969.46970	0.09393
968.18393	0.09328
966.89816	0.09305
965.61239	0.09319
964.32662	0.09362
963.04085	0.09422
961.75508	0.09482
960.46931	0.09519
959.18354	0.09511
957.89778	0.09451
956.61201	0.09346
955.32624	0.09209
954.04047	0.09048
952.75470	0.08871
951.46893	0.08689
950.18316	0.08512
948.89739	0.08340
947.61163	0.08172
946.32586	0.08008
945.04009	0.07850
943.75432	0.07701
942.46855	0.07560
941.18278	0.07426
939.89701	0.07297
938.61124	0.07174
937.32547	0.07055
936.03971	0.06940
934.75394	0.06831
933.46817	0.06729
932.18240	0.06632
930.89663	0.06538
929.61086	0.06445
928.32509	0.06355
927.03932	0.06269
925.75356	0.06188
924.46779	0.06112
923.18202	0.06039
921.89625	0.05969
920.61048	0.05902
919.32471	0.05839
918.03894	0.05781
916.75317	0.05722
915.46740	0.05661
914.18164	0.05601
912.89587	0.05546
911.61010	0.05495
910.32433	0.05442
909.03856	0.05381
907.75279	0.05314
906.46702	0.05250
905.18125	0.05197
903.89549	0.05162
902.60972	0.05138
901.32395	0.05116
900.03818	0.05087
898.75241	0.05051
897.46664	0.05011
896.18087	0.04974
894.89510	0.04939
893.60933	0.04899
892.32357	0.04853
891.03780	0.04804
889.75203	0.04761
888.46626	0.04736
887.18049	0.04743
885.89472	0.04797
884.60895	0.04908
883.32318	0.05079
882.03742	0.05290
880.75165	0.05502
879.46588	0.05674
878.18011	0.05790
876.89434	0.05877
875.60857	0.05977
874.32280	0.06103
873.03703	0.06231
871.75126	0.06316
870.46550	0.06329
869.17973	0.06270
867.89396	0.06155
866.60819	0.06003
865.32242	0.05834
864.03665	0.05665
862.75088	0.05504
861.46511	0.05353
860.17935	0.05210
858.89358	0.05080
857.60781	0.04970
856.32204	0.04882
855.03627	0.04810
853.75050	0.04745
852.46473	0.04683
851.17896	0.04627
849.89319	0.04580
848.60743	0.04542
847.32166	0.04509
846.03589	0.04481
844.75012	0.04455
843.46435	0.04427
842.17858	0.04397
840.89281	0.04367
839.60704	0.04337
838.32128	0.04307
837.03551	0.04275
835.74974	0.04239
834.46397	0.04205
833.17820	0.04179
831.89243	0.04163
830.60666	0.04153
829.32089	0.04142
828.03512	0.04125
826.74936	0.04106
825.46359	0.04091
824.17782	0.04081
822.89205	0.04072
821.60628	0.04062
820.32051	0.04055
819.03474	0.04054
817.74897	0.04056
816.46321	0.04058
815.17744	0.04058
813.89167	0.04056
812.60590	0.04052
811.32013	0.04047
810.03436	0.04040
808.74859	0.04031
807.46282	0.04022
806.17705	0.04012
804.89129	0.04005
803.60552	0.04001
802.31975	0.03998
801.03398	0.03997
799.74821	0.03995
798.46244	0.03991
797.17667	0.03987
795.89090	0.03985
794.60513	0.03982
793.31937	0.03976
792.03360	0.03966
790.74783	0.03955
789.46206	0.03945
788.17629	0.03933
786.89052	0.03920
785.60475	0.03904
784.31898	0.03887
783.03322	0.03873
781.74745	0.03863
780.46168	0.03861
779.17591	0.03863
777.89014	0.03864
776.60437	0.03863
775.31860	0.03862
774.03283	0.03864
772.74706	0.03866
771.46130	0.03863
770.17553	0.03859
768.88976	0.03857
767.60399	0.03856
766.31822	0.03853
765.03245	0.03848
763.74668	0.03847
762.46091	0.03853
761.17515	0.03867
759.88938	0.03886
758.60361	0.03902
757.31784	0.03905
756.03207	0.03894
754.74630	0.03881
753.46053	0.03878
752.17476	0.03881
750.88899	0.03877
749.60323	0.03860
748.31746	0.03840
747.03169	0.03828
745.74592	0.03824
744.46015	0.03818
743.17438	0.03797
741.88861	0.03764
740.60284	0.03736
739.31708	0.03724
738.03131	0.03726
736.74554	0.03729
735.45977	0.03727
734.17400	0.03721
732.88823	0.03714
731.60246	0.03705
730.31669	0.03696
729.03092	0.03692
727.74516	0.03695
726.45939	0.03704
725.17362	0.03716
723.88785	0.03732
722.60208	0.03750
721.31631	0.03762
720.03054	0.03766
718.74477	0.03762
717.45901	0.03746
716.17324	0.03728
714.88747	0.03716
713.60170	0.03707
712.31593	0.03698
711.03016	0.03687
709.74439	0.03678
708.45862	0.03674
707.17285	0.03675
705.88709	0.03677
704.60132	0.03677
703.31555	0.03672
702.02978	0.03664
700.74401	0.03655
699.45824	0.03651
698.17247	0.03653
696.88670	0.03657
695.60094	0.03659
694.31517	0.03657
693.02940	0.03650
691.74363	0.03642
690.45786	0.03634
689.17209	0.03629
687.88632	0.03624
686.60055	0.03617
685.31478	0.03606
684.02902	0.03593
682.74325	0.03581
681.45748	0.03568
680.17171	0.03558
678.88594	0.03550
677.60017	0.03547
676.31440	0.03547
675.02863	0.03544
673.74287	0.03539
672.45710	0.03551
671.17133	0.03608
669.88556	0.03644
668.59979	0.03515
667.31402	0.03509
666.02825	0.03666
664.74248	0.03620
663.45671	0.03538
662.17095	0.03500
660.88518	0.03480
659.59941	0.03465
658.31364	0.03457
657.02787	0.03455
655.74210	0.03453
654.45633	0.03448
653.17056	0.03438
651.88480	0.03428
650.59903	0.03423
649.31326	0.03424
648.02749	0.03429
646.74172	0.03431
645.45595	0.03426
644.17018	0.03418
642.88441	0.03411
641.59864	0.03409
640.31288	0.03410
639.02711	0.03412
637.74134	0.03415
636.45557	0.03420
635.16980	0.03424
633.88403	0.03422
632.59826	0.03413
631.31249	0.03407
630.02673	0.03432
628.74096	0.03477
627.45519	0.03437
626.16942	0.03485
624.88365	0.03603
623.59788	0.03761
622.31211	0.03985
621.02634	0.04273
619.74057	0.04578
618.45481	0.04837
617.16904	0.04996
615.88327	0.05031
614.59750	0.04978
613.31173	0.04935
612.02596	0.05019
610.74019	0.05310
609.45442	0.05800
608.16866	0.06398
606.88289	0.06987
605.59712	0.07488
604.31135	0.07860
603.02558	0.08088
601.73981	0.08178
600.45404	0.08160
599.16827	0.08071
597.88250	0.07937
596.59674	0.07770
595.31097	0.07573
594.02520	0.07366
592.73943	0.07172
591.45366	0.07014
590.16789	0.06904
588.88212	0.06845
587.59635	0.06839
586.31059	0.06881
585.02482	0.06965
583.73905	0.07078
582.45328	0.07204
581.16751	0.07333
579.88174	0.07465
578.59597	0.07608
577.31020	0.07767
576.02443	0.07943
574.73867	0.08123
573.45290	0.08299
572.16713	0.08472
570.88136	0.08658
569.59559	0.08879
568.30982	0.09149
567.02405	0.09464
565.73828	0.09796
564.45251	0.10103
563.16675	0.10347
561.88098	0.10500
560.59521	0.10550
559.30944	0.10494
558.02367	0.10334
556.73790	0.10083
555.45213	0.09756
554.16636	0.09372
552.88060	0.08956
551.59483	0.08541
550.30906	0.08160
549.02329	0.07827
547.73752	0.07540
546.45175	0.07285
545.16598	0.07055
543.88021	0.06846
542.59444	0.06655
541.30868	0.06476
540.02291	0.06308
538.73714	0.06153
537.45137	0.06012
536.16560	0.05886
534.87983	0.05773
533.59406	0.05670
532.30829	0.05574
531.02253	0.05480
529.73676	0.05391
528.45099	0.05309
527.16522	0.05235
525.87945	0.05166
524.59368	0.05099
523.30791	0.05031
522.02214	0.04961
520.73637	0.04889
519.45061	0.04812
518.16484	0.04729
516.87907	0.04647
515.59330	0.04571
514.30753	0.04504
513.02176	0.04443
511.73599	0.04389
510.45022	0.04342
509.16446	0.04301
507.87869	0.04258
506.59292	0.04207
505.30715	0.04148
504.02138	0.04094
502.73561	0.04053
501.44984	0.04028
500.16407	0.04013
498.87830	0.03997
497.59254	0.03972
496.30677	0.03934
495.02100	0.03890
493.73523	0.03848
492.44946	0.03819
491.16369	0.03802
489.87792	0.03787
488.59215	0.03765
487.30639	0.03738
486.02062	0.03716
484.73485	0.03707
483.44908	0.03705
482.16331	0.03706
480.87754	0.03706
479.59177	0.03710
478.30600	0.03723
477.02023	0.03741
475.73447	0.03755
474.44870	0.03763
473.16293	0.03766
471.87716	0.03767
470.59139	0.03769
469.30562	0.03768
468.01985	0.03764
466.73408	0.03754
465.44832	0.03738
464.16255	0.03712
462.87678	0.03676
461.59101	0.03632
460.30524	0.03583
459.01947	0.03530
457.73370	0.03479
456.44793	0.03433
455.16216	0.03392
453.87640	0.03356
452.59063	0.03321
451.30486	0.03288
450.01909	0.03256
448.73332	0.03228
447.44755	0.03201
446.16178	0.03172
444.87601	0.03138
443.59025	0.03102
442.30448	0.03068
441.01871	0.03041
439.73294	0.03024
438.44717	0.03014
437.16140	0.03007
435.87563	0.02996
434.58986	0.02979
433.30409	0.02960
432.01833	0.02942
430.73256	0.02923
429.44679	0.02903
428.16102	0.02882
426.87525	0.02863
425.58948	0.02848
424.30371	0.02836
423.01794	0.02822
421.73218	0.02799
420.44641	0.02764
419.16064	0.02722
417.87487	0.02683
416.58910	0.02651
415.30333	0.02625
414.01756	0.02605
412.73179	0.02590
411.44602	0.02575
410.16026	0.02559
408.87449	0.02541
407.58872	0.02525
406.30295	0.02511
405.01718	0.02496
403.73141	0.02480
402.44564	0.02469
401.15987	0.02469
399.87411	0.02478
