3997.45528	0.04237
3996.16951	0.04254
3994.88374	0.04235
3993.59798	0.04199
3992.31221	0.04202
3991.02644	0.04266
3989.74067	0.04347
3988.45490	0.04368
3987.16913	0.04294
3985.88336	0.04170
3984.59759	0.04069
3983.31183	0.04026
3982.02606	0.04034
3980.74029	0.04082
3979.45452	0.04166
3978.16875	0.04274
3976.88298	0.04382
3975.59721	0.04448
3974.31144	0.04424
3973.02567	0.04288
3971.73991	0.04070
3970.45414	0.03854
3969.16837	0.03726
3967.88260	0.03726
3966.59683	0.03826
3965.31106	0.03956
3964.02529	0.04048
3962.73952	0.04084
3961.45376	0.04101
3960.16799	0.04143
3958.88222	0.04208
3957.59645	0.04262
3956.31068	0.04280
3955.02491	0.04269
3953.73914	0.04245
3952.45337	0.04210
3951.16760	0.04154
3949.88184	0.04083
3948.59607	0.04017
3947.31030	0.03964
3946.02453	0.03918
3944.73876	0.03886
3943.45299	0.03907
3942.16722	0.03999
3940.88145	0.04123
3939.59569	0.04205
3938.30992	0.04210
3937.02415	0.04166
3935.73838	0.04118
3934.45261	0.04083
3933.16684	0.04060
3931.88107	0.04044
3930.59530	0.04039
3929.30953	0.04038
3928.02377	0.04030
3926.73800	0.04018
3925.45223	0.04022
3924.16646	0.04071
3922.88069	0.04165
3921.59492	0.04282
3920.30915	0.04392
3919.02338	0.04465
3917.73762	0.04482
3916.45185	0.04448
3915.16608	0.04375
3913.88031	0.04274
3912.59454	0.04152
3911.30877	0.04036
3910.02300	0.03950
3908.73723	0.03912
3907.45146	0.03917
3906.16570	0.03946
3904.87993	0.03979
3903.59416	0.04006
3902.30839	0.04030
3901.02262	0.04054
3899.73685	0.04075
3898.45108	0.04087
3897.16531	0.04079
3895.87955	0.04052
3894.59378	0.04001
3893.30801	0.03918
3892.02224	0.03814
3890.73647	0.03737
3889.45070	0.03718
3888.16493	0.03742
3886.87916	0.03785
3885.59339	0.03837
3884.30763	0.03875
3883.02186	0.03874
3881.73609	0.03846
3880.45032	0.03834
3879.16455	0.03850
3877.87878	0.03856
3876.59301	0.03843
3875.30724	0.03869
3874.02148	0.03993
3872.73571	0.04189
3871.44994	0.04358
3870.16417	0.04428
3868.87840	0.04384
3867.59263	0.04244
3866.30686	0.04068
3865.02109	0.03938
3863.73532	0.03875
3862.44956	0.03826
3861.16379	0.03753
3859.87802	0.03696
3858.59225	0.03725
3857.30648	0.03853
3856.02071	0.04012
3854.73494	0.04122
3853.44917	0.04153
3852.16341	0.04110
3850.87764	0.04021
3849.59187	0.03940
3848.30610	0.03917
3847.02033	0.03936
3845.73456	0.03939
3844.44879	0.03896
3843.16302	0.03844
3841.87725	0.03828
3840.59149	0.03839
3839.30572	0.03836
3838.01995	0.03810
3836.73418	0.03786
3835.44841	0.03771
3834.16264	0.03761
3832.87687	0.03768
3831.59110	0.03811
3830.30534	0.03880
3829.01957	0.03938
3827.73380	0.03955
3826.44803	0.03930
3825.16226	0.03886
3823.87649	0.03834
3822.59072	0.03792
3821.30495	0.03788
3820.01918	0.03822
3818.73342	0.03851
3817.44765	0.03840
3816.16188	0.03822
3814.87611	0.03838
3813.59034	0.03874
3812.30457	0.03906
3811.01880	0.03930
3809.73303	0.03925
3808.44726	0.03870
3807.16150	0.03801
3805.87573	0.03795
3804.58996	0.03867
3803.30419	0.03957
3802.01842	0.04004
3800.73265	0.03984
3799.44688	0.03885
3798.16111	0.03728
3796.87535	0.03591
3795.58958	0.03548
3794.30381	0.03599
3793.01804	0.03700
3791.73227	0.03808
3790.44650	0.03900
3789.16073	0.03962
3787.87496	0.03986
3786.58919	0.03966
3785.30343	0.03912
3784.01766	0.03860
3782.73189	0.03840
3781.44612	0.03845
3780.16035	0.03845
3778.87458	0.03816
3777.58881	0.03766
3776.30304	0.03714
3775.01728	0.03663
3773.73151	0.03598
3772.44574	0.03511
3771.15997	0.03443
3769.87420	0.03456
3768.58843	0.03555
3767.30266	0.03667
3766.01689	0.03719
3764.73112	0.03697
3763.44536	0.03625
3762.15959	0.03536
3760.87382	0.03463
3759.58805	0.03420
3758.30228	0.03396
3757.01651	0.03381
3755.73074	0.03379
3754.44497	0.03407
3753.15921	0.03484
3751.87344	0.03606
3750.58767	0.03728
3749.30190	0.03805
3748.01613	0.03819
3746.73036	0.03752
3745.44459	0.03621
3744.15882	0.03499
3742.87305	0.03431
3741.58729	0.03405
3740.30152	0.03415
3739.01575	0.03461
3737.72998	0.03516
3736.44421	0.03566
3735.15844	0.03604
3733.87267	0.03617
3732.58690	0.03609
3731.30114	0.03626
3730.01537	0.03685
3728.72960	0.03742
3727.44383	0.03746
3726.15806	0.03692
3724.87229	0.03617
3723.58652	0.03565
3722.30075	0.03559
3721.01498	0.03576
3719.72922	0.03578
3718.44345	0.03552
3717.15768	0.03523
3715.87191	0.03518
3714.58614	0.03528
3713.30037	0.03530
3712.01460	0.03516
3710.72883	0.03483
3709.44307	0.03438
3708.15730	0.03406
3706.87153	0.03403
3705.58576	0.03401
3704.29999	0.03359
3703.01422	0.03282
3701.72845	0.03216
3700.44268	0.03197
3699.15691	0.03221
3697.87115	0.03263
3696.58538	0.03318
3695.29961	0.03389
3694.01384	0.03456
3692.72807	0.03489
3691.44230	0.03496
3690.15653	0.03511
3688.87076	0.03549
3687.58500	0.03598
3686.29923	0.03622
3685.01346	0.03583
3683.72769	0.03485
3682.44192	0.03357
3681.15615	0.03229
3679.87038	0.03158
3678.58461	0.03187
3677.29884	0.03288
3676.01308	0.03421
3674.72731	0.03563
3673.44154	0.03690
3672.15577	0.03788
3670.87000	0.03864
3669.58423	0.03918
3668.29846	0.03904
3667.01269	0.03806
3665.72693	0.03679
3664.44116	0.03583
3663.15539	0.03519
3661.86962	0.03463
3660.58385	0.03415
3659.29808	0.03394
3658.01231	0.03410
3656.72654	0.03461
3655.44077	0.03535
3654.15501	0.03598
3652.86924	0.03622
3651.58347	0.03628
3650.29770	0.03655
3649.01193	0.03704
3647.72616	0.03735
3646.44039	0.03725
3645.15462	0.03697
3643.86886	0.03711
3642.58309	0.03803
3641.29732	0.03940
3640.01155	0.04025
3638.72578	0.03980
3637.44001	0.03830
3636.15424	0.03683
3634.86847	0.03641
3633.58270	0.03718
3632.29694	0.03825
3631.01117	0.03860
3629.72540	0.03806
3628.43963	0.03738
3627.15386	0.03716
3625.86809	0.03736
3624.58232	0.03774
3623.29655	0.03826
3622.01079	0.03901
3620.72502	0.03993
3619.43925	0.04077
3618.15348	0.04110
3616.86771	0.04072
3615.58194	0.03984
3614.29617	0.03895
3613.01040	0.03839
3611.72463	0.03823
3610.43887	0.03845
3609.15310	0.03907
3607.86733	0.03991
3606.58156	0.04047
3605.29579	0.04041
3604.01002	0.03999
3602.72425	0.03970
3601.43848	0.03969
3600.15272	0.03984
3598.86695	0.03997
3597.58118	0.04002
3596.29541	0.03997
3595.00964	0.03997
3593.72387	0.04028
3592.43810	0.04093
3591.15233	0.04155
3589.86656	0.04183
3588.58080	0.04164
3587.29503	0.04104
3586.00926	0.04021
3584.72349	0.03953
3583.43772	0.03918
3582.15195	0.03903
3580.86618	0.03887
3579.58041	0.03870
3578.29464	0.03885
3577.00888	0.03953
3575.72311	0.04055
3574.43734	0.04157
3573.15157	0.04240
3571.86580	0.04300
3570.58003	0.04333
3569.29426	0.04333
3568.00849	0.04316
3566.72273	0.04319
3565.43696	0.04348
3564.15119	0.04374
3562.86542	0.04367
3561.57965	0.04342
3560.29388	0.04335
3559.00811	0.04357
3557.72234	0.04378
3556.43657	0.04371
3555.15081	0.04338
3553.86504	0.04299
3552.57927	0.04274
3551.29350	0.04281
3550.00773	0.04335
3548.72196	0.04430
3547.43619	0.04533
3546.15042	0.04604
3544.86466	0.04631
3543.57889	0.04631
3542.29312	0.04616
3541.00735	0.04582
3539.72158	0.04521
3538.43581	0.04440
3537.15004	0.04363
3535.86427	0.04322
3534.57850	0.04338
3533.29274	0.04397
3532.00697	0.04460
3530.72120	0.04486
3529.43543	0.04473
3528.14966	0.04451
3526.86389	0.04453
3525.57812	0.04486
3524.29235	0.04535
3523.00659	0.04585
3521.72082	0.04633
3520.43505	0.04671
3519.14928	0.04684
3517.86351	0.04663
3516.57774	0.04620
3515.29197	0.04585
3514.00620	0.04577
3512.72043	0.04589
3511.43467	0.04600
3510.14890	0.04601
3508.86313	0.04600
3507.57736	0.04603
3506.29159	0.04597
3505.00582	0.04571
3503.72005	0.04538
3502.43428	0.04530
3501.14852	0.04564
3499.86275	0.04623
3498.57698	0.04677
3497.29121	0.04710
3496.00544	0.04733
3494.71967	0.04755
3493.43390	0.04769
3492.14813	0.04769
3490.86236	0.04769
3489.57660	0.04797
3488.29083	0.04861
3487.00506	0.04935
3485.71929	0.04978
3484.43352	0.04961
3483.14775	0.04889
3481.86198	0.04803
3480.57621	0.04747
3479.29045	0.04740
3478.00468	0.04760
3476.71891	0.04777
3475.43314	0.04777
3474.14737	0.04769
3472.86160	0.04768
3471.57583	0.04783
3470.29006	0.04812
3469.00429	0.04849
3467.71853	0.04889
3466.43276	0.04933
3465.14699	0.04976
3463.86122	0.05011
3462.57545	0.05026
3461.28968	0.05014
3460.00391	0.04974
3458.71814	0.04915
3457.43238	0.04854
3456.14661	0.04813
3454.86084	0.04808
3453.57507	0.04836
3452.28930	0.04879
3451.00353	0.04914
3449.71776	0.04941
3448.43199	0.04969
3447.14622	0.05006
3445.86046	0.05039
3444.57469	0.05056
3443.28892	0.05063
3442.00315	0.05071
3440.71738	0.05086
3439.43161	0.05099
3438.14584	0.05105
3436.86007	0.05111
3435.57431	0.05130
3434.28854	0.05164
3433.00277	0.05195
3431.71700	0.05193
3430.43123	0.05148
3429.14546	0.05087
3427.85969	0.05044
3426.57392	0.05033
3425.28815	0.05038
3424.00239	0.05044
3422.71662	0.05046
3421.43085	0.05054
3420.14508	0.05069
3418.85931	0.05086
3417.57354	0.05092
3416.28777	0.05081
3415.00200	0.05060
3413.71624	0.05042
3412.43047	0.05040
3411.14470	0.05056
3409.85893	0.05087
3408.57316	0.05125
3407.28739	0.05163
3406.00162	0.05194
3404.71585	0.05206
3403.43008	0.05195
3402.14432	0.05170
3400.85855	0.05146
3399.57278	0.05129
3398.28701	0.05128
3397.00124	0.05131
3395.71547	0.05133
3394.42970	0.05138
3393.14393	0.05158
3391.85817	0.05201
3390.57240	0.05264
3389.28663	0.05324
3388.00086	0.05360
3386.71509	0.05366
3385.42932	0.05352
3384.14355	0.05331
3382.85778	0.05310
3381.57201	0.05282
3380.28625	0.05235
3379.00048	0.05168
3377.71471	0.05097
3376.42894	0.05049
3375.14317	0.05038
3373.85740	0.05053
3372.57163	0.05073
3371.28586	0.05081
3370.00010	0.05078
3368.71433	0.05083
3367.42856	0.05118
3366.14279	0.05187
3364.85702	0.05275
3363.57125	0.05353
3362.28548	0.05394
3360.99971	0.05385
3359.71394	0.05337
3358.42818	0.05275
3357.14241	0.05227
3355.85664	0.05206
3354.57087	0.05207
3353.28510	0.05216
3351.99933	0.05229
3350.71356	0.05253
3349.42779	0.05292
3348.14202	0.05329
3346.85626	0.05337
3345.57049	0.05310
3344.28472	0.05267
3342.99895	0.05237
3341.71318	0.05234
3340.42741	0.05253
3339.14164	0.05275
3337.85587	0.05281
3336.57011	0.05267
3335.28434	0.05247
3333.99857	0.05231
3332.71280	0.05214
3331.42703	0.05189
3330.14126	0.05156
3328.85549	0.05125
3327.56972	0.05110
3326.28395	0.05121
3324.99819	0.05154
3323.71242	0.05191
3322.42665	0.05204
3321.14088	0.05182
3319.85511	0.05139
3318.56934	0.05105
3317.28357	0.05100
3315.99780	0.05126
3314.71204	0.05176
3313.42627	0.05235
3312.14050	0.05276
3310.85473	0.05276
3309.56896	0.05245
3308.28319	0.05221
3306.99742	0.05231
3305.71165	0.05264
3304.42588	0.05278
3303.14012	0.05251
3301.85435	0.05187
3300.56858	0.05102
3299.28281	0.05017
3297.99704	0.04956
3296.71127	0.04940
3295.42550	0.04970
3294.13973	0.05033
3292.85397	0.05111
3291.56820	0.05190
3290.28243	0.05252
3288.99666	0.05280
3287.71089	0.05275
3286.42512	0.05249
3285.13935	0.05206
3283.85358	0.05148
3282.56781	0.05086
3281.28205	0.05041
3279.99628	0.05019
3278.71051	0.05001
3277.42474	0.04972
3276.13897	0.04943
3274.85320	0.04935
3273.56743	0.04960
3272.28166	0.05018
3270.99590	0.05091
3269.71013	0.05158
3268.42436	0.05195
3267.13859	0.05193
3265.85282	0.05154
3264.56705	0.05089
3263.28128	0.05004
3261.99551	0.04916
3260.70974	0.04853
3259.42398	0.04839
3258.13821	0.04876
3256.85244	0.04945
3255.56667	0.05022
3254.28090	0.05085
3252.99513	0.05109
3251.70936	0.05075
3250.42359	0.05003
3249.13783	0.04939
3247.85206	0.04918
3246.56629	0.04932
3245.28052	0.04952
3243.99475	0.04962
3242.70898	0.04968
3241.42321	0.04975
3240.13744	0.04981
3238.85167	0.04977
3237.56591	0.04960
3236.28014	0.04933
3234.99437	0.04904
3233.70860	0.04886
3232.42283	0.04885
3231.13706	0.04890
3229.85129	0.04889
3228.56552	0.04872
3227.27976	0.04848
3225.99399	0.04830
3224.70822	0.04827
3223.42245	0.04843
3222.13668	0.04873
3220.85091	0.04904
3219.56514	0.04914
3218.27937	0.04892
3216.99360	0.04846
3215.70784	0.04807
3214.42207	0.04801
3213.13630	0.04826
3211.85053	0.04858
3210.56476	0.04876
3209.27899	0.04877
3207.99322	0.04877
3206.70745	0.04887
3205.42169	0.04901
3204.13592	0.04893
3202.85015	0.04846
3201.56438	0.04772
3200.27861	0.04711
3198.99284	0.04693
3197.70707	0.04716
3196.42130	0.04752
3195.13553	0.04775
3193.84977	0.04771
3192.56400	0.04742
3191.27823	0.04705
3189.99246	0.04682
3188.70669	0.04686
3187.42092	0.04717
3186.13515	0.04765
3184.84938	0.04811
3183.56362	0.04835
3182.27785	0.04827
3180.99208	0.04793
3179.70631	0.04755
3178.42054	0.04732
3177.13477	0.04724
3175.84900	0.04724
3174.56323	0.04727
3173.27746	0.04742
3171.99170	0.04768
3170.70593	0.04782
3169.42016	0.04762
3168.13439	0.04711
3166.84862	0.04658
3165.56285	0.04634
3164.27708	0.04646
3162.99131	0.04674
3161.70555	0.04690
3160.41978	0.04683
3159.13401	0.04663
3157.84824	0.04647
3156.56247	0.04645
3155.27670	0.04659
3153.99093	0.04682
3152.70516	0.04692
3151.41939	0.04674
3150.13363	0.04640
3148.84786	0.04616
3147.56209	0.04613
3146.27632	0.04612
3144.99055	0.04587
3143.70478	0.04536
3142.41901	0.04488
3141.13324	0.04466
3139.84748	0.04473
3138.56171	0.04491
3137.27594	0.04499
3135.99017	0.04489
3134.70440	0.04471
3133.41863	0.04464
3132.13286	0.04486
3130.84709	0.04538
3129.56132	0.04603
3128.27556	0.04651
3126.98979	0.04661
3125.70402	0.04632
3124.41825	0.04585
3123.13248	0.04542
3121.84671	0.04511
3120.56094	0.04483
3119.27517	0.04445
3117.98940	0.04395
3116.70364	0.04343
3115.41787	0.04311
3114.13210	0.04322
3112.84633	0.04375
3111.56056	0.04440
3110.27479	0.04480
3108.98902	0.04477
3107.70325	0.04437
3106.41749	0.04383
3105.13172	0.04343
3103.84595	0.04334
3102.56018	0.04348
3101.27441	0.04358
3099.98864	0.04348
3098.70287	0.04323
3097.41710	0.04301
3096.13133	0.04286
3094.84557	0.04277
3093.55980	0.04270
3092.27403	0.04264
3090.98826	0.04261
3089.70249	0.04261
3088.41672	0.04266
3087.13095	0.04277
3085.84518	0.04296
3084.55942	0.04316
3083.27365	0.04330
3081.98788	0.04333
3080.70211	0.04326
3079.41634	0.04316
3078.13057	0.04308
3076.84480	0.04298
3075.55903	0.04284
3074.27326	0.04267
3072.98750	0.04253
3071.70173	0.04246
3070.41596	0.04245
3069.13019	0.04249
3067.84442	0.04255
3066.55865	0.04261
3065.27288	0.04269
3063.98711	0.04278
3062.70135	0.04283
3061.41558	0.04279
3060.12981	0.04266
3058.84404	0.04248
3057.55827	0.04231
3056.27250	0.04214
3054.98673	0.04197
3053.70096	0.04187
3052.41519	0.04189
3051.12943	0.04206
3049.84366	0.04223
3048.55789	0.04220
3047.27212	0.04188
3045.98635	0.04140
3044.70058	0.04101
3043.41481	0.04082
3042.12904	0.04079
3040.84328	0.04083
3039.55751	0.04090
3038.27174	0.04105
3036.98597	0.04132
3035.70020	0.04162
3034.41443	0.04176
3033.12866	0.04162
3031.84289	0.04123
3030.55712	0.04077
3029.27136	0.04047
3027.98559	0.04042
3026.69982	0.04054
3025.41405	0.04063
3024.12828	0.04056
3022.84251	0.04035
3021.55674	0.04019
3020.27097	0.04019
3018.98521	0.04030
3017.69944	0.04036
3016.41367	0.04023
3015.12790	0.03995
3013.84213	0.03966
3012.55636	0.03952
3011.27059	0.03960
3009.98482	0.03985
3008.69905	0.04018
3007.41329	0.04047
3006.12752	0.04059
3004.84175	0.04043
3003.55598	0.03995
3002.27021	0.03926
3000.98444	0.03858
2999.69867	0.03815
2998.41290	0.03817
2997.12714	0.03838
2995.84137	0.03864
2994.55560	0.03896
2993.26983	0.03928
2991.98406	0.03945
2990.69829	0.03942
2989.41252	0.03929
2988.12675	0.03916
2986.84098	0.03901
2985.55522	0.03892
2984.26945	0.03904
2982.98368	0.03940
2981.69791	0.03985
2980.41214	0.04023
2979.12637	0.04046
2977.84060	0.04048
2976.55483	0.04033
2975.26907	0.04018
2973.98330	0.04030
2972.69753	0.04087
2971.41176	0.04189
2970.12599	0.04312
2968.84022	0.04412
2967.55445	0.04453
2966.26868	0.04441
2964.98291	0.04424
2963.69715	0.04438
2962.41138	0.04486
2961.12561	0.04543
2959.83984	0.04597
2958.55407	0.04646
2957.26830	0.04688
2955.98253	0.04712
2954.69676	0.04712
2953.41100	0.04687
2952.12523	0.04647
2950.83946	0.04604
2949.55369	0.04575
2948.26792	0.04576
2946.98215	0.04601
2945.69638	0.04634
2944.41061	0.04656
2943.12484	0.04666
2941.83908	0.04672
2940.55331	0.04679
2939.26754	0.04698
2937.98177	0.04743
2936.69600	0.04823
2935.41023	0.04915
2934.12446	0.04980
2932.83869	0.04995
2931.55293	0.04979
2930.26716	0.04966
2928.98139	0.04979
2927.69562	0.05012
2926.40985	0.05053
2925.12408	0.05092
2923.83831	0.05117
2922.55254	0.05109
2921.26677	0.05068
2919.98101	0.05017
2918.69524	0.04987
2917.40947	0.04980
2916.12370	0.04978
2914.83793	0.04967
2913.55216	0.04949
2912.26639	0.04930
2910.98062	0.04908
2909.69486	0.04869
2908.40909	0.04808
2907.12332	0.04735
2905.83755	0.04668
2904.55178	0.04619
2903.26601	0.04589
2901.98024	0.04578
2900.69447	0.04586
2899.40870	0.04604
2898.12294	0.04612
2896.83717	0.04594
2895.55140	0.04550
2894.26563	0.04492
2892.97986	0.04431
2891.69409	0.04374
2890.40832	0.04325
2889.12255	0.04287
2887.83678	0.04255
2886.55102	0.04231
2885.26525	0.04220
2883.97948	0.04222
2882.69371	0.04222
2881.40794	0.04210
2880.12217	0.04192
2878.83640	0.04183
2877.55063	0.04194
2876.26487	0.04221
2874.97910	0.04253
2873.69333	0.04277
2872.40756	0.04287
2871.12179	0.04281
2869.83602	0.04262
2868.55025	0.04238
2867.26448	0.04224
2865.97871	0.04236
2864.69295	0.04273
2863.40718	0.04311
2862.12141	0.04320
2860.83564	0.04292
2859.54987	0.04248
2858.26410	0.04211
2856.97833	0.04190
2855.69256	0.04178
2854.40680	0.04167
2853.12103	0.04155
2851.83526	0.04141
2850.54949	0.04132
2849.26372	0.04130
2847.97795	0.04131
2846.69218	0.04124
2845.40641	0.04105
2844.12064	0.04076
2842.83488	0.04045
2841.54911	0.04013
2840.26334	0.03973
2838.97757	0.03919
2837.69180	0.03860
2836.40603	0.03815
2835.12026	0.03791
2833.83449	0.03773
2832.54873	0.03739
2831.26296	0.03684
2829.97719	0.03623
2828.69142	0.03582
2827.40565	0.03572
2826.11988	0.03580
2824.83411	0.03580
2823.54834	0.03546
2822.26257	0.03480
2820.97681	0.03407
2819.69104	0.03361
2818.40527	0.03353
2817.11950	0.03367
2815.83373	0.03387
2814.54796	0.03406
2813.26219	0.03420
2811.97642	0.03423
2810.69066	0.03410
2809.40489	0.03389
2808.11912	0.03371
2806.83335	0.03361
2805.54758	0.03353
2804.26181	0.03342
2802.97604	0.03331
2801.69027	0.03328
2800.40450	0.03335
2799.11874	0.03342
2797.83297	0.03335
2796.54720	0.03311
2795.26143	0.03281
2793.97566	0.03265
2792.68989	0.03269
2791.40412	0.03277
2790.11835	0.03270
2788.83259	0.03248
2787.54682	0.03229
2786.26105	0.03231
2784.97528	0.03258
2783.68951	0.03297
2782.40374	0.03325
2781.11797	0.03326
2779.83220	0.03298
2778.54643	0.03257
2777.26067	0.03222
2775.97490	0.03202
2774.68913	0.03193
2773.40336	0.03189
2772.11759	0.03187
2770.83182	0.03186
2769.54605	0.03185
2768.26028	0.03179
2766.97452	0.03171
2765.68875	0.03167
2764.40298	0.03172
2763.11721	0.03179
2761.83144	0.03176
2760.54567	0.03162
2759.25990	0.03144
2757.97413	0.03133
2756.68836	0.03136
2755.40260	0.03148
2754.11683	0.03163
2752.83106	0.03170
2751.54529	0.03169
2750.25952	0.03171
2748.97375	0.03186
2747.68798	0.03208
2746.40221	0.03217
2745.11645	0.03204
2743.83068	0.03181
2742.54491	0.03170
2741.25914	0.03173
2739.97337	0.03177
2738.68760	0.03170
2737.40183	0.03153
2736.11606	0.03127
2734.83029	0.03092
2733.54453	0.03053
2732.25876	0.03019
2730.97299	0.03002
2729.68722	0.03011
2728.40145	0.03042
2727.11568	0.03077
2725.82991	0.03093
2724.54414	0.03077
2723.25838	0.03044
2721.97261	0.03017
2720.68684	0.03008
2719.40107	0.03006
2718.11530	0.02998
2716.82953	0.02977
2715.54376	0.02950
2714.25799	0.02929
2712.97222	0.02921
2711.68646	0.02922
2710.40069	0.02927
2709.11492	0.02935
2707.82915	0.02950
2706.54338	0.02967
2705.25761	0.02984
2703.97184	0.02995
2702.68607	0.02996
2701.40031	0.02984
2700.11454	0.02963
2698.82877	0.02944
2697.54300	0.02935
2696.25723	0.02935
2694.97146	0.02938
2693.68569	0.02939
2692.39992	0.02935
2691.11415	0.02926
2689.82839	0.02916
2688.54262	0.02903
2687.25685	0.02886
2685.97108	0.02868
2684.68531	0.02857
2683.39954	0.02854
2682.11377	0.02857
2680.82800	0.02866
2679.54224	0.02880
2678.25647	0.02899
2676.97070	0.02918
2675.68493	0.02928
2674.39916	0.02923
2673.11339	0.02904
2671.82762	0.02883
2670.54185	0.02875
2669.25608	0.02882
2667.97032	0.02894
2666.68455	0.02907
2665.39878	0.02926
2664.11301	0.02951
2662.82724	0.02964
2661.54147	0.02952
2660.25570	0.02917
2658.96993	0.02872
2657.68417	0.02829
2656.39840	0.02800
2655.11263	0.02784
2653.82686	0.02770
2652.54109	0.02744
2651.25532	0.02711
2649.96955	0.02685
2648.68378	0.02678
2647.39801	0.02687
2646.11225	0.02702
2644.82648	0.02719
2643.54071	0.02734
2642.25494	0.02742
2640.96917	0.02738
2639.68340	0.02717
2638.39763	0.02685
2637.11186	0.02658
2635.82609	0.02650
2634.54033	0.02657
2633.25456	0.02655
2631.96879	0.02620
2630.68302	0.02554
2629.39725	0.02489
2628.11148	0.02459
2626.82571	0.02476
2625.53994	0.02522
2624.25418	0.02571
2622.96841	0.02604
2621.68264	0.02613
2620.39687	0.02600
2619.11110	0.02574
2617.82533	0.02551
2616.53956	0.02535
2615.25379	0.02520
2613.96802	0.02496
2612.68226	0.02463
2611.39649	0.02432
2610.11072	0.02408
2608.82495	0.02390
2607.53918	0.02370
2606.25341	0.02341
2604.96764	0.02302
2603.68187	0.02261
2602.39611	0.02238
2601.11034	0.02255
2599.82457	0.02307
2598.53880	0.02372
2597.25303	0.02425
2595.96726	0.02457
2594.68149	0.02466
2593.39572	0.02444
2592.10995	0.02391
2590.82419	0.02332
2589.53842	0.02306
2588.25265	0.02329
2586.96688	0.02376
2585.68111	0.02404
2584.39534	0.02391
2583.10957	0.02357
2581.82380	0.02339
2580.53804	0.02351
2579.25227	0.02375
2577.96650	0.02378
2576.68073	0.02346
2575.39496	0.02299
2574.10919	0.02269
2572.82342	0.02264
2571.53765	0.02259
2570.25188	0.02226
2568.96612	0.02172
2567.68035	0.02129
2566.39458	0.02119
2565.10881	0.02133
2563.82304	0.02155
2562.53727	0.02175
2561.25150	0.02196
2559.96573	0.02218
2558.67997	0.02232
2557.39420	0.02230
2556.10843	0.02219
2554.82266	0.02219
2553.53689	0.02239
2552.25112	0.02272
2550.96535	0.02302
2549.67958	0.02319
2548.39381	0.02324
2547.10805	0.02324
2545.82228	0.02324
2544.53651	0.02322
2543.25074	0.02306
2541.96497	0.02268
2540.67920	0.02216
2539.39343	0.02171
2538.10766	0.02146
2536.82190	0.02135
2535.53613	0.02122
2534.25036	0.02102
2532.96459	0.02090
2531.67882	0.02100
2530.39305	0.02134
2529.10728	0.02181
2527.82151	0.02227
2526.53574	0.02255
2525.24998	0.02254
2523.96421	0.02225
2522.67844	0.02185
2521.39267	0.02159
2520.10690	0.02162
2518.82113	0.02185
2517.53536	0.02205
2516.24959	0.02196
2514.96383	0.02153
2513.67806	0.02099
2512.39229	0.02062
2511.10652	0.02057
2509.82075	0.02077
2508.53498	0.02109
2507.24921	0.02148
2505.96344	0.02192
2504.67767	0.02232
2503.39191	0.02250
2502.10614	0.02238
2500.82037	0.02203
2499.53460	0.02164
2498.24883	0.02137
2496.96306	0.02127
2495.67729	0.02126
2494.39152	0.02126
2493.10576	0.02123
2491.81999	0.02124
2490.53422	0.02133
2489.24845	0.02140
2487.96268	0.02137
2486.67691	0.02127
2485.39114	0.02122
2484.10537	0.02125
2482.81960	0.02131
2481.53384	0.02132
2480.24807	0.02118
2478.96230	0.02088
2477.67653	0.02057
2476.39076	0.02054
2475.10499	0.02087
2473.81922	0.02140
2472.53345	0.02184
2471.24769	0.02203
2469.96192	0.02195
2468.67615	0.02160
2467.39038	0.02109
2466.10461	0.02062
2464.81884	0.02039
2463.53307	0.02050
2462.24730	0.02086
2460.96153	0.02124
2459.67577	0.02135
2458.39000	0.02111
2457.10423	0.02078
2455.81846	0.02079
2454.53269	0.02124
2453.24692	0.02177
2451.96115	0.02189
2450.67538	0.02150
2449.38962	0.02095
2448.10385	0.02056
2446.81808	0.02032
2445.53231	0.02010
2444.24654	0.01999
2442.96077	0.02002
2441.67500	0.02003
2440.38923	0.01983
2439.10346	0.01955
2437.81770	0.01949
2436.53193	0.01969
2435.24616	0.01996
2433.96039	0.02009
2432.67462	0.02003
2431.38885	0.01989
2430.10308	0.01977
2428.81731	0.01967
2427.53155	0.01949
2426.24578	0.01927
2424.96001	0.01917
2423.67424	0.01939
2422.38847	0.01984
2421.10270	0.02022
2419.81693	0.02024
2418.53116	0.01995
2417.24539	0.01964
2415.95963	0.01956
2414.67386	0.01961
2413.38809	0.01955
2412.10232	0.01929
2410.81655	0.01892
2409.53078	0.01856
2408.24501	0.01834
2406.95924	0.01837
2405.67347	0.01869
2404.38771	0.01922
2403.10194	0.01978
2401.81617	0.02035
2400.53040	0.02090
2399.24463	0.02097
2397.95886	0.02076
2396.67309	0.02021
2395.38732	0.01947
2394.10156	0.01887
2392.81579	0.01860
2391.53002	0.01862
2390.24425	0.01885
2388.95848	0.01928
2387.67271	0.01987
2386.38694	0.02048
2385.10117	0.02105
2383.81540	0.02152
2382.52964	0.02191
2381.24387	0.02223
2379.95810	0.02248
2378.67233	0.02274
2377.38656	0.02305
2376.10079	0.02345
2374.81502	0.02408
2373.52925	0.02488
2372.24349	0.02590
2370.95772	0.02687
2369.67195	0.02786
2368.38618	0.02860
2367.10041	0.02898
2365.81464	0.02891
2364.52887	0.02896
2363.24310	0.02924
2361.95733	0.02962
2360.67157	0.02978
2359.38580	0.03006
2358.10003	0.03025
2356.81426	0.03020
2355.52849	0.02993
2354.24272	0.02955
2352.95695	0.02921
2351.67118	0.02858
2350.38542	0.02768
2349.09965	0.02714
2347.81388	0.02727
2346.52811	0.02721
2345.24234	0.02691
2343.95657	0.02706
2342.67080	0.02775
2341.38503	0.02760
2340.09926	0.02646
2338.81350	0.02628
2337.52773	0.02734
2336.24196	0.02748
2334.95619	0.02685
2333.67042	0.02761
2332.38465	0.02942
2331.09888	0.02941
2329.81311	0.02933
2328.52735	0.03127
2327.24158	0.03147
2325.95581	0.03028
2324.67004	0.03018
2323.38427	0.02870
2322.09850	0.02581
2320.81273	0.02472
2319.52696	0.02351
2318.24119	0.02237
2316.95543	0.02266
2315.66966	0.02231
2314.38389	0.02163
2313.09812	0.02157
2311.81235	0.02116
2310.52658	0.02115
2309.24081	0.02116
2307.95504	0.02069
2306.66928	0.02039
2305.38351	0.01990
2304.09774	0.01961
2302.81197	0.01977
2301.52620	0.02016
2300.24043	0.02083
2298.95466	0.02133
2297.66889	0.02159
2296.38312	0.02156
2295.09736	0.02124
2293.81159	0.02075
2292.52582	0.02012
2291.24005	0.01959
2289.95428	0.01920
2288.66851	0.01887
2287.38274	0.01842
2286.09697	0.01786
2284.81121	0.01733
2283.52544	0.01694
2282.23967	0.01671
2280.95390	0.01665
2279.66813	0.01678
2278.38236	0.01696
2277.09659	0.01694
2275.81082	0.01654
2274.52505	0.01588
2273.23929	0.01532
2271.95352	0.01517
2270.66775	0.01551
2269.38198	0.01613
2268.09621	0.01670
2266.81044	0.01695
2265.52467	0.01686
2264.23890	0.01668
2262.95314	0.01656
2261.66737	0.01649
2260.38160	0.01641
2259.09583	0.01624
2257.81006	0.01591
2256.52429	0.01545
2255.23852	0.01501
2253.95275	0.01484
2252.66698	0.01516
2251.38122	0.01585
2250.09545	0.01611
2248.80968	0.01552
2247.52391	0.01574
2246.23814	0.01577
2244.95237	0.01540
2243.66660	0.01464
2242.38083	0.01388
2241.09507	0.01357
2239.80930	0.01372
2238.52353	0.01390
2237.23776	0.01383
2235.95199	0.01367
2234.66622	0.01370
2233.38045	0.01396
2232.09468	0.01436
2230.80891	0.01477
2229.52315	0.01499
2228.23738	0.01473
2226.95161	0.01389
2225.66584	0.01283
2224.38007	0.01220
2223.09430	0.01240
2221.80853	0.01317
2220.52276	0.01373
2219.23700	0.01335
2217.95123	0.01198
2216.66546	0.01037
2215.37969	0.00939
2214.09392	0.00936
2212.80815	0.00987
2211.52238	0.01037
2210.23661	0.01059
2208.95084	0.01056
2207.66508	0.01038
2206.37931	0.01025
2205.09354	0.01027
2203.80777	0.01031
2202.52200	0.01020
2201.23623	0.00996
2199.95046	0.00987
2198.66469	0.01016
2197.37893	0.01078
2196.09316	0.01133
2194.80739	0.01127
2193.52162	0.01056
2192.23585	0.01004
2190.95008	0.01065
2189.66431	0.01226
2188.37854	0.01354
2187.09277	0.01330
2185.80701	0.01157
2184.52124	0.00940
2183.23547	0.00783
2181.94970	0.00727
2180.66393	0.00761
2179.37816	0.00848
2178.09239	0.00936
2176.80662	0.00984
2175.52085	0.00996
2174.23509	0.01018
2172.94932	0.01077
2171.66355	0.01139
2170.37778	0.01133
2169.09201	0.01042
2167.80624	0.00924
2166.52047	0.00847
2165.23470	0.00822
2163.94894	0.00805
2162.66317	0.00764
2161.37740	0.00708
2160.09163	0.00672
2158.80586	0.00697
2157.52009	0.00802
2156.23432	0.00961
2154.94855	0.01105
2153.66278	0.01178
2152.37702	0.01180
2151.09125	0.01142
2149.80548	0.01080
2148.51971	0.00995
2147.23394	0.00908
2145.94817	0.00856
2144.66240	0.00841
2143.37663	0.00838
2142.09087	0.00842
2140.80510	0.00877
2139.51933	0.00956
2138.23356	0.01049
2136.94779	0.01114
2135.66202	0.01131
2134.37625	0.01105
2133.09048	0.01062
2131.80471	0.01035
2130.51895	0.01044
2129.23318	0.01076
2127.94741	0.01110
2126.66164	0.01133
2125.37587	0.01150
2124.09010	0.01162
2122.80433	0.01161
2121.51856	0.01148
2120.23280	0.01136
2118.94703	0.01144
2117.66126	0.01184
2116.37549	0.01256
2115.08972	0.01344
2113.80395	0.01413
2112.51818	0.01435
2111.23241	0.01418
2109.94664	0.01386
2108.66088	0.01343
2107.37511	0.01273
2106.08934	0.01170
2104.80357	0.01060
2103.51780	0.00984
2102.23203	0.00967
2100.94626	0.01017
2099.66049	0.01256
2098.37473	0.01395
2097.08896	0.01404
2095.80319	0.01340
2094.51742	0.01236
2093.23165	0.01132
2091.94588	0.01060
2090.66011	0.01027
2089.37434	0.01013
2088.08857	0.00992
2086.80281	0.00962
2085.51704	0.00939
2084.23127	0.00937
2082.94550	0.00951
2081.65973	0.00976
2080.37396	0.01015
2079.08819	0.01064
2077.80242	0.01100
2076.51666	0.01102
2075.23089	0.01072
2073.94512	0.01038
2072.65935	0.01029
2071.37358	0.01059
2070.08781	0.01120
2068.80204	0.01178
2067.51627	0.01195
2066.23050	0.01159
2064.94474	0.01090
2063.65897	0.01011
2062.37320	0.00925
2061.08743	0.00838
2059.80166	0.00772
2058.51589	0.00744
2057.23012	0.00743
2055.94435	0.00749
2054.65859	0.00752
2053.37282	0.00762
2052.08705	0.00799
2050.80128	0.00871
2049.51551	0.00968
2048.22974	0.01062
2046.94397	0.01126
2045.65820	0.01141
2044.37243	0.01100
2043.08667	0.01016
2041.80090	0.00930
2040.51513	0.00897
2039.22936	0.00949
2037.94359	0.01059
2036.65782	0.01163
2035.37205	0.01199
2034.08628	0.01150
2032.80052	0.01035
2031.51475	0.00895
2030.22898	0.00774
2028.94321	0.00714
2027.65744	0.00742
2026.37167	0.00839
2025.08590	0.00948
2023.80013	0.01001
2022.51436	0.00968
2021.22860	0.00872
2019.94283	0.00770
2018.65706	0.00711
2017.37129	0.00717
2016.08552	0.00780
2014.79975	0.00865
2013.51398	0.00930
2012.22821	0.00951
2010.94245	0.00943
2009.65668	0.00944
2008.37091	0.00977
2007.08514	0.01025
2005.79937	0.01050
2004.51360	0.01033
2003.22783	0.00987
2001.94206	0.00942
2000.65629	0.00919
1999.37053	0.00914
1998.08476	0.00910
1996.79899	0.00901
1995.51322	0.00899
1994.22745	0.00909
1992.94168	0.00918
1991.65591	0.00906
1990.37014	0.00872
1989.08438	0.00834
1987.79861	0.00810
1986.51284	0.00801
1985.22707	0.00805
1983.94130	0.00829
1982.65553	0.00890
1981.36976	0.00991
1980.08399	0.01114
1978.79822	0.01227
1977.51246	0.01299
1976.22669	0.01324
1974.94092	0.01324
1973.65515	0.01328
1972.36938	0.01339
1971.08361	0.01344
1969.79784	0.01333
1968.51207	0.01315
1967.22631	0.01301
1965.94054	0.01300
1964.65477	0.01310
1963.36900	0.01323
1962.08323	0.01332
1960.79746	0.01341
1959.51169	0.01349
1958.22592	0.01343
1956.94015	0.01305
1955.65439	0.01244
1954.36862	0.01195
1953.08285	0.01182
1951.79708	0.01194
1950.51131	0.01206
1949.22554	0.01205
1947.93977	0.01203
1946.65400	0.01213
1945.36823	0.01229
1944.08247	0.01241
1942.79670	0.01249
1941.51093	0.01263
1940.22516	0.01281
1938.93939	0.01281
1937.65362	0.01243
1936.36785	0.01185
1935.08208	0.01153
1933.79632	0.01182
1932.51055	0.01257
1931.22478	0.01327
1929.93901	0.01354
1928.65324	0.01342
1927.36747	0.01312
1926.08170	0.01283
1924.79593	0.01262
1923.51016	0.01259
1922.22440	0.01275
1920.93863	0.01296
1919.65286	0.01304
1918.36709	0.01297
1917.08132	0.01284
1915.79555	0.01279
1914.50978	0.01291
1913.22401	0.01320
1911.93825	0.01354
1910.65248	0.01378
1909.36671	0.01382
1908.08094	0.01369
1906.79517	0.01350
1905.50940	0.01332
1904.22363	0.01315
1902.93786	0.01291
1901.65209	0.01263
1900.36633	0.01250
1899.08056	0.01269
1897.79479	0.01316
1896.50902	0.01361
1895.22325	0.01371
1893.93748	0.01341
1892.65171	0.01300
1891.36594	0.01276
1890.08018	0.01277
1888.79441	0.01286
1887.50864	0.01291
1886.22287	0.01290
1884.93710	0.01287
1883.65133	0.01279
1882.36556	0.01265
1881.07979	0.01246
1879.79402	0.01234
1878.50826	0.01239
1877.22249	0.01260
1875.93672	0.01287
1874.65095	0.01311
1873.36518	0.01330
1872.07941	0.01346
1870.79364	0.01356
1869.50787	0.01355
1868.22211	0.01347
1866.93634	0.01340
1865.65057	0.01336
1864.36480	0.01335
1863.07903	0.01330
1861.79326	0.01323
1860.50749	0.01316
1859.22172	0.01310
1857.93595	0.01305
1856.65019	0.01299
1855.36442	0.01294
1854.07865	0.01292
1852.79288	0.01292
1851.50711	0.01293
1850.22134	0.01293
1848.93557	0.01303
1847.64980	0.01329
1846.36404	0.01362
1845.07827	0.01380
1843.79250	0.01375
1842.50673	0.01355
1841.22096	0.01334
1839.93519	0.01323
1838.64942	0.01325
1837.36365	0.01336
1836.07788	0.01348
1834.79212	0.01358
1833.50635	0.01364
1832.22058	0.01361
1830.93481	0.01349
1829.64904	0.01342
1828.36327	0.01353
1827.07750	0.01383
1825.79173	0.01420
1824.50597	0.01458
1823.22020	0.01487
1821.93443	0.01503
1820.64866	0.01500
1819.36289	0.01475
1818.07712	0.01425
1816.79135	0.01357
1815.50558	0.01292
1814.21981	0.01250
1812.93405	0.01237
1811.64828	0.01245
1810.36251	0.01258
1809.07674	0.01260
1807.79097	0.01251
1806.50520	0.01242
1805.21943	0.01247
1803.93366	0.01267
1802.64790	0.01292
1801.36213	0.01309
1800.07636	0.01310
1798.79059	0.01301
1797.50482	0.01294
1796.21905	0.01300
1794.93328	0.01317
1793.64751	0.01334
1792.36174	0.01343
1791.07598	0.01342
1789.79021	0.01337
1788.50444	0.01337
1787.21867	0.01347
1785.93290	0.01362
1784.64713	0.01372
1783.36136	0.01374
1782.07559	0.01372
1780.78983	0.01366
1779.50406	0.01359
1778.21829	0.01351
1776.93252	0.01347
1775.64675	0.01353
1774.36098	0.01363
1773.07521	0.01371
1771.78944	0.01377
1770.50367	0.01382
1769.21791	0.01383
1767.93214	0.01387
1766.64637	0.01397
1765.36060	0.01402
1764.07483	0.01394
1762.78906	0.01377
1761.50329	0.01365
1760.21752	0.01364
1758.93176	0.01369
1757.64599	0.01374
1756.36022	0.01384
1755.07445	0.01398
1753.78868	0.01412
1752.50291	0.01423
1751.21714	0.01436
1749.93137	0.01446
1748.64560	0.01442
1747.35984	0.01423
1746.07407	0.01402
1744.78830	0.01390
1743.50253	0.01394
1742.21676	0.01409
1740.93099	0.01428
1739.64522	0.01451
1738.35945	0.01483
1737.07369	0.01513
1735.78792	0.01528
1734.50215	0.01531
1733.21638	0.01530
1731.93061	0.01522
1730.64484	0.01502
1729.35907	0.01478
1728.07330	0.01462
1726.78753	0.01459
1725.50177	0.01465
1724.21600	0.01485
1722.93023	0.01521
1721.64446	0.01570
1720.35869	0.01618
1719.07292	0.01651
1717.78715	0.01670
1716.50138	0.01678
1715.21561	0.01673
1713.92985	0.01658
1712.64408	0.01650
1711.35831	0.01662
1710.07254	0.01694
1708.78677	0.01735
1707.50100	0.01774
1706.21523	0.01804
1704.92946	0.01838
1703.64370	0.01882
1702.35793	0.01923
1701.07216	0.01957
1699.78639	0.01994
1698.50062	0.02022
1697.21485	0.02018
1695.92908	0.01994
1694.64331	0.01980
1693.35754	0.01978
1692.07178	0.01977
1690.78601	0.01987
1689.50024	0.02020
1688.21447	0.02072
1686.92870	0.02119
1685.64293	0.02146
1684.35716	0.02158
1683.07139	0.02163
1681.78563	0.02153
1680.49986	0.02135
1679.21409	0.02129
1677.92832	0.02143
1676.64255	0.02162
1675.35678	0.02185
1674.07101	0.02214
1672.78524	0.02240
1671.49947	0.02253
1670.21371	0.02254
1668.92794	0.02254
1667.64217	0.02260
1666.35640	0.02270
1665.07063	0.02284
1663.78486	0.02301
1662.49909	0.02322
1661.21332	0.02342
1659.92756	0.02358
1658.64179	0.02380
1657.35602	0.02420
1656.07025	0.02472
1654.78448	0.02510
1653.49871	0.02528
1652.21294	0.02538
1650.92717	0.02541
1649.64140	0.02526
1648.35564	0.02500
1647.06987	0.02483
1645.78410	0.02481
1644.49833	0.02483
1643.21256	0.02482
1641.92679	0.02482
1640.64102	0.02494
1639.35525	0.02521
1638.06949	0.02547
1636.78372	0.02559
1635.49795	0.02557
1634.21218	0.02548
1632.92641	0.02532
1631.64064	0.02513
1630.35487	0.02502
1629.06910	0.02505
1627.78333	0.02520
1626.49757	0.02540
1625.21180	0.02556
1623.92603	0.02568
1622.64026	0.02586
1621.35449	0.02614
1620.06872	0.02643
1618.78295	0.02659
1617.49718	0.02660
1616.21142	0.02661
1614.92565	0.02666
1613.63988	0.02671
1612.35411	0.02671
1611.06834	0.02674
1609.78257	0.02680
1608.49680	0.02690
1607.21103	0.02705
1605.92526	0.02724
1604.63950	0.02745
1603.35373	0.02763
1602.06796	0.02778
1600.78219	0.02788
1599.49642	0.02792
1598.21065	0.02792
1596.92488	0.02792
1595.63911	0.02797
1594.35335	0.02810
1593.06758	0.02831
1591.78181	0.02855
1590.49604	0.02875
1589.21027	0.02886
1587.92450	0.02887
1586.63873	0.02882
1585.35296	0.02876
1584.06719	0.02881
1582.78143	0.02899
1581.49566	0.02930
1580.20989	0.02970
1578.92412	0.03003
1577.63835	0.03017
1576.35258	0.03017
1575.06681	0.03020
1573.78104	0.03027
1572.49528	0.03031
1571.20951	0.03033
1569.92374	0.03039
1568.63797	0.03049
1567.35220	0.03052
1566.06643	0.03048
1564.78066	0.03054
1563.49489	0.03084
1562.20912	0.03129
1560.92336	0.03168
1559.63759	0.03193
1558.35182	0.03209
1557.06605	0.03206
1555.78028	0.03177
1554.49451	0.03138
1553.20874	0.03118
1551.92297	0.03117
1550.63721	0.03120
1549.35144	0.03122
1548.06567	0.03122
1546.77990	0.03122
1545.49413	0.03128
1544.20836	0.03146
1542.92259	0.03168
1541.63682	0.03177
1540.35105	0.03164
1539.06529	0.03138
1537.77952	0.03111
1536.49375	0.03081
1535.20798	0.03048
1533.92221	0.03023
1532.63644	0.03012
1531.35067	0.03011
1530.06490	0.03015
1528.77914	0.03027
1527.49337	0.03050
1526.20760	0.03085
1524.92183	0.03126
1523.63606	0.03162
1522.35029	0.03189
1521.06452	0.03217
1519.77875	0.03251
1518.49298	0.03284
1517.20722	0.03314
1515.92145	0.03350
1514.63568	0.03392
1513.34991	0.03440
1512.06414	0.03500
1510.77837	0.03580
1509.49260	0.03671
1508.20683	0.03753
1506.92107	0.03821
1505.63530	0.03880
1504.34953	0.03927
1503.06376	0.03959
1501.77799	0.03985
1500.49222	0.04024
1499.20645	0.04077
1497.92068	0.04132
1496.63491	0.04177
1495.34915	0.04212
1494.06338	0.04237
1492.77761	0.04254
1491.49184	0.04272
1490.20607	0.04304
1488.92030	0.04349
1487.63453	0.04400
1486.34876	0.04448
1485.06299	0.04495
1483.77723	0.04541
1482.49146	0.04591
1481.20569	0.04650
1479.91992	0.04717
1478.63415	0.04789
1477.34838	0.04865
1476.06261	0.04939
1474.77684	0.05003
1473.49108	0.05051
1472.20531	0.05085
1470.91954	0.05116
1469.63377	0.05146
1468.34800	0.05178
1467.06223	0.05209
1465.77646	0.05237
1464.49069	0.05262
1463.20492	0.05290
1461.91916	0.05327
1460.63339	0.05376
1459.34762	0.05433
1458.06185	0.05489
1456.77608	0.05541
1455.49031	0.05585
1454.20454	0.05608
1452.91877	0.05611
1451.63301	0.05609
1450.34724	0.05612
1449.06147	0.05614
1447.77570	0.05612
1446.48993	0.05607
1445.20416	0.05599
1443.91839	0.05587
1442.63262	0.05574
1441.34685	0.05563
1440.06109	0.05552
1438.77532	0.05536
1437.48955	0.05517
1436.20378	0.05506
1434.91801	0.05505
1433.63224	0.05511
1432.34647	0.05527
1431.06070	0.05561
1429.77494	0.05613
1428.48917	0.05673
1427.20340	0.05732
1425.91763	0.05791
1424.63186	0.05858
1423.34609	0.05943
1422.06032	0.06035
1420.77455	0.06118
1419.48878	0.06185
1418.20302	0.06234
1416.91725	0.06263
1415.63148	0.06277
1414.34571	0.06284
1413.05994	0.06287
1411.77417	0.06281
1410.48840	0.06262
1409.20263	0.06230
1407.91687	0.06190
1406.63110	0.06139
1405.34533	0.06077
1404.05956	0.06008
1402.77379	0.05934
1401.48802	0.05855
1400.20225	0.05770
1398.91648	0.05678
1397.63071	0.05577
1396.34495	0.05464
1395.05918	0.05341
1393.77341	0.05218
1392.48764	0.05104
1391.20187	0.04999
1389.91610	0.04901
1388.63033	0.04808
1387.34456	0.04720
1386.05880	0.04634
1384.77303	0.04547
1383.48726	0.04457
1382.20149	0.04369
1380.91572	0.04285
1379.62995	0.04202
1378.34418	0.04119
1377.05841	0.04029
1375.77264	0.03931
1374.48688	0.03825
1373.20111	0.03719
1371.91534	0.03617
1370.62957	0.03519
1369.34380	0.03424
1368.05803	0.03332
1366.77226	0.03248
1365.48649	0.03173
1364.20073	0.03104
1362.91496	0.03038
1361.62919	0.02970
1360.34342	0.02898
1359.05765	0.02823
1357.77188	0.02751
1356.48611	0.02688
1355.20034	0.02632
1353.91457	0.02582
1352.62881	0.02535
1351.34304	0.02492
1350.05727	0.02455
1348.77150	0.02421
1347.48573	0.02389
1346.19996	0.02359
1344.91419	0.02329
1343.62842	0.02301
1342.34266	0.02274
1341.05689	0.02249
1339.77112	0.02226
1338.48535	0.02204
1337.19958	0.02183
1335.91381	0.02163
1334.62804	0.02145
1333.34227	0.02127
1332.05650	0.02105
1330.77074	0.02080
1329.48497	0.02054
1328.19920	0.02033
1326.91343	0.02019
1325.62766	0.02009
1324.34189	0.02001
1323.05612	0.01994
1321.77035	0.01987
1320.48459	0.01981
1319.19882	0.01975
1317.91305	0.01966
1316.62728	0.01954
1315.34151	0.01940
1314.05574	0.01926
1312.76997	0.01910
1311.48420	0.01893
1310.19843	0.01876
1308.91267	0.01862
1307.62690	0.01853
1306.34113	0.01848
1305.05536	0.01841
1303.76959	0.01831
1302.48382	0.01820
1301.19805	0.01813
1299.91228	0.01808
1298.62652	0.01801
1297.34075	0.01790
1296.05498	0.01778
1294.76921	0.01767
1293.48344	0.01762
1292.19767	0.01761
1290.91190	0.01762
1289.62613	0.01757
1288.34036	0.01745
1287.05460	0.01727
1285.76883	0.01713
1284.48306	0.01706
1283.19729	0.01706
1281.91152	0.01706
1280.62575	0.01702
1279.33998	0.01694
1278.05421	0.01685
1276.76845	0.01676
1275.48268	0.01667
1274.19691	0.01656
1272.91114	0.01644
1271.62537	0.01632
1270.33960	0.01620
1269.05383	0.01608
1267.76806	0.01596
1266.48229	0.01588
1265.19653	0.01585
1263.91076	0.01586
1262.62499	0.01586
1261.33922	0.01579
1260.05345	0.01565
1258.76768	0.01551
1257.48191	0.01546
1256.19614	0.01552
1254.91037	0.01562
1253.62461	0.01566
1252.33884	0.01562
1251.05307	0.01552
1249.76730	0.01539
1248.48153	0.01525
1247.19576	0.01511
1245.90999	0.01499
1244.62422	0.01489
1243.33846	0.01480
1242.05269	0.01472
1240.76692	0.01465
1239.48115	0.01461
1238.19538	0.01462
1236.90961	0.01462
1235.62384	0.01460
1234.33807	0.01454
1233.05230	0.01447
1231.76654	0.01441
1230.48077	0.01434
1229.19500	0.01427
1227.90923	0.01421
1226.62346	0.01414
1225.33769	0.01409
1224.05192	0.01404
1222.76615	0.01400
1221.48039	0.01397
1220.19462	0.01394
1218.90885	0.01392
1217.62308	0.01393
1216.33731	0.01397
1215.05154	0.01403
1213.76577	0.01409
1212.48000	0.01407
1211.19423	0.01397
1209.90847	0.01382
1208.62270	0.01370
1207.33693	0.01367
1206.05116	0.01375
1204.76539	0.01387
1203.47962	0.01396
1202.19385	0.01398
1200.90808	0.01385
1199.62232	0.01359
1198.33655	0.01363
1197.05078	0.01369
1195.76501	0.01370
1194.47924	0.01363
1193.19347	0.01354
1191.90770	0.01348
1190.62193	0.01346
1189.33616	0.01351
1188.05040	0.01361
1186.76463	0.01374
1185.47886	0.01382
1184.19309	0.01381
1182.90732	0.01375
1181.62155	0.01372
1180.33578	0.01373
1179.05001	0.01374
1177.76425	0.01371
1176.47848	0.01366
1175.19271	0.01367
1173.90694	0.01376
1172.62117	0.01389
1171.33540	0.01398
1170.04963	0.01402
1168.76386	0.01406
1167.47809	0.01411
1166.19233	0.01420
1164.90656	0.01430
1163.62079	0.01445
1162.33502	0.01462
1161.04925	0.01482
1159.76348	0.01502
1158.47771	0.01517
1157.19194	0.01528
1155.90618	0.01537
1154.62041	0.01548
1153.33464	0.01564
1152.04887	0.01589
1150.76310	0.01623
1149.47733	0.01662
1148.19156	0.01703
1146.90579	0.01744
1145.62002	0.01782
1144.33426	0.01820
1143.04849	0.01862
1141.76272	0.01914
1140.47695	0.01976
1139.19118	0.02046
1137.90541	0.02123
1136.61964	0.02206
1135.33387	0.02296
1134.04811	0.02397
1132.76234	0.02508
1131.47657	0.02629
1130.19080	0.02763
1128.90503	0.02913
1127.61926	0.03081
1126.33349	0.03266
1125.04772	0.03465
1123.76195	0.03677
1122.47619	0.03900
1121.19042	0.04130
1119.90465	0.04361
1118.61888	0.04589
1117.33311	0.04816
1116.04734	0.05046
1114.76157	0.05278
1113.47580	0.05509
1112.19004	0.05731
1110.90427	0.05943
1109.61850	0.06147
1108.33273	0.06344
1107.04696	0.06535
1105.76119	0.06723
1104.47542	0.06908
1103.18965	0.07087
1101.90388	0.07261
1100.61812	0.07427
1099.33235	0.07587
1098.04658	0.07737
1096.76081	0.07875
1095.47504	0.08000
1094.18927	0.08115
1092.90350	0.08223
1091.61773	0.08323
1090.33197	0.08418
1089.04620	0.08513
1087.76043	0.08612
1086.47466	0.08715
1085.18889	0.08818
1083.90312	0.08918
1082.61735	0.09022
1081.33158	0.09138
1080.04581	0.09270
1078.76005	0.09419
1077.47428	0.09579
1076.18851	0.09744
1074.90274	0.09911
1073.61697	0.10081
1072.33120	0.10257
1071.04543	0.10440
1069.75966	0.10631
1068.47390	0.10827
1067.18813	0.11025
1065.90236	0.11225
1064.61659	0.11427
1063.33082	0.11630
1062.04505	0.11830
1060.75928	0.12031
1059.47351	0.12237
1058.18774	0.12449
1056.90198	0.12659
1055.61621	0.12857
1054.33044	0.13040
1053.04467	0.13217
1051.75890	0.13397
1050.47313	0.13586
1049.18736	0.13782
1047.90159	0.13986
1046.61583	0.14198
1045.33006	0.14420
1044.04429	0.14646
1042.75852	0.14872
1041.47275	0.15091
1040.18698	0.15303
1038.90121	0.15509
1037.61544	0.15712
1036.32967	0.15909
1035.04391	0.16099
1033.75814	0.16282
1032.47237	0.16454
1031.18660	0.16610
1029.90083	0.16745
1028.61506	0.16854
1027.32929	0.16934
1026.04352	0.16979
1024.75775	0.16986
1023.47199	0.16961
1022.18622	0.16915
1020.90045	0.16856
1019.61468	0.16781
1018.32891	0.16682
1017.04314	0.16549
1015.75737	0.16379
1014.47160	0.16175
1013.18584	0.15942
1011.90007	0.15683
1010.61430	0.15400
1009.32853	0.15097
1008.04276	0.14771
1006.75699	0.14419
1005.47122	0.14042
1004.18545	0.13649
1002.89968	0.13252
1001.61392	0.12853
1000.32815	0.12447
999.04238	0.12032
997.75661	0.11611
996.47084	0.11189
995.18507	0.10770
993.89930	0.10352
992.61353	0.09939
991.32777	0.09539
990.04200	0.09158
988.75623	0.08800
987.47046	0.08461
986.18469	0.08138
984.89892	0.07832
983.61315	0.07546
982.32738	0.07278
981.04161	0.07024
979.75585	0.06783
978.47008	0.06559
977.18431	0.06360
975.89854	0.06190
974.61277	0.06045
973.32700	0.05922
972.04123	0.05823
970.75546	0.05755
969.46970	0.05721
968.18393	0.05718
966.89816	0.05738
965.61239	0.05770
964.32662	0.05810
963.04085	0.05856
961.75508	0.05895
960.46931	0.05910
959.18354	0.05883
957.89778	0.05811
956.61201	0.05706
955.32624	0.05581
954.04047	0.05448
952.75470	0.05317
951.46893	0.05193
950.18316	0.05074
948.89739	0.04951
947.61163	0.04815
946.32586	0.04672
945.04009	0.04536
943.75432	0.04417
942.46855	0.04313
941.18278	0.04216
939.89701	0.04122
938.61124	0.04032
937.32547	0.03948
936.03971	0.03870
934.75394	0.03798
933.46817	0.03732
932.18240	0.03673
930.89663	0.03619
929.61086	0.03565
928.32509	0.03510
927.03932	0.03458
925.75356	0.03410
924.46779	0.03367
923.18202	0.03325
921.89625	0.03285
920.61048	0.03249
919.32471	0.03216
918.03894	0.03183
916.75317	0.03150
915.46740	0.03119
914.18164	0.03096
912.89587	0.03078
911.61010	0.03056
910.32433	0.03024
909.03856	0.02986
907.75279	0.02950
906.46702	0.02925
905.18125	0.02913
903.89549	0.02912
902.60972	0.02918
901.32395	0.02922
900.03818	0.02917
898.75241	0.02901
897.46664	0.02882
896.18087	0.02865
894.89510	0.02847
893.60933	0.02824
892.32357	0.02799
891.03780	0.02776
889.75203	0.02764
888.46626	0.02771
887.18049	0.02809
885.89472	0.02884
884.60895	0.03001
883.32318	0.03155
882.03742	0.03331
880.75165	0.03497
879.46588	0.03624
878.18011	0.03705
876.89434	0.03766
875.60857	0.03835
874.32280	0.03913
873.03703	0.03975
871.75126	0.03999
870.46550	0.03978
869.17973	0.03919
867.89396	0.03832
866.60819	0.03726
865.32242	0.03607
864.03665	0.03483
862.75088	0.03360
861.46511	0.03245
860.17935	0.03141
858.89358	0.03053
857.60781	0.02985
856.32204	0.02933
855.03627	0.02890
853.75050	0.02852
852.46473	0.02818
851.17896	0.02785
849.89319	0.02751
848.60743	0.02716
847.32166	0.02682
846.03589	0.02656
844.75012	0.02642
843.46435	0.02637
842.17858	0.02633
840.89281	0.02625
839.60704	0.02613
838.32128	0.02600
837.03551	0.02587
835.74974	0.02572
834.46397	0.02556
833.17820	0.02542
831.89243	0.02533
830.60666	0.02524
829.32089	0.02513
828.03512	0.02501
826.74936	0.02493
825.46359	0.02488
824.17782	0.02481
822.89205	0.02469
821.60628	0.02458
820.32051	0.02451
819.03474	0.02453
817.74897	0.02463
816.46321	0.02476
815.17744	0.02486
813.89167	0.02492
812.60590	0.02494
811.32013	0.02496
810.03436	0.02498
808.74859	0.02497
807.46282	0.02494
806.17705	0.02490
804.89129	0.02483
803.60552	0.02475
802.31975	0.02465
801.03398	0.02453
799.74821	0.02441
798.46244	0.02430
797.17667	0.02423
795.89090	0.02421
794.60513	0.02423
793.31937	0.02424
792.03360	0.02424
790.74783	0.02423
789.46206	0.02419
788.17629	0.02413
786.89052	0.02404
785.60475	0.02395
784.31898	0.02390
783.03322	0.02391
781.74745	0.02400
780.46168	0.02413
779.17591	0.02423
777.89014	0.02424
776.60437	0.02416
775.31860	0.02402
774.03283	0.02388
772.74706	0.02377
771.46130	0.02371
770.17553	0.02369
768.88976	0.02370
767.60399	0.02371
766.31822	0.02372
765.03245	0.02375
763.74668	0.02384
762.46091	0.02399
761.17515	0.02419
759.88938	0.02440
758.60361	0.02458
757.31784	0.02465
756.03207	0.02460
754.74630	0.02443
753.46053	0.02426
752.17476	0.02414
750.88899	0.02409
749.60323	0.02408
748.31746	0.02413
747.03169	0.02419
745.74592	0.02420
744.46015	0.02408
743.17438	0.02384
741.88861	0.02353
740.60284	0.02323
739.31708	0.02302
738.03131	0.02292
736.74554	0.02291
735.45977	0.02294
734.17400	0.02299
732.88823	0.02304
731.60246	0.02307
730.31669	0.02310
729.03092	0.02313
727.74516	0.02317
726.45939	0.02320
725.17362	0.02327
723.88785	0.02370
722.60208	0.02358
721.31631	0.02319
720.03054	0.02282
718.74477	0.02249
717.45901	0.02227
716.17324	0.02219
714.88747	0.02227
713.60170	0.02245
712.31593	0.02267
711.03016	0.02285
709.74439	0.02297
708.45862	0.02301
707.17285	0.02297
705.88709	0.02290
704.60132	0.02283
703.31555	0.02281
702.02978	0.02283
700.74401	0.02283
699.45824	0.02273
698.17247	0.02255
696.88670	0.02232
695.60094	0.02210
694.31517	0.02195
693.02940	0.02187
691.74363	0.02187
690.45786	0.02191
689.17209	0.02195
687.88632	0.02198
686.60055	0.02200
685.31478	0.02206
684.02902	0.02217
682.74325	0.02229
681.45748	0.02240
680.17171	0.02249
678.88594	0.02255
677.60017	0.02261
676.31440	0.02267
675.02863	0.02275
673.74287	0.02286
672.45710	0.02298
671.17133	0.02302
669.88556	0.02301
668.59979	0.02329
667.31402	0.02333
666.02825	0.02279
664.74248	0.02270
663.45671	0.02262
662.17095	0.02244
660.88518	0.02227
659.59941	0.02214
658.31364	0.02207
657.02787	0.02203
655.74210	0.02201
654.45633	0.02198
653.17056	0.02195
651.88480	0.02194
650.59903	0.02197
649.31326	0.02201
648.02749	0.02202
646.74172	0.02201
645.45595	0.02199
644.17018	0.02200
642.88441	0.02205
641.59864	0.02212
640.31288	0.02221
639.02711	0.02235
637.74134	0.02257
636.45557	0.02286
635.16980	0.02315
633.88403	0.02337
632.59826	0.02348
631.31249	0.02378
630.02673	0.02526
628.74096	0.02739
627.45519	0.02647
626.16942	0.02922
624.88365	0.03457
623.59788	0.04006
622.31211	0.04477
621.02634	0.04810
619.74057	0.04949
618.45481	0.04888
617.16904	0.04684
615.88327	0.04428
614.59750	0.04209
613.31173	0.04095
612.02596	0.04146
610.74019	0.04430
609.45442	0.04970
608.16866	0.05675
606.88289	0.06362
605.59712	0.06877
604.31135	0.07164
603.02558	0.07250
601.73981	0.07195
600.45404	0.07051
599.16827	0.06855
597.88250	0.06626
596.59674	0.06384
595.31097	0.06148
594.02520	0.05936
592.73943	0.05759
591.45366	0.05628
590.16789	0.05550
588.88212	0.05529
587.59635	0.05558
586.31059	0.05625
585.02482	0.05721
583.73905	0.05842
582.45328	0.05988
581.16751	0.06150
579.88174	0.06314
578.59597	0.06468
577.31020	0.06612
576.02443	0.06756
574.73867	0.06913
573.45290	0.07088
572.16713	0.07277
570.88136	0.07475
569.59559	0.07681
568.30982	0.07900
567.02405	0.08136
565.73828	0.08373
564.45251	0.08574
563.16675	0.08693
561.88098	0.08706
560.59521	0.08610
559.30944	0.08412
558.02367	0.08122
556.73790	0.07758
555.45213	0.07346
554.16636	0.06917
552.88060	0.06500
551.59483	0.06116
550.30906	0.05776
549.02329	0.05478
547.73752	0.05213
546.45175	0.04972
545.16598	0.04754
543.88021	0.04557
542.59444	0.04381
541.30868	0.04224
540.02291	0.04089
538.73714	0.03971
537.45137	0.03862
536.16560	0.03756
534.87983	0.03660
533.59406	0.03579
532.30829	0.03511
531.02253	0.03443
529.73676	0.03369
528.45099	0.03293
527.16522	0.03221
525.87945	0.03156
524.59368	0.03097
523.30791	0.03038
522.02214	0.02975
520.73637	0.02912
519.45061	0.02856
518.16484	0.02808
516.87907	0.02764
515.59330	0.02715
514.30753	0.02660
513.02176	0.02604
511.73599	0.02558
510.45022	0.02526
509.16446	0.02506
507.87869	0.02488
506.59292	0.02467
505.30715	0.02440
504.02138	0.02409
502.73561	0.02381
501.44984	0.02365
500.16407	0.02360
498.87830	0.02361
497.59254	0.02359
496.30677	0.02347
495.02100	0.02324
493.73523	0.02297
492.44946	0.02273
491.16369	0.02257
489.87792	0.02242
488.59215	0.02223
487.30639	0.02203
486.02062	0.02191
484.73485	0.02191
483.44908	0.02200
482.16331	0.02209
480.87754	0.02212
479.59177	0.02209
478.30600	0.02207
477.02023	0.02215
475.73447	0.02236
474.44870	0.02264
473.16293	0.02291
471.87716	0.02309
470.59139	0.02317
469.30562	0.02318
468.01985	0.02319
466.73408	0.02319
465.44832	0.02313
464.16255	0.02301
462.87678	0.02285
461.59101	0.02269
460.30524	0.02250
459.01947	0.02223
457.73370	0.02187
456.44793	0.02151
455.16216	0.02122
453.87640	0.02100
452.59063	0.02082
451.30486	0.02065
450.01909	0.02054
448.73332	0.02052
447.44755	0.02054
446.16178	0.02052
444.87601	0.02037
443.59025	0.02011
442.30448	0.01985
441.01871	0.01966
439.73294	0.01959
438.44717	0.01961
437.16140	0.01966
435.87563	0.01967
434.58986	0.01965
433.30409	0.01962
432.01833	0.01963
430.73256	0.01964
429.44679	0.01961
428.16102	0.01950
426.87525	0.01937
425.58948	0.01925
424.30371	0.01917
423.01794	0.01909
421.73218	0.01899
420.44641	0.01883
419.16064	0.01866
417.87487	0.01849
416.58910	0.01834
415.30333	0.01824
414.01756	0.01823
412.73179	0.01829
411.44602	0.01834
410.16026	0.01834
408.87449	0.01830
407.58872	0.01831
406.30295	0.01840
405.01718	0.01851
403.73141	0.01858
402.44564	0.01859
401.15987	0.01859
399.87411	0.01860
